ECG
-0.3385
-0.3305
-0.3305
-0.33
-0.327
-0.331
-0.337
-0.342
-0.3425
-0.336
-0.3335
-0.3425
-0.346
-0.344
-0.34
-0.336
-0.335
-0.3365
-0.335
-0.3385
-0.346
-0.337
-0.3375
-0.3435
-0.34
-0.3395
-0.3385
-0.3375
-0.3355
-0.331
-0.327
-0.333
-0.3345
-0.334
-0.331
-0.3295
-0.333
-0.33
-0.335
-0.3375
-0.3335
-0.3235
-0.3135
-0.3085
-0.3035
-0.306
-0.307
-0.3055
-0.2975
-0.29
-0.294
-0.2955
-0.298
-0.3045
-0.3045
-0.3015
-0.2995
-0.2975
-0.298
-0.2925
-0.2905
-0.2885
-0.2805
-0.273
-0.2655
-0.267
-0.269
-0.2665
-0.2565
-0.2555
-0.264
-0.2755
-0.283
-0.2825
-0.2825
-0.276
-0.277
-0.275
-0.279
-0.2915
-0.2945
-0.2875
-0.28
-0.281
-0.284
-0.293
-0.2995
-0.298
-0.2965
-0.2895
-0.2795
-0.2805
-0.2865
-0.295
-0.307
-0.321
-0.332
-0.3325
-0.336
-0.339
-0.339
-0.342
-0.3415
-0.335
-0.335
-0.338
-0.335
-0.3325
-0.3295
-0.3295
-0.3285
-0.332
-0.3355
-0.334
-0.335
-0.3315
-0.33
-0.3345
-0.3455
-0.3465
-0.3365
-0.334
-0.331
-0.329
-0.333
-0.338
-0.3425
-0.346
-0.345
-0.342
-0.343
-0.347
-0.35
-0.3535
-0.3535
-0.35
-0.349
-0.347
-0.3475
-0.3475
-0.3445
-0.341
-0.339
-0.3385
-0.343
-0.347
-0.3455
-0.346
-0.3455
-0.3445
-0.35
-0.3545
-0.358
-0.365
-0.3675
-0.3665
-0.3615
-0.36
-0.365
-0.369
-0.374
-0.3805
-0.387
-0.3825
-0.3785
-0.3745
-0.36
-0.3465
-0.3355
-0.3205
-0.301
-0.288
-0.272
-0.2565
-0.2355
-0.2035
-0.172
-0.1245
-0.0855
-0.0575
-0.0285
0.003
0.046
0.078
0.1015
0.112
0.113
0.1025
0.0765
0.041
0.0075
-0.0245
-0.064
-0.0965
-0.1335
-0.152
-0.162
-0.1815
-0.1945
-0.211
-0.2285
-0.235
-0.246
-0.26
-0.2655
-0.269
-0.261
-0.2525
-0.254
-0.2555
-0.26
-0.278
-0.2855
-0.2865
-0.285
-0.2765
-0.2735
-0.2715
-0.275
-0.273
-0.2765
-0.2805
-0.2845
-0.2955
-0.2985
-0.305
-0.3105
-0.3145
-0.32
-0.3225
-0.325
-0.327
-0.3305
-0.3385
-0.3415
-0.342
-0.3425
-0.344
-0.3535
-0.352
-0.3525
-0.3545
-0.3525
-0.352
-0.349
-0.349
-0.349
-0.3515
-0.3485
-0.3465
-0.3455
-0.3445
-0.35
-0.355
-0.357
-0.354
-0.354
-0.356
-0.3565
-0.356
-0.3535
-0.352
-0.3515
-0.356
-0.354
-0.346
-0.3395
-0.336
-0.34
-0.341
-0.3405
-0.3395
-0.339
-0.3445
-0.346
-0.342
-0.341
-0.3435
-0.347
-0.35
-0.348
-0.347
-0.3455
-0.343
-0.3435
-0.3435
-0.3505
-0.352
-0.3485
-0.3445
-0.344
-0.3495
-0.3495
-0.3495
-0.343
-0.3385
-0.3395
-0.3385
-0.3445
-0.347
-0.3465
-0.346
-0.34
-0.3395
-0.3435
-0.343
-0.3415
-0.347
-0.3485
-0.344
-0.3385
-0.3405
-0.3425
-0.345
-0.3465
-0.3435
-0.3465
-0.345
-0.348
-0.346
-0.339
-0.3375
-0.3385
-0.3385
-0.34
-0.341
-0.3385
-0.3385
-0.3335
-0.3295
-0.332
-0.336
-0.341
-0.342
-0.343
-0.3465
-0.3395
-0.334
-0.337
-0.335
-0.334
-0.334
-0.337
-0.329
-0.3315
-0.338
-0.3365
-0.3405
-0.3345
-0.332
-0.3355
-0.34
-0.344
-0.3425
-0.3335
-0.324
-0.32
-0.3235
-0.3325
-0.3335
-0.3285
-0.3165
-0.3125
-0.31
-0.316
-0.327
-0.325
-0.322
-0.3245
-0.3345
-0.3295
-0.3215
-0.3235
-0.3245
-0.324
-0.3245
-0.33
-0.3335
-0.3305
-0.3325
-0.331
-0.325
-0.3285
-0.324
-0.3255
-0.323
-0.314
-0.318
-0.3135
-0.3085
-0.3115
-0.3155
-0.318
-0.3165
-0.314
-0.3145
-0.3115
-0.3055
-0.307
-0.305
-0.3045
-0.3045
-0.304
-0.302
-0.299
-0.3015
-0.299
-0.2915
-0.2885
-0.287
-0.2885
-0.293
-0.296
-0.2955
-0.291
-0.2895
-0.2875
-0.2855
-0.291
-0.289
-0.286
-0.2755
-0.2685
-0.272
-0.271
-0.2765
-0.278
-0.275
-0.2705
-0.266
-0.2615
-0.258
-0.2565
-0.26
-0.2605
-0.259
-0.2615
-0.255
-0.258
-0.2685
-0.2615
-0.25
-0.242
-0.237
-0.2415
-0.245
-0.243
-0.2375
-0.233
-0.237
-0.2345
-0.229
-0.231
-0.224
-0.2165
-0.2165
-0.2105
-0.213
-0.2225
-0.2335
-0.238
-0.2345
-0.2255
-0.218
-0.215
-0.2095
-0.212
-0.2105
-0.2065
-0.207
-0.204
-0.209
-0.21
-0.2095
-0.2105
-0.2095
-0.2095
-0.2085
-0.204
-0.2055
-0.218
-0.216
-0.2085
-0.2035
-0.208
-0.216
-0.22
-0.2185
-0.211
-0.2135
-0.209
-0.213
-0.225
-0.2255
-0.223
-0.223
-0.226
-0.228
-0.2295
-0.2365
-0.241
-0.24
-0.2405
-0.2335
-0.2365
-0.2445
-0.245
-0.25
-0.248
-0.245
-0.248
-0.257
-0.263
-0.2675
-0.2735
-0.273
-0.275
-0.278
-0.281
-0.287
-0.287
-0.2795
-0.2835
-0.2865
-0.2855
-0.285
-0.2865
-0.296
-0.294
-0.289
-0.2935
-0.304
-0.3065
-0.312
-0.309
-0.3045
-0.3105
-0.313
-0.3165
-0.3205
-0.3245
-0.3235
-0.3225
-0.3175
-0.3175
-0.324
-0.319
-0.3145
-0.3185
-0.3165
-0.32
-0.3255
-0.322
-0.328
-0.3325
-0.3345
-0.3415
-0.3475
-0.3495
-0.3485
-0.345
-0.335
-0.3295
-0.3275
-0.3295
-0.334
-0.334
-0.3365
-0.333
-0.3275
-0.3335
-0.3395
-0.3385
-0.3435
-0.34
-0.3355
-0.338
-0.337
-0.342
-0.344
-0.3455
-0.343
-0.342
-0.3435
-0.3395
-0.3385
-0.338
-0.339
-0.3425
-0.341
-0.34
-0.3435
-0.341
-0.347
-0.346
-0.3435
-0.3475
-0.3395
-0.344
-0.348
-0.3475
-0.344
-0.3365
-0.337
-0.337
-0.3365
-0.3365
-0.3375
-0.3325
-0.3335
-0.336
-0.336
-0.3435
-0.347
-0.3485
-0.3425
-0.3375
-0.336
-0.3385
-0.3445
-0.343
-0.3385
-0.331
-0.3305
-0.337
-0.3385
-0.344
-0.348
-0.3505
-0.3455
-0.3355
-0.3385
-0.3425
-0.345
-0.344
-0.3405
-0.337
-0.3365
-0.3385
-0.34
-0.338
-0.336
-0.346
-0.3475
-0.3455
-0.3445
-0.3485
-0.3595
-0.3605
-0.363
-0.3605
-0.3575
-0.357
-0.3565
-0.356
-0.3545
-0.3565
-0.3535
-0.355
-0.356
-0.3495
-0.3445
-0.3425
-0.3395
-0.3425
-0.3435
-0.341
-0.346
-0.35
-0.3495
-0.3445
-0.345
-0.3465
-0.351
-0.3515
-0.346
-0.346
-0.345
-0.3475
-0.3485
-0.3465
-0.343
-0.34
-0.343
-0.347
-0.35
-0.3495
-0.349
-0.344
-0.336
-0.3345
-0.3385
-0.344
-0.356
-0.359
-0.354
-0.354
-0.35
-0.35
-0.3545
-0.3575
-0.3515
-0.343
-0.342
-0.339
-0.345
-0.3535
-0.351
-0.339
-0.336
-0.3445
-0.35
-0.3535
-0.3575
-0.3615
-0.3605
-0.355
-0.353
-0.3475
-0.347
-0.348
-0.342
-0.345
-0.3475
-0.352
-0.3475
-0.338
-0.3375
-0.34
-0.3425
-0.3445
-0.347
-0.3465
-0.353
-0.346
-0.345
-0.354
-0.358
-0.359
-0.3545
-0.3525
-0.347
-0.3405
-0.3385
-0.3445
-0.3495
-0.351
-0.3415
-0.3355
-0.3445
-0.349
-0.3485
-0.3505
-0.3535
-0.349
-0.353
-0.3555
-0.3505
-0.3495
-0.3505
-0.352
-0.3425
-0.343
-0.347
-0.348
-0.352
-0.351
-0.352
-0.348
-0.3405
-0.3405
-0.3515
-0.345
-0.349
-0.3545
-0.3485
-0.352
-0.3505
-0.353
-0.353
-0.349
-0.346
-0.3455
-0.343
-0.342
-0.342
-0.343
-0.3455
-0.342
-0.3425
-0.3395
-0.345
-0.3525
-0.347
-0.347
-0.344
-0.345
-0.3535
-0.353
-0.3495
-0.346
-0.339
-0.335
-0.3335
-0.3365
-0.339
-0.346
-0.353
-0.3485
-0.3475
-0.3455
-0.349
-0.3515
-0.352
-0.348
-0.336
-0.337
-0.343
-0.3475
-0.3515
-0.353
-0.3455
-0.3335
-0.33
-0.3365
-0.3455
-0.3495
-0.345
-0.344
-0.3465
-0.3465
-0.3585
-0.367
-0.3655
-0.3565
-0.3485
-0.347
-0.3455
-0.351
-0.3535
-0.356
-0.3515
-0.3455
-0.3455
-0.3455
-0.3415
-0.3395
-0.344
-0.34
-0.3415
-0.343
-0.3455
-0.3515
-0.3525
-0.35
-0.3515
-0.353
-0.351
-0.3555
-0.353
-0.3495
-0.346
-0.3385
-0.3375
-0.341
-0.341
-0.3415
-0.338
-0.3325
-0.334
-0.3385
-0.3395
-0.343
-0.3505
-0.3485
-0.3455
-0.3505
-0.352
-0.3555
-0.3585
-0.355
-0.3525
-0.348
-0.344
-0.35
-0.355
-0.3515
-0.351
-0.3535
-0.347
-0.3465
-0.351
-0.3555
-0.3545
-0.3425
-0.3485
-0.3495
-0.338
-0.3455
-0.3615
-0.3625
-0.3505
-0.3405
-0.3435
-0.35
-0.3485
-0.3455
-0.344
-0.3445
-0.34
-0.3405
-0.3485
-0.3505
-0.3535
-0.3495
-0.343
-0.345
-0.3525
-0.353
-0.356
-0.35
-0.3475
-0.359
-0.3535
-0.3515
-0.3535
-0.355
-0.353
-0.347
-0.34
-0.3375
-0.344
-0.3485
-0.35
-0.34
-0.3385
-0.343
-0.3395
-0.3415
-0.349
-0.348
-0.344
-0.3435
-0.337
-0.3375
-0.337
-0.338
-0.335
-0.329
-0.325
-0.3305
-0.347
-0.347
-0.3505
-0.3435
-0.338
-0.3435
-0.346
-0.3505
-0.3485
-0.3385
-0.329
-0.335
-0.3385
-0.34
-0.3425
-0.341
-0.3405
-0.3385
-0.34
-0.3405
-0.3465
-0.3465
-0.3475
-0.3515
-0.3495
-0.3465
-0.3455
-0.349
-0.345
-0.342
-0.3455
-0.3435
-0.3365
-0.3415
-0.344
-0.3415
-0.339
-0.3355
-0.3385
-0.342
-0.347
-0.35
-0.351
-0.3475
-0.347
-0.346
-0.344
-0.345
-0.3415
-0.3395
-0.339
-0.341
-0.3395
-0.339
-0.343
-0.3385
-0.329
-0.3275
-0.3305
-0.333
-0.335
-0.341
-0.3455
-0.3475
-0.352
-0.3485
-0.3475
-0.3435
-0.347
-0.3475
-0.3405
-0.34
-0.332
-0.338
-0.3455
-0.34
-0.3375
-0.3385
-0.3365
-0.342
-0.345
-0.3415
-0.3455
-0.343
-0.3455
-0.347
-0.3395
-0.341
-0.3475
-0.3455
-0.3385
-0.3325
-0.332
-0.3355
-0.34
-0.346
-0.3365
-0.332
-0.3385
-0.3385
-0.336
-0.334
-0.3415
-0.344
-0.3365
-0.3335
-0.3335
-0.3315
-0.3275
-0.327
-0.327
-0.3315
-0.329
-0.326
-0.3185
-0.3145
-0.3215
-0.324
-0.3215
-0.3195
-0.322
-0.3235
-0.3255
-0.3245
-0.3275
-0.3215
-0.318
-0.322
-0.3185
-0.3135
-0.3115
-0.307
-0.302
-0.3025
-0.2995
-0.3
-0.3
-0.302
-0.3035
-0.3005
-0.3075
-0.315
-0.314
-0.303
-0.295
-0.295
-0.296
-0.295
-0.2875
-0.2805
-0.2805
-0.2755
-0.271
-0.2745
-0.2815
-0.2895
-0.286
-0.282
-0.282
-0.2905
-0.292
-0.293
-0.301
-0.29
-0.2925
-0.3
-0.303
-0.309
-0.311
-0.3065
-0.3045
-0.3095
-0.3065
-0.3065
-0.3075
-0.309
-0.3155
-0.3175
-0.315
-0.3205
-0.3235
-0.3235
-0.3315
-0.332
-0.342
-0.3495
-0.3455
-0.3495
-0.347
-0.3445
-0.343
-0.338
-0.3345
-0.335
-0.3395
-0.344
-0.3415
-0.339
-0.34
-0.338
-0.341
-0.344
-0.3465
-0.3435
-0.341
-0.347
-0.3485
-0.351
-0.3565
-0.3545
-0.351
-0.3485
-0.3455
-0.3455
-0.3415
-0.349
-0.354
-0.344
-0.343
-0.346
-0.3525
-0.357
-0.354
-0.3535
-0.3585
-0.3525
-0.3445
-0.3415
-0.342
-0.343
-0.343
-0.3505
-0.35
-0.3455
-0.3465
-0.3505
-0.348
-0.3465
-0.352
-0.3595
-0.362
-0.3595
-0.36
-0.364
-0.3665
-0.368
-0.375
-0.3675
-0.3605
-0.36
-0.348
-0.3375
-0.322
-0.307
-0.289
-0.2675
-0.2435
-0.2205
-0.1965
-0.17
-0.139
-0.095
-0.0595
-0.0245
0.0035
0.0325
0.0575
0.0855
0.113
0.112
0.1085
0.077
0.0415
0.01
-0.025
-0.04
-0.064
-0.09
-0.1115
-0.147
-0.1705
-0.1795
-0.199
-0.2205
-0.2395
-0.2555
-0.27
-0.27
-0.279
-0.288
-0.277
-0.274
-0.277
-0.2805
-0.28
-0.281
-0.2835
-0.286
-0.289
-0.2905
-0.2945
-0.299
-0.295
-0.2915
-0.29
-0.2865
-0.2965
-0.307
-0.3085
-0.3055
-0.3025
-0.2975
-0.302
-0.318
-0.32
-0.3305
-0.3365
-0.335
-0.3315
-0.3275
-0.3335
-0.3355
-0.338
-0.33
-0.332
-0.3325
-0.336
-0.3455
-0.34
-0.344
-0.344
-0.3385
-0.336
-0.334
-0.33
-0.3345
-0.341
-0.3335
-0.3325
-0.336
-0.335
-0.338
-0.342
-0.3365
-0.331
-0.3375
-0.352
-0.355
-0.346
-0.336
-0.3275
-0.33
-0.3315
-0.334
-0.3325
-0.3285
-0.3325
-0.3255
-0.324
-0.329
-0.328
-0.327
-0.3295
-0.3265
-0.322
-0.3275
-0.339
-0.343
-0.3395
-0.334
-0.33
-0.322
-0.318
-0.3265
-0.3265
-0.3295
-0.3305
-0.325
-0.326
-0.328
-0.3255
-0.3205
-0.3265
-0.3305
-0.3285
-0.325
-0.322
-0.3305
-0.336
-0.3305
-0.322
-0.318
-0.3235
-0.3245
-0.3215
-0.3225
-0.324
-0.3225
-0.318
-0.3205
-0.323
-0.3205
-0.329
-0.335
-0.3295
-0.3235
-0.328
-0.333
-0.3275
-0.319
-0.31
-0.3095
-0.3175
-0.326
-0.3235
-0.321
-0.321
-0.3095
-0.3005
-0.3065
-0.312
-0.312
-0.3155
-0.315
-0.315
-0.3155
-0.312
-0.3165
-0.327
-0.322
-0.3125
-0.3045
-0.304
-0.3085
-0.299
-0.3115
-0.3195
-0.3135
-0.3125
-0.3115
-0.3215
-0.323
-0.3205
-0.3185
-0.3165
-0.3095
-0.303
-0.31
-0.3095
-0.304
-0.3065
-0.301
-0.299
-0.301
-0.295
-0.294
-0.295
-0.298
-0.296
-0.301
-0.305
-0.2985
-0.3045
-0.303
-0.3005
-0.293
-0.2885
-0.297
-0.295
-0.296
-0.2965
-0.293
-0.2885
-0.288
-0.2875
-0.2835
-0.2755
-0.2725
-0.278
-0.2795
-0.2795
-0.2815
-0.281
-0.2715
-0.269
-0.272
-0.275
-0.283
-0.285
-0.2845
-0.283
-0.271
-0.2625
-0.266
-0.263
-0.26
-0.256
-0.2525
-0.257
-0.257
-0.254
-0.259
-0.261
-0.2505
-0.246
-0.248
-0.2475
-0.2405
-0.2375
-0.243
-0.2395
-0.233
-0.229
-0.226
-0.222
-0.221
-0.2185
-0.2225
-0.231
-0.227
-0.2275
-0.229
-0.22
-0.21
-0.2095
-0.2115
-0.2095
-0.2115
-0.22
-0.2155
-0.2095
-0.21
-0.199
-0.198
-0.2015
-0.2005
-0.193
-0.184
-0.1825
-0.1855
-0.185
-0.183
-0.181
-0.178
-0.1815
-0.1805
-0.1745
-0.175
-0.181
-0.1815
-0.1815
-0.178
-0.177
-0.179
-0.174
-0.1715
-0.1735
-0.169
-0.168
-0.1765
-0.1795
-0.178
-0.1655
-0.161
-0.1735
-0.175
-0.1685
-0.175
-0.1835
-0.182
-0.1885
-0.1885
-0.1825
-0.1875
-0.182
-0.181
-0.1795
-0.177
-0.189
-0.1975
-0.2055
-0.203
-0.201
-0.204
-0.2025
-0.2085
-0.2155
-0.2205
-0.2175
-0.2135
-0.223
-0.228
-0.2325
-0.234
-0.2345
-0.2395
-0.2355
-0.233
-0.236
-0.243
-0.245
-0.2505
-0.255
-0.255
-0.261
-0.2655
-0.2695
-0.2705
-0.2725
-0.2705
-0.2735
-0.276
-0.2765
-0.2885
-0.2925
-0.291
-0.2865
-0.2865
-0.287
-0.284
-0.286
-0.2895
-0.2905
-0.2905
-0.2905
-0.2945
-0.304
-0.3045
-0.3015
-0.3065
-0.3115
-0.3085
-0.3105
-0.317
-0.3155
-0.315
-0.3135
-0.319
-0.322
-0.3165
-0.3075
-0.3045
-0.3175
-0.325
-0.3255
-0.326
-0.325
-0.3305
-0.3435
-0.3435
-0.327
-0.3185
-0.3275
-0.3315
-0.3255
-0.3285
-0.328
-0.3225
-0.3185
-0.321
-0.329
-0.3385
-0.336
-0.32
-0.322
-0.327
-0.3345
-0.3405
-0.3385
-0.3385
-0.3345
-0.3385
-0.342
-0.337
-0.3315
-0.3285
-0.327
-0.3275
-0.3285
-0.331
-0.335
-0.337
-0.3365
-0.3305
-0.33
-0.333
-0.3325
-0.3325
-0.334
-0.3315
-0.3295
-0.3275
-0.333
-0.3395
-0.331
-0.329
-0.332
-0.332
-0.3265
-0.3295
-0.3305
-0.3255
-0.3315
-0.3315
-0.3305
-0.338
-0.34
-0.341
-0.3405
-0.332
-0.3295
-0.33
-0.334
-0.3375
-0.334
-0.331
-0.3285
-0.325
-0.3265
-0.3295
-0.3245
-0.3315
-0.3315
-0.322
-0.3285
-0.3335
-0.338
-0.338
-0.335
-0.3335
-0.3365
-0.331
-0.326
-0.328
-0.317
-0.3095
-0.318
-0.3295
-0.327
-0.329
-0.336
-0.3335
-0.328
-0.3285
-0.338
-0.339
-0.3405
-0.3385
-0.334
-0.3305
-0.3245
-0.3195
-0.3205
-0.334
-0.334
-0.332
-0.3295
-0.3275
-0.3295
-0.3275
-0.328
-0.3335
-0.34
-0.3435
-0.346
-0.351
-0.3515
-0.345
-0.344
-0.344
-0.3405
-0.336
-0.333
-0.335
-0.333
-0.3355
-0.3395
-0.336
-0.339
-0.3435
-0.3355
-0.3345
-0.341
-0.3445
-0.3365
-0.3325
-0.341
-0.3405
-0.3385
-0.337
-0.338
-0.3365
-0.337
-0.3435
-0.3435
-0.3435
-0.338
-0.3365
-0.3325
-0.331
-0.3395
-0.34
-0.3415
-0.335
-0.3355
-0.342
-0.336
-0.3295
-0.3275
-0.3245
-0.3245
-0.328
-0.329
-0.335
-0.337
-0.3335
-0.3355
-0.339
-0.338
-0.343
-0.3455
-0.3485
-0.35
-0.3465
-0.3505
-0.3455
-0.3445
-0.3485
-0.347
-0.344
-0.3325
-0.3235
-0.3295
-0.3325
-0.3305
-0.335
-0.3315
-0.331
-0.336
-0.3355
-0.339
-0.343
-0.341
-0.341
-0.3445
-0.342
-0.3345
-0.335
-0.346
-0.343
-0.3325
-0.3285
-0.3275
-0.328
-0.331
-0.3305
-0.3235
-0.324
-0.3295
-0.3295
-0.3285
-0.336
-0.339
-0.339
-0.338
-0.337
-0.342
-0.344
-0.343
-0.337
-0.3355
-0.3345
-0.328
-0.3225
-0.328
-0.3375
-0.3355
-0.331
-0.33
-0.338
-0.3425
-0.3475
-0.347
-0.3385
-0.3395
-0.342
-0.346
-0.3425
-0.3465
-0.35
-0.3395
-0.3335
-0.3335
-0.331
-0.331
-0.34
-0.34
-0.338
-0.3315
-0.334
-0.3375
-0.3315
-0.3375
-0.3335
-0.3315
-0.333
-0.334
-0.336
-0.3335
-0.329
-0.3285
-0.329
-0.3285
-0.3315
-0.3235
-0.323
-0.3285
-0.331
-0.331
-0.3305
-0.3375
-0.336
-0.332
-0.3375
-0.3355
-0.326
-0.3255
-0.322
-0.3195
-0.3235
-0.329
-0.328
-0.325
-0.33
-0.328
-0.3305
-0.3315
-0.3255
-0.3275
-0.3305
-0.3355
-0.341
-0.3505
-0.3485
-0.338
-0.342
-0.3425
-0.343
-0.3445
-0.337
-0.336
-0.342
-0.3375
-0.333
-0.341
-0.3455
-0.3405
-0.3295
-0.326
-0.329
-0.33
-0.3335
-0.333
-0.3335
-0.3375
-0.339
-0.342
-0.35
-0.3465
-0.334
-0.3375
-0.334
-0.3335
-0.3365
-0.3245
-0.32
-0.3285
-0.3295
-0.3245
-0.3285
-0.326
-0.337
-0.337
-0.328
-0.3325
-0.3265
-0.329
-0.332
-0.3385
-0.3425
-0.3385
-0.3355
-0.338
-0.338
-0.3335
-0.3355
-0.334
-0.332
-0.3305
-0.326
-0.3265
-0.332
-0.334
-0.3315
-0.331
-0.3325
-0.3325
-0.333
-0.3325
-0.3295
-0.323
-0.3155
-0.326
-0.3355
-0.3265
-0.3245
-0.3205
-0.3185
-0.3305
-0.334
-0.3325
-0.3395
-0.337
-0.331
-0.3315
-0.327
-0.328
-0.3355
-0.3395
-0.3345
-0.3325
-0.3265
-0.3185
-0.3175
-0.3185
-0.3175
-0.312
-0.322
-0.3265
-0.319
-0.3195
-0.322
-0.317
-0.3175
-0.3185
-0.325
-0.3495
-0.35
-0.3375
-0.335
-0.334
-0.326
-0.321
-0.3275
-0.3245
-0.3145
-0.3145
-0.3175
-0.319
-0.3275
-0.339
-0.342
-0.329
-0.3275
-0.3245
-0.3225
-0.3325
-0.333
-0.332
-0.329
-0.331
-0.3245
-0.326
-0.327
-0.328
-0.3375
-0.3265
-0.325
-0.3295
-0.3295
-0.3305
-0.334
-0.3325
-0.327
-0.331
-0.33
-0.329
-0.331
-0.3365
-0.343
-0.338
-0.3355
-0.3335
-0.328
-0.33
-0.33
-0.327
-0.3245
-0.323
-0.33
-0.3345
-0.3355
-0.332
-0.329
-0.3325
-0.3365
-0.342
-0.3425
-0.334
-0.328
-0.3285
-0.3245
-0.33
-0.3345
-0.3285
-0.3305
-0.328
-0.3275
-0.3325
-0.334
-0.334
-0.331
-0.3235
-0.326
-0.3375
-0.3395
-0.3435
-0.3445
-0.3375
-0.332
-0.3305
-0.328
-0.3245
-0.323
-0.322
-0.3235
-0.3255
-0.3255
-0.3315
-0.3305
-0.3305
-0.3305
-0.327
-0.332
-0.3285
-0.3285
-0.325
-0.3175
-0.3125
-0.302
-0.3005
-0.299
-0.2935
-0.293
-0.2935
-0.2815
-0.286
-0.2975
-0.2955
-0.3
-0.299
-0.303
-0.3005
-0.3015
-0.308
-0.308
-0.3035
-0.2995
-0.298
-0.289
-0.2815
-0.2725
-0.2775
-0.2805
-0.2805
-0.2885
-0.285
-0.2845
-0.288
-0.3
-0.297
-0.289
-0.2915
-0.2895
-0.293
-0.2985
-0.305
-0.303
-0.3005
-0.3055
-0.304
-0.303
-0.307
-0.3035
-0.298
-0.2955
-0.297
-0.307
-0.3115
-0.3125
-0.3165
-0.3235
-0.328
-0.327
-0.3285
-0.3395
-0.3485
-0.349
-0.3495
-0.3475
-0.34
-0.3365
-0.3385
-0.3375
-0.3395
-0.338
-0.33
-0.3275
-0.3255
-0.3315
-0.339
-0.339
-0.333
-0.3375
-0.3465
-0.344
-0.3455
-0.347
-0.3455
-0.3425
-0.3395
-0.3355
-0.3355
-0.343
-0.3425
-0.343
-0.3345
-0.3265
-0.336
-0.342
-0.346
-0.3435
-0.335
-0.3345
-0.332
-0.3305
-0.339
-0.3465
-0.3465
-0.3405
-0.347
-0.348
-0.349
-0.355
-0.35
-0.346
-0.345
-0.344
-0.3435
-0.348
-0.3575
-0.3625
-0.3565
-0.362
-0.3665
-0.361
-0.3675
-0.3785
-0.3765
-0.363
-0.352
-0.3425
-0.3365
-0.3215
-0.298
-0.281
-0.2715
-0.2495
-0.2285
-0.2085
-0.177
-0.1485
-0.1135
-0.0795
-0.0395
-0.009
0.0125
0.0365
0.0635
0.0925
0.101
0.106
0.0835
0.0455
0.019
-0.0075
-0.029
-0.055
-0.0895
-0.116
-0.147
-0.183
-0.179
-0.1855
-0.211
-0.228
-0.2505
-0.265
-0.2695
-0.2715
-0.2815
-0.2805
-0.2765
-0.2805
-0.281
-0.28
-0.283
-0.2845
-0.2835
-0.2795
-0.2805
-0.2955
-0.296
-0.2955
-0.2965
-0.2935
-0.2915
-0.2835
-0.279
-0.2755
-0.28
-0.2865
-0.2885
-0.288
-0.293
-0.3025
-0.3065
-0.306
-0.309
-0.3185
-0.3195
-0.3205
-0.314
-0.318
-0.3245
-0.32
-0.324
-0.327
-0.3285
-0.3245
-0.324
-0.318
-0.323
-0.322
-0.3125
-0.3225
-0.326
-0.326
-0.326
-0.3225
-0.323
-0.332
-0.334
-0.3335
-0.334
-0.331
-0.335
-0.337
-0.334
-0.326
-0.325
-0.3265
-0.3305
-0.332
-0.326
-0.3295
-0.331
-0.3305
-0.338
-0.339
-0.335
-0.3355
-0.335
-0.335
-0.3355
-0.3365
-0.339
-0.3395
-0.3375
-0.335
-0.3385
-0.336
-0.34
-0.336
-0.335
-0.3425
-0.3285
-0.3265
-0.3315
-0.338
-0.341
-0.3405
-0.337
-0.333
-0.335
-0.334
-0.334
-0.332
-0.3295
-0.323
-0.3265
-0.329
-0.3265
-0.324
-0.322
-0.3245
-0.321
-0.325
-0.332
-0.327
-0.3235
-0.32
-0.319
-0.3285
-0.3315
-0.3305
-0.337
-0.339
-0.3285
-0.3185
-0.3145
-0.314
-0.3185
-0.3155
-0.3125
-0.3185
-0.316
-0.3085
-0.3105
-0.3115
-0.3125
-0.315
-0.3155
-0.3175
-0.317
-0.3185
-0.319
-0.3225
-0.318
-0.3115
-0.312
-0.3085
-0.3105
-0.3125
-0.309
-0.307
-0.3005
-0.301
-0.305
-0.3045
-0.3095
-0.307
-0.306
-0.3105
-0.3135
-0.317
-0.3155
-0.3165
-0.306
-0.298
-0.299
-0.2955
-0.3
-0.2975
-0.2905
-0.2885
-0.286
-0.2855
-0.2875
-0.297
-0.3025
-0.3005
-0.2985
-0.296
-0.291
-0.2845
-0.284
-0.289
-0.2915
-0.294
-0.2915
-0.287
-0.2895
-0.287
-0.2845
-0.2775
-0.27
-0.266
-0.2635
-0.2685
-0.2795
-0.2855
-0.274
-0.273
-0.2775
-0.2735
-0.2755
-0.2785
-0.274
-0.2695
-0.2675
-0.2615
-0.2605
-0.258
-0.258
-0.263
-0.2605
-0.2485
-0.246
-0.247
-0.2455
-0.2605
-0.253
-0.2465
-0.254
-0.254
-0.2555
-0.2515
-0.2475
-0.2405
-0.2345
-0.2325
-0.2295
-0.2305
-0.233
-0.2325
-0.229
-0.221
-0.2205
-0.2245
-0.2255
-0.226
-0.2215
-0.215
-0.2165
-0.222
-0.2165
-0.2115
-0.2085
-0.207
-0.2035
-0.1935
-0.191
-0.19
-0.1905
-0.191
-0.186
-0.1845
-0.186
-0.188
-0.187
-0.183
-0.18
-0.1755
-0.1775
-0.1855
-0.186
-0.183
-0.1775
-0.174
-0.1735
-0.171
-0.1735
-0.1745
-0.1755
-0.174
-0.169
-0.171
-0.1705
-0.172
-0.176
-0.1715
-0.1665
-0.165
-0.166
-0.168
-0.1725
-0.1765
-0.169
-0.1615
-0.158
-0.1565
-0.1675
-0.1755
-0.174
-0.1755
-0.176
-0.1755
-0.183
-0.1895
-0.1895
-0.1895
-0.1905
-0.193
-0.1975
-0.205
-0.213
-0.222
-0.224
-0.2205
-0.2205
-0.2185
-0.218
-0.218
-0.2175
-0.2195
-0.2195
-0.2215
-0.229
-0.2365
-0.241
-0.2485
-0.2505
-0.25
-0.2505
-0.2555
-0.262
-0.261
-0.261
-0.261
-0.2635
-0.265
-0.264
-0.266
-0.2745
-0.281
-0.2755
-0.2715
-0.2795
-0.2835
-0.286
-0.2945
-0.2925
-0.294
-0.2955
-0.295
-0.2995
-0.3
-0.3015
-0.299
-0.297
-0.2985
-0.301
-0.302
-0.3065
-0.3095
-0.306
-0.305
-0.31
-0.315
-0.319
-0.315
-0.3105
-0.3155
-0.316
-0.315
-0.3155
-0.319
-0.318
-0.3125
-0.311
-0.3105
-0.315
-0.3155
-0.315
-0.318
-0.3185
-0.315
-0.31
-0.3105
-0.317
-0.32
-0.3145
-0.3185
-0.326
-0.323
-0.3255
-0.33
-0.3295
-0.3275
-0.323
-0.3185
-0.3205
-0.3225
-0.3205
-0.322
-0.324
-0.3275
-0.333
-0.334
-0.3355
-0.3345
-0.327
-0.3265
-0.3305
-0.334
-0.339
-0.346
-0.339
-0.33
-0.3275
-0.318
-0.3205
-0.324
-0.3255
-0.326
-0.3205
-0.318
-0.32
-0.3235
-0.3265
-0.3295
-0.325
-0.325
-0.3315
-0.3325
-0.3375
-0.3425
-0.3425
-0.339
-0.3305
-0.3305
-0.3325
-0.3325
-0.3345
-0.336
-0.3325
-0.328
-0.332
-0.3325
-0.3305
-0.3325
-0.3295
-0.329
-0.327
-0.3265
-0.3345
-0.339
-0.3365
-0.329
-0.3255
-0.3255
-0.328
-0.3315
-0.3325
-0.334
-0.338
-0.338
-0.338
-0.339
-0.3385
-0.338
-0.333
-0.335
-0.338
-0.3385
-0.339
-0.34
-0.3395
-0.3375
-0.339
-0.336
-0.336
-0.332
-0.326
-0.33
-0.3325
-0.3335
-0.338
-0.3385
-0.341
-0.3425
-0.335
-0.3355
-0.336
-0.335
-0.3385
-0.3385
-0.3355
-0.33
-0.325
-0.3295
-0.335
-0.3385
-0.344
-0.3405
-0.337
-0.3375
-0.3385
-0.339
-0.3385
-0.34
-0.3395
-0.342
-0.3445
-0.346
-0.348
-0.3475
-0.345
-0.3415
-0.3415
-0.339
-0.3385
-0.3455
-0.3505
-0.351
-0.3445
-0.331
-0.3295
-0.333
-0.335
-0.339
-0.339
-0.34
-0.3375
-0.3345
-0.336
-0.339
-0.341
-0.338
-0.335
-0.338
-0.3445
-0.347
-0.346
-0.341
-0.3335
-0.3355
-0.3355
-0.3335
-0.339
-0.3425
-0.348
-0.351
-0.349
-0.349
-0.347
-0.3505
-0.35
-0.3445
-0.3365
-0.3335
-0.336
-0.338
-0.3435
-0.3415
-0.342
-0.3425
-0.3475
-0.3535
-0.3555
-0.3545
-0.3485
-0.349
-0.3465
-0.3465
-0.3505
-0.355
-0.352
-0.348
-0.345
-0.3425
-0.3465
-0.346
-0.3475
-0.3445
-0.3435
-0.3455
-0.348
-0.351
-0.348
-0.349
-0.3515
-0.3535
-0.3525
-0.3515
-0.3505
-0.3505
-0.3555
-0.3555
-0.351
-0.3435
-0.342
-0.3445
-0.35
-0.3525
-0.349
-0.3435
-0.345
-0.3505
-0.35
-0.353
-0.3535
-0.3495
-0.3495
-0.352
-0.3545
-0.3575
-0.3515
-0.35
-0.3515
-0.3465
-0.3495
-0.347
-0.346
-0.344
-0.344
-0.346
-0.35
-0.353
-0.3485
-0.3505
-0.35
-0.35
-0.3505
-0.3495
-0.3515
-0.3485
-0.3425
-0.347
-0.351
-0.347
-0.3495
-0.3485
-0.3475
-0.342
-0.336
-0.3375
-0.3435
-0.3435
-0.343
-0.3525
-0.352
-0.3565
-0.3665
-0.369
-0.3645
-0.3615
-0.356
-0.342
-0.3395
-0.347
-0.3555
-0.352
-0.341
-0.3365
-0.33
-0.331
-0.3355
-0.338
-0.348
-0.35
-0.348
-0.348
-0.346
-0.347
-0.35
-0.3505
-0.3455
-0.342
-0.3465
-0.3455
-0.3465
-0.348
-0.3445
-0.343
-0.3395
-0.3355
-0.3355
-0.343
-0.3485
-0.3455
-0.342
-0.3415
-0.3425
-0.3425
-0.3425
-0.3435
-0.344
-0.34
-0.337
-0.3385
-0.344
-0.3495
-0.349
-0.3475
-0.3405
-0.334
-0.34
-0.346
-0.3455
-0.3495
-0.3445
-0.342
-0.348
-0.349
-0.3515
-0.351
-0.3485
-0.3485
-0.3465
-0.345
-0.345
-0.345
-0.35
-0.3505
-0.346
-0.3425
-0.347
-0.352
-0.354
-0.3585
-0.354
-0.3535
-0.348
-0.345
-0.356
-0.357
-0.351
-0.349
-0.351
-0.355
-0.3565
-0.352
-0.3475
-0.3445
-0.346
-0.3455
-0.3465
-0.348
-0.3455
-0.3505
-0.3515
-0.3485
-0.3425
-0.3425
-0.351
-0.355
-0.35
-0.3465
-0.3455
-0.346
-0.346
-0.343
-0.343
-0.3425
-0.345
-0.3445
-0.3485
-0.3535
-0.3545
-0.358
-0.355
-0.353
-0.351
-0.354
-0.357
-0.356
-0.351
-0.347
-0.343
-0.3505
-0.359
-0.3525
-0.3485
-0.346
-0.3425
-0.3375
-0.339
-0.3455
-0.3455
-0.343
-0.347
-0.351
-0.351
-0.3535
-0.354
-0.357
-0.355
-0.3485
-0.3425
-0.3395
-0.346
-0.3435
-0.3385
-0.3375
-0.3355
-0.337
-0.338
-0.3375
-0.338
-0.3375
-0.3385
-0.342
-0.3425
-0.345
-0.3495
-0.35
-0.3455
-0.34
-0.337
-0.339
-0.346
-0.3485
-0.3465
-0.344
-0.3415
-0.3395
-0.3435
-0.3435
-0.3425
-0.346
-0.3455
-0.3425
-0.344
-0.3495
-0.3535
-0.359
-0.3505
-0.3385
-0.3375
-0.336
-0.337
-0.339
-0.339
-0.3385
-0.3385
-0.337
-0.3435
-0.346
-0.345
-0.348
-0.3465
-0.3505
-0.348
-0.348
-0.3525
-0.351
-0.3455
-0.3395
-0.3395
-0.339
-0.345
-0.3445
-0.3405
-0.3425
-0.345
-0.3435
-0.345
-0.348
-0.3435
-0.3415
-0.342
-0.3435
-0.3445
-0.347
-0.35
-0.349
-0.3405
-0.3335
-0.331
-0.329
-0.3305
-0.331
-0.33
-0.3255
-0.318
-0.3095
-0.305
-0.305
-0.3045
-0.302
-0.3005
-0.3045
-0.3085
-0.311
-0.314
-0.3155
-0.313
-0.312
-0.3185
-0.319
-0.3145
-0.317
-0.316
-0.3085
-0.302
-0.301
-0.3015
-0.2965
-0.294
-0.296
-0.2975
-0.301
-0.3045
-0.3075
-0.3085
-0.306
-0.3
-0.294
-0.2895
-0.291
-0.296
-0.3005
-0.305
-0.3045
-0.308
-0.3115
-0.3125
-0.315
-0.3205
-0.3195
-0.312
-0.316
-0.3145
-0.317
-0.324
-0.327
-0.329
-0.3305
-0.332
-0.3345
-0.34
-0.339
-0.3445
-0.352
-0.3575
-0.358
-0.3585
-0.3655
-0.368
-0.3695
-0.3645
-0.3585
-0.353
-0.355
-0.3615
-0.367
-0.368
-0.3625
-0.357
-0.3515
-0.353
-0.356
-0.3585
-0.355
-0.349
-0.3525
-0.356
-0.3555
-0.359
-0.3595
-0.3545
-0.355
-0.3535
-0.355
-0.3585
-0.36
-0.36
-0.3635
-0.364
-0.364
-0.3705
-0.3695
-0.374
-0.3685
-0.3585
-0.36
-0.3605
-0.363
-0.3655
-0.3635
-0.3645
-0.37
-0.371
-0.375
-0.38
-0.3845
-0.383
-0.3855
-0.386
-0.3825
-0.386
-0.389
-0.3925
-0.395
-0.39
-0.3835
-0.3805
-0.369
-0.3595
-0.35
-0.3275
-0.3085
-0.294
-0.282
-0.271
-0.25
-0.2205
-0.182
-0.1345
-0.0985
-0.069
-0.0415
-0.009
0.027
0.0465
0.0755
0.087
0.0815
0.0665
0.0305
0.0015
-0.037
-0.069
-0.1045
-0.1405
-0.1505
-0.1645
-0.178
-0.185
-0.1985
-0.225
-0.2435
-0.2535
-0.2675
-0.271
-0.2675
-0.2655
-0.2585
-0.2465
-0.2435
-0.249
-0.2525
-0.263
-0.269
-0.2695
-0.27
-0.2655
-0.261
-0.258
-0.2645
-0.272
-0.2815
-0.289
-0.291
-0.3
-0.304
-0.311
-0.3175
-0.3275
-0.3355
-0.3355
-0.3395
-0.3435
-0.348
-0.3525
-0.359
-0.355
-0.349
-0.3465
-0.3455
-0.3495
-0.354
-0.358
-0.359
-0.361
-0.365
-0.3695
-0.367
-0.3685
-0.3675
-0.366
-0.367
-0.364
-0.371
-0.3725
-0.3685
-0.368
-0.364
-0.359
-0.357
-0.3665
-0.3785
-0.379
-0.374
-0.371
-0.366
-0.3705
-0.373
-0.3705
-0.365
-0.3595
-0.3625
-0.363
-0.3635
-0.3665
-0.3695
-0.366
-0.362
-0.358
-0.3575
-0.3625
-0.364
-0.3655
-0.357
-0.353
-0.356
-0.358
-0.3635
-0.368
-0.3695
-0.3655
-0.3675
-0.363
-0.357
-0.364
-0.372
-0.3715
-0.365
-0.3615
-0.3605
-0.365
-0.364
-0.365
-0.3665
-0.362
-0.3645
-0.3675
-0.37
-0.371
-0.364
-0.36
-0.3615
-0.3595
-0.3605
-0.3625
-0.3605
-0.3535
-0.351
-0.3545
-0.356
-0.3595
-0.3585
-0.354
-0.3475
-0.3445
-0.35
-0.356
-0.355
-0.352
-0.354
-0.3525
-0.352
-0.3565
-0.3595
-0.358
-0.3505
-0.3455
-0.3445
-0.339
-0.3415
-0.3475
-0.3475
-0.3485
-0.3415
-0.3415
-0.343
-0.3435
-0.342
-0.3445
-0.3465
-0.3435
-0.3515
-0.3565
-0.355
-0.3505
-0.3465
-0.3445
-0.34
-0.3395
-0.3425
-0.343
-0.341
-0.3385
-0.339
-0.3365
-0.3305
-0.3365
-0.3415
-0.3405
-0.333
-0.329
-0.335
-0.337
-0.346
-0.3485
-0.3495
-0.3435
-0.3335
-0.329
-0.33
-0.333
-0.3315
-0.3265
-0.32
-0.313
-0.3135
-0.325
-0.324
-0.3255
-0.3275
-0.3245
-0.326
-0.3225
-0.326
-0.3275
-0.324
-0.3225
-0.32
-0.317
-0.3135
-0.3115
-0.308
-0.303
-0.303
-0.3045
-0.306
-0.312
-0.3165
-0.3155
-0.314
-0.312
-0.305
-0.303
-0.3065
-0.306
-0.303
-0.297
-0.297
-0.2935
-0.293
-0.2945
-0.2905
-0.2905
-0.292
-0.292
-0.293
-0.299
-0.2975
-0.2955
-0.2945
-0.2925
-0.2915
-0.2895
-0.2905
-0.2915
-0.292
-0.29
-0.2915
-0.285
-0.274
-0.2665
-0.2565
-0.258
-0.2695
-0.265
-0.257
-0.264
-0.2645
-0.267
-0.2615
-0.259
-0.2655
-0.268
-0.267
-0.26
-0.2595
-0.2505
-0.2475
-0.2445
-0.241
-0.242
-0.24
-0.244
-0.239
-0.2355
-0.2375
-0.244
-0.247
-0.245
-0.239
-0.2345
-0.234
-0.228
-0.2265
-0.2275
-0.2265
-0.222
-0.2205
-0.2185
-0.2165
-0.2165
-0.2165
-0.218
-0.216
-0.216
-0.2205
-0.2265
-0.2315
-0.2335
-0.228
-0.226
-0.2295
-0.231
-0.2365
-0.2355
-0.234
-0.2325
-0.2305
-0.233
-0.234
-0.2335
-0.2395
-0.2425
-0.2355
-0.233
-0.238
-0.245
-0.249
-0.2565
-0.259
-0.2605
-0.2675
-0.2675
-0.273
-0.2815
-0.283
-0.276
-0.2745
-0.277
-0.2805
-0.281
-0.283
-0.29
-0.2895
-0.292
-0.296
-0.2995
-0.305
-0.308
-0.306
-0.3065
-0.31
-0.309
-0.3125
-0.3215
-0.326
-0.3235
-0.3215
-0.318
-0.3185
-0.321
-0.319
-0.321
-0.3225
-0.3185
-0.321
-0.3265
-0.3285
-0.336
-0.341
-0.339
-0.3375
-0.3355
-0.3365
-0.3395
-0.3395
-0.336
-0.3355
-0.336
-0.3405
-0.343
-0.345
-0.3485
-0.345
-0.3425
-0.342
-0.345
-0.3455
-0.3505
-0.351
-0.3455
-0.346
-0.3465
-0.351
-0.3445
-0.3445
-0.3445
-0.342
-0.3415
-0.3405
-0.3435
-0.34
-0.339
-0.337
-0.338
-0.3425
-0.3475
-0.3455
-0.3485
-0.351
-0.345
-0.348
-0.3475
-0.348
-0.351
-0.3525
-0.348
-0.3445
-0.3475
-0.3505
-0.3535
-0.3525
-0.35
-0.3425
-0.338
-0.347
-0.353
-0.349
-0.35
-0.344
-0.3405
-0.3485
-0.353
-0.351
-0.348
-0.349
-0.3495
-0.35
-0.346
-0.346
-0.3515
-0.354
-0.357
-0.352
-0.3445
-0.343
-0.345
-0.348
-0.3525
-0.354
-0.3525
-0.3525
-0.3535
-0.3575
-0.3615
-0.36
-0.3535
-0.344
-0.341
-0.347
-0.3455
-0.3425
-0.3455
-0.347
-0.3515
-0.355
-0.361
-0.364
-0.3615
-0.361
-0.36
-0.357
-0.356
-0.3595
-0.3595
-0.3585
-0.3555
-0.357
-0.3585
-0.363
-0.366
-0.359
-0.3545
-0.3535
-0.3535
-0.3545
-0.356
-0.361
-0.365
-0.364
-0.373
-0.376
-0.3675
-0.3685
-0.3745
-0.373
-0.368
-0.3655
-0.363
-0.3655
-0.367
-0.3675
-0.3675
-0.366
-0.366
-0.3635
-0.3675
-0.369
-0.3695
-0.374
-0.371
-0.369
-0.369
-0.3695
-0.37
-0.371
-0.371
-0.37
-0.366
-0.3595
-0.357
-0.3615
-0.363
-0.3575
-0.356
-0.36
-0.366
-0.3635
-0.364
-0.367
-0.364
-0.363
-0.3635
-0.3675
-0.3665
-0.3685
-0.3695
-0.361
-0.358
-0.352
-0.349
-0.3565
-0.355
-0.349
-0.3465
-0.3515
-0.353
-0.356
-0.3605
-0.353
-0.3505
-0.3585
-0.3625
-0.3655
-0.3665
-0.363
-0.3625
-0.3605
-0.3545
-0.3595
-0.364
-0.363
-0.3645
-0.359
-0.35
-0.35
-0.358
-0.36
-0.36
-0.3595
-0.3565
-0.36
-0.3675
-0.373
-0.373
-0.369
-0.3665
-0.367
-0.3665
-0.3605
-0.353
-0.3545
-0.356
-0.3525
-0.353
-0.3525
-0.3605
-0.3645
-0.36
-0.359
-0.36
-0.3615
-0.362
-0.3625
-0.363
-0.362
-0.358
-0.364
-0.3625
-0.3545
-0.352
-0.354
-0.3565
-0.3545
-0.359
-0.362
-0.365
-0.365
-0.362
-0.361
-0.3585
-0.3605
-0.3655
-0.367
-0.3665
-0.365
-0.361
-0.357
-0.351
-0.348
-0.346
-0.3475
-0.3495
-0.3475
-0.3455
-0.35
-0.361
-0.362
-0.3585
-0.357
-0.362
-0.364
-0.367
-0.3675
-0.363
-0.363
-0.356
-0.3525
-0.3485
-0.351
-0.3515
-0.3475
-0.3485
-0.3465
-0.3525
-0.353
-0.3555
-0.3605
-0.359
-0.3585
-0.3575
-0.36
-0.366
-0.3675
-0.3635
-0.362
-0.3615
-0.3525
-0.346
-0.3525
-0.357
-0.36
-0.3585
-0.3525
-0.35
-0.3495
-0.3565
-0.363
-0.3645
-0.3615
-0.3615
-0.361
-0.3605
-0.3685
-0.3705
-0.3695
-0.3705
-0.368
-0.3625
-0.358
-0.3555
-0.3545
-0.352
-0.348
-0.3415
-0.3435
-0.351
-0.356
-0.3615
-0.362
-0.363
-0.36
-0.3635
-0.3705
-0.362
-0.355
-0.356
-0.3545
-0.346
-0.348
-0.3535
-0.3545
-0.356
-0.353
-0.35
-0.3525
-0.361
-0.3665
-0.3695
-0.365
-0.3605
-0.364
-0.36
-0.363
-0.369
-0.366
-0.3625
-0.356
-0.354
-0.356
-0.356
-0.3595
-0.362
-0.3635
-0.361
-0.3555
-0.361
-0.366
-0.3655
-0.3655
-0.362
-0.3585
-0.3585
-0.368
-0.371
-0.3645
-0.359
-0.354
-0.353
-0.357
-0.355
-0.353
-0.3535
-0.3485
-0.349
-0.351
-0.3535
-0.3585
-0.369
-0.366
-0.3595
-0.357
-0.352
-0.3615
-0.3665
-0.3615
-0.3575
-0.356
-0.352
-0.353
-0.352
-0.349
-0.355
-0.351
-0.3505
-0.356
-0.3565
-0.3595
-0.3705
-0.3735
-0.367
-0.3655
-0.363
-0.366
-0.369
-0.3645
-0.3575
-0.353
-0.3525
-0.357
-0.36
-0.3575
-0.3555
-0.3525
-0.35
-0.349
-0.357
-0.3605
-0.3605
-0.3585
-0.3605
-0.37
-0.368
-0.368
-0.3675
-0.3665
-0.365
-0.364
-0.3615
-0.3585
-0.36
-0.3595
-0.357
-0.3545
-0.3535
-0.353
-0.357
-0.3625
-0.367
-0.362
-0.357
-0.3545
-0.355
-0.36
-0.362
-0.3645
-0.363
-0.36
-0.3515
-0.352
-0.3555
-0.355
-0.359
-0.3595
-0.357
-0.3575
-0.365
-0.3665
-0.367
-0.3645
-0.361
-0.362
-0.365
-0.3665
-0.3645
-0.366
-0.363
-0.36
-0.36
-0.3645
-0.362
-0.3605
-0.359
-0.353
-0.362
-0.366
-0.3675
-0.3665
-0.3695
-0.369
-0.3655
-0.367
-0.365
-0.366
-0.365
-0.3655
-0.3635
-0.3575
-0.356
-0.3595
-0.3575
-0.359
-0.3595
-0.3575
-0.3585
-0.3615
-0.3675
-0.365
-0.3635
-0.3605
-0.3615
-0.363
-0.365
-0.366
-0.367
-0.37
-0.3665
-0.3585
-0.3485
-0.3535
-0.3615
-0.365
-0.36
-0.353
-0.356
-0.356
-0.354
-0.353
-0.3465
-0.341
-0.34
-0.333
-0.3305
-0.336
-0.333
-0.33
-0.3365
-0.3345
-0.3235
-0.326
-0.3295
-0.331
-0.3295
-0.3185
-0.316
-0.3195
-0.3255
-0.331
-0.336
-0.332
-0.324
-0.326
-0.321
-0.315
-0.3085
-0.2985
-0.3
-0.2945
-0.288
-0.2965
-0.3015
-0.3045
-0.304
-0.3015
-0.2995
-0.295
-0.295
-0.3015
-0.308
-0.3085
-0.3105
-0.3165
-0.3155
-0.318
-0.323
-0.3235
-0.325
-0.3205
-0.316
-0.3195
-0.3225
-0.321
-0.3205
-0.3245
-0.329
-0.3325
-0.338
-0.343
-0.351
-0.3555
-0.3565
-0.357
-0.3625
-0.3685
-0.368
-0.3655
-0.3615
-0.3585
-0.352
-0.3565
-0.3575
-0.352
-0.353
-0.35
-0.3515
-0.355
-0.3595
-0.3605
-0.3615
-0.3605
-0.3595
-0.3595
-0.362
-0.3675
-0.3645
-0.355
-0.3525
-0.3605
-0.36
-0.357
-0.358
-0.363
-0.3635
-0.352
-0.345
-0.3435
-0.352
-0.362
-0.358
-0.3585
-0.3645
-0.368
-0.371
-0.3765
-0.3785
-0.371
-0.369
-0.371
-0.37
-0.374
-0.373
-0.375
-0.3825
-0.381
-0.379
-0.3805
-0.3855
-0.3895
-0.396
-0.395
-0.3945
-0.405
-0.4055
-0.402
-0.4005
-0.3935
-0.378
-0.364
-0.348
-0.3265
-0.3095
-0.293
-0.272
-0.2485
-0.2165
-0.1845
-0.152
-0.1175
-0.0865
-0.0495
-0.018
0.019
0.0515
0.0685
0.0775
0.0785
0.076
0.048
0.013
-0.019
-0.0565
-0.085
-0.116
-0.135
-0.145
-0.1705
-0.1885
-0.2055
-0.2305
-0.242
-0.249
-0.263
-0.2725
-0.2755
-0.276
-0.2705
-0.2615
-0.2535
-0.2585
-0.268
-0.2705
-0.275
-0.28
-0.282
-0.2775
-0.2765
-0.2795
-0.2865
-0.292
-0.292
-0.297
-0.299
-0.3035
-0.31
-0.315
-0.3175
-0.322
-0.325
-0.3245
-0.3315
-0.338
-0.342
-0.341
-0.338
-0.336
-0.342
-0.346
-0.346
-0.349
-0.347
-0.351
-0.351
-0.3505
-0.358
-0.363
-0.365
-0.362
-0.3625
-0.364
-0.3665
-0.3645
-0.3605
-0.3605
-0.3585
-0.3565
-0.359
-0.368
-0.369
-0.3655
-0.361
-0.3605
-0.3625
-0.3635
-0.3665
-0.367
-0.364
-0.3585
-0.356
-0.356
-0.3625
-0.367
-0.3645
-0.36
-0.356
-0.351
-0.3525
-0.359
-0.363
-0.3645
-0.363
-0.3655
-0.3635
-0.3635
-0.3665
-0.3695
-0.365
-0.355
-0.3545
-0.3525
-0.3615
-0.366
-0.3655
-0.3705
-0.367
-0.3635
-0.363
-0.3615
-0.357
-0.356
-0.356
-0.3575
-0.363
-0.3645
-0.365
-0.3685
-0.368
-0.3665
-0.3665
-0.364
-0.363
-0.364
-0.3615
-0.3545
-0.3555
-0.361
-0.364
-0.361
-0.36
-0.365
-0.363
-0.359
-0.359
-0.365
-0.371
-0.3695
-0.366
-0.36
-0.357
-0.3595
-0.36
-0.362
-0.357
-0.352
-0.3535
-0.352
-0.3585
-0.365
-0.363
-0.3635
-0.361
-0.36
-0.36
-0.356
-0.356
-0.356
-0.352
-0.3555
-0.3615
-0.353
-0.349
-0.356
-0.3595
-0.356
-0.357
-0.355
-0.3495
-0.349
-0.35
-0.352
-0.3505
-0.3545
-0.3525
-0.35
-0.3535
-0.3535
-0.3535
-0.348
-0.347
-0.347
-0.346
-0.345
-0.345
-0.348
-0.3465
-0.346
-0.3465
-0.347
-0.352
-0.351
-0.343
-0.347
-0.353
-0.3535
-0.3505
-0.345
-0.34
-0.336
-0.336
-0.3345
-0.334
-0.3405
-0.3455
-0.337
-0.332
-0.3325
-0.3325
-0.332
-0.333
-0.337
-0.3315
-0.328
-0.325
-0.3225
-0.322
-0.3255
-0.324
-0.3145
-0.31
-0.3015
-0.3025
-0.308
-0.3105
-0.31
-0.3105
-0.3095
-0.306
-0.307
-0.3055
-0.3065
-0.3035
-0.304
-0.3055
-0.3055
-0.31
-0.3145
-0.3085
-0.291
-0.289
-0.287
-0.287
-0.2885
-0.282
-0.279
-0.2765
-0.2795
-0.2775
-0.2735
-0.2765
-0.279
-0.279
-0.276
-0.273
-0.268
-0.2675
-0.268
-0.263
-0.2645
-0.2615
-0.259
-0.2605
-0.2535
-0.2535
-0.251
-0.2465
-0.249
-0.2525
-0.258
-0.2605
-0.2605
-0.254
-0.2505
-0.2475
-0.2445
-0.248
-0.253
-0.253
-0.245
-0.24
-0.239
-0.241
-0.238
-0.2385
-0.2405
-0.2325
-0.224
-0.2265
-0.2345
-0.2335
-0.235
-0.2325
-0.2305
-0.2305
-0.232
-0.2355
-0.237
-0.2345
-0.2275
-0.228
-0.225
-0.2275
-0.23
-0.2275
-0.234
-0.2375
-0.2365
-0.241
-0.251
-0.2545
-0.254
-0.251
-0.2525
-0.257
-0.2575
-0.2585
-0.2635
-0.264
-0.2605
-0.261
-0.2615
-0.2675
-0.274
-0.2765
-0.2815
-0.285
-0.286
-0.291
-0.2955
-0.2975
-0.3025
-0.3035
-0.302
-0.307
-0.307
-0.304
-0.3085
-0.3105
-0.31
-0.308
-0.3055
-0.311
-0.314
-0.312
-0.319
-0.325
-0.3185
-0.318
-0.326
-0.3325
-0.339
-0.3425
-0.338
-0.33
-0.333
-0.342
-0.3445
-0.337
-0.333
-0.335
-0.335
-0.3345
-0.3305
-0.33
-0.3315
-0.3335
-0.3345
-0.3395
-0.348
-0.351
-0.3525
-0.3515
-0.35
-0.3515
-0.359
-0.3635
-0.36
-0.3505
-0.351
-0.351
-0.347
-0.3525
-0.3535
-0.3545
-0.3515
-0.3555
-0.36
-0.3565
-0.352
-0.3545
-0.3625
-0.3575
-0.3555
-0.3575
-0.361
-0.364
-0.362
-0.3605
-0.3605
-0.3565
-0.35
-0.349
-0.3525
-0.355
-0.351
-0.3525
-0.356
-0.357
-0.3615
-0.36
-0.3605
-0.3585
-0.354
-0.353
-0.362
-0.367
-0.3655
-0.364
-0.3605
-0.3605
-0.359
-0.3625
-0.3625
-0.3665
-0.366
-0.3595
-0.3595
-0.362
-0.3685
-0.3685
-0.367
-0.364
-0.363
-0.3635
-0.367
-0.3715
-0.3735
-0.3705
-0.3675
-0.3645
-0.364
-0.3685
-0.359
-0.3555
-0.3585
-0.356
-0.358
-0.361
-0.362
-0.365
-0.367
-0.3625
-0.3595
-0.3605
-0.365
-0.3695
-0.369
-0.363
-0.36
-0.362
-0.357
-0.352
-0.359
-0.3675
-0.368
-0.361
-0.3645
-0.371
-0.369
-0.3705
-0.3705
-0.364
-0.3605
-0.3625
-0.3635
-0.3625
-0.3675
-0.3705
-0.3715
-0.368
-0.3625
-0.369
-0.3725
-0.3715
-0.368
-0.3685
-0.369
-0.3695
-0.3735
-0.3735
-0.378
-0.378
-0.3765
-0.3735
-0.3725
-0.3745
-0.3735
-0.3705
-0.3675
-0.3655
-0.362
-0.365
-0.3625
-0.363
-0.3645
-0.3615
-0.3645
-0.372
-0.375
-0.373
-0.3755
-0.374
-0.375
-0.372
-0.372
-0.3735
-0.371
-0.373
-0.37
-0.367
-0.3705
-0.374
-0.3715
-0.3695
-0.368
-0.3665
-0.3645
-0.374
-0.382
-0.3755
-0.3705
-0.362
-0.3605
-0.363
-0.3665
-0.37
-0.37
-0.3665
-0.361
-0.361
-0.3595
-0.36
-0.3595
-0.358
-0.3565
-0.355
-0.361
-0.3695
-0.378
-0.3775
-0.375
-0.3735
-0.373
-0.373
-0.3705
-0.371
-0.3695
-0.365
-0.3625
-0.365
-0.3625
-0.3635
-0.3665
-0.371
-0.3775
-0.3745
-0.3705
-0.369
-0.372
-0.3755
-0.3765
-0.371
-0.3635
-0.3595
-0.361
-0.363
-0.3615
-0.3565
-0.354
-0.3565
-0.353
-0.353
-0.357
-0.359
-0.36
-0.357
-0.358
-0.359
-0.362
-0.3665
-0.3635
-0.3645
-0.37
-0.3705
-0.369
-0.3725
-0.3745
-0.3735
-0.3725
-0.369
-0.3665
-0.3695
-0.3705
-0.3695
-0.367
-0.361
-0.3605
-0.3635
-0.366
-0.3705
-0.3685
-0.361
-0.3635
-0.368
-0.369
-0.369
-0.367
-0.365
-0.3605
-0.36
-0.3575
-0.3585
-0.3665
-0.37
-0.367
-0.3635
-0.3635
-0.3635
-0.3655
-0.373
-0.3705
-0.365
-0.362
-0.3565
-0.3565
-0.356
-0.356
-0.356
-0.3565
-0.359
-0.3615
-0.364
-0.36
-0.36
-0.36
-0.354
-0.358
-0.364
-0.3605
-0.3615
-0.3645
-0.363
-0.3645
-0.3625
-0.3635
-0.3655
-0.367
-0.3625
-0.3585
-0.3625
-0.365
-0.3685
-0.3645
-0.363
-0.3615
-0.36
-0.361
-0.3605
-0.357
-0.36
-0.3655
-0.3595
-0.3595
-0.363
-0.3625
-0.367
-0.373
-0.369
-0.3635
-0.361
-0.359
-0.362
-0.364
-0.362
-0.361
-0.3615
-0.359
-0.3615
-0.366
-0.367
-0.3665
-0.36
-0.362
-0.362
-0.3585
-0.3575
-0.3545
-0.3515
-0.3495
-0.352
-0.3565
-0.365
-0.359
-0.352
-0.3505
-0.349
-0.3515
-0.354
-0.3585
-0.3635
-0.3695
-0.3635
-0.364
-0.37
-0.367
-0.3665
-0.3615
-0.3535
-0.3525
-0.3555
-0.36
-0.363
-0.365
-0.366
-0.359
-0.3585
-0.3585
-0.36
-0.369
-0.365
-0.369
-0.3695
-0.363
-0.3635
-0.3625
-0.363
-0.3595
-0.3525
-0.35
-0.351
-0.352
-0.3555
-0.356
-0.358
-0.361
-0.3635
-0.3615
-0.362
-0.3665
-0.3635
-0.3635
-0.36
-0.357
-0.358
-0.3595
-0.3605
-0.364
-0.362
-0.357
-0.358
-0.355
-0.3575
-0.3595
-0.3605
-0.3595
-0.3575
-0.3565
-0.356
-0.3625
-0.358
-0.361
-0.3665
-0.359
-0.3555
-0.356
-0.361
-0.365
-0.3695
-0.367
-0.362
-0.3605
-0.355
-0.354
-0.3555
-0.3555
-0.355
-0.3535
-0.3575
-0.3595
-0.3645
-0.3695
-0.361
-0.3565
-0.3565
-0.36
-0.3605
-0.357
-0.356
-0.3565
-0.3525
-0.3505
-0.355
-0.3565
-0.356
-0.353
-0.346
-0.3395
-0.346
-0.353
-0.353
-0.353
-0.35
-0.3475
-0.3435
-0.3515
-0.362
-0.3655
-0.3705
-0.368
-0.3635
-0.362
-0.364
-0.364
-0.3595
-0.3565
-0.3565
-0.3555
-0.3555
-0.357
-0.3625
-0.3625
-0.364
-0.372
-0.363
-0.361
-0.3715
-0.3695
-0.3615
-0.3565
-0.3545
-0.355
-0.359
-0.361
-0.359
-0.3535
-0.351
-0.3545
-0.3565
-0.358
-0.36
-0.361
-0.3605
-0.3615
-0.3635
-0.3625
-0.3645
-0.367
-0.366
-0.3685
-0.3645
-0.3595
-0.3585
-0.3515
-0.3505
-0.349
-0.344
-0.343
-0.343
-0.3475
-0.349
-0.348
-0.349
-0.3515
-0.3505
-0.3445
-0.34
-0.3385
-0.3335
-0.329
-0.3245
-0.3205
-0.3235
-0.3255
-0.326
-0.3235
-0.319
-0.318
-0.319
-0.32
-0.327
-0.3355
-0.3345
-0.337
-0.3345
-0.329
-0.326
-0.3195
-0.313
-0.3035
-0.301
-0.303
-0.311
-0.3175
-0.319
-0.319
-0.3155
-0.315
-0.315
-0.315
-0.3155
-0.3145
-0.3145
-0.319
-0.326
-0.329
-0.329
-0.336
-0.335
-0.332
-0.3305
-0.326
-0.3265
-0.3235
-0.325
-0.331
-0.3405
-0.3505
-0.3575
-0.362
-0.3625
-0.37
-0.3695
-0.3655
-0.371
-0.3785
-0.38
-0.375
-0.369
-0.3665
-0.367
-0.362
-0.362
-0.362
-0.365
-0.3695
-0.3665
-0.3655
-0.3675
-0.37
-0.3725
-0.3695
-0.3575
-0.3545
-0.36
-0.368
-0.377
-0.381
-0.3735
-0.3705
-0.376
-0.3715
-0.3715
-0.3745
-0.375
-0.3735
-0.3715
-0.3675
-0.371
-0.377
-0.3765
-0.38
-0.3775
-0.374
-0.3775
-0.3825
-0.383
-0.3825
-0.3785
-0.3775
-0.379
-0.3785
-0.3795
-0.3765
-0.3805
-0.3815
-0.3775
-0.381
-0.39
-0.394
-0.3965
-0.402
-0.4025
-0.4055
-0.4125
-0.42
-0.413
-0.4
-0.391
-0.3805
-0.3655
-0.355
-0.3455
-0.323
-0.3085
-0.2935
-0.2735
-0.2525
-0.234
-0.195
-0.142
-0.107
-0.0745
-0.0505
-0.0165
0.021
0.0455
0.07
0.085
0.088
0.074
0.0425
0.0025
-0.035
-0.067
-0.1015
-0.1295
-0.145
-0.167
-0.19
-0.1995
-0.2145
-0.2355
-0.252
-0.261
-0.2745
-0.281
-0.2755
-0.273
-0.2675
-0.2605
-0.262
-0.274
-0.2815
-0.2845
-0.285
-0.2845
-0.2825
-0.282
-0.2845
-0.2865
-0.284
-0.2785
-0.2835
-0.292
-0.3015
-0.3165
-0.325
-0.326
-0.329
-0.328
-0.328
-0.3355
-0.341
-0.3445
-0.3475
-0.3465
-0.347
-0.352
-0.353
-0.357
-0.364
-0.36
-0.3555
-0.3575
-0.3595
-0.368
-0.3725
-0.3655
-0.3615
-0.358
-0.358
-0.3615
-0.362
-0.3625
-0.363
-0.361
-0.3605
-0.364
-0.3635
-0.3675
-0.369
-0.367
-0.366
-0.3635
-0.369
-0.371
-0.3715
-0.366
-0.36
-0.362
-0.3635
-0.3665
-0.367
-0.366
-0.366
-0.3615
-0.361
-0.365
-0.3605
-0.3635
-0.37
-0.371
-0.376
-0.375
-0.367
-0.3665
-0.372
-0.3685
-0.365
-0.3615
-0.3625
-0.363
-0.3595
-0.3615
-0.3595
-0.358
-0.3525
-0.355
-0.365
-0.3685
-0.364
-0.3595
-0.3625
-0.3645
-0.368
-0.3675
-0.368
-0.366
-0.361
-0.3625
-0.3645
-0.37
-0.3695
-0.364
-0.3615
-0.361
-0.3575
-0.3585
-0.3645
-0.369
-0.364
-0.3565
-0.3585
-0.357
-0.36
-0.364
-0.3675
-0.3645
-0.354
-0.351
-0.35
-0.357
-0.36
-0.3605
-0.3615
-0.3565
-0.353
-0.3535
-0.3575
-0.361
-0.358
-0.3515
-0.353
-0.351
-0.353
-0.358
-0.36
-0.3635
-0.361
-0.3575
-0.355
-0.3575
-0.355
-0.3495
-0.3485
-0.347
-0.348
-0.3505
-0.353
-0.352
-0.3515
-0.3545
-0.3595
-0.3585
-0.356
-0.358
-0.3605
-0.3585
-0.351
-0.347
-0.347
-0.3495
-0.3465
-0.3455
-0.345
-0.3455
-0.3455
-0.3425
-0.351
-0.3515
-0.3495
-0.3535
-0.3475
-0.343
-0.343
-0.3425
-0.339
-0.336
-0.336
-0.329
-0.3285
-0.333
-0.333
-0.336
-0.3315
-0.3265
-0.322
-0.3225
-0.323
-0.3205
-0.322
-0.317
-0.316
-0.3185
-0.321
-0.322
-0.321
-0.317
-0.317
-0.312
-0.3075
-0.307
-0.3005
-0.3055
-0.309
-0.3085
-0.3035
-0.2975
-0.2975
-0.301
-0.303
-0.2965
-0.295
-0.2965
-0.297
-0.2975
-0.2985
-0.294
-0.2915
-0.2855
-0.28
-0.283
-0.2805
-0.2785
-0.277
-0.275
-0.2695
-0.2655
-0.2665
-0.271
-0.272
-0.267
-0.268
-0.2645
-0.2615
-0.2605
-0.262
-0.268
-0.2695
-0.263
-0.2565
-0.2545
-0.256
-0.258
-0.255
-0.2505
-0.248
-0.251
-0.25
-0.239
-0.2385
-0.2455
-0.248
-0.2455
-0.2425
-0.237
-0.232
-0.23
-0.231
-0.2325
-0.2305
-0.237
-0.242
-0.241
-0.2365
-0.2255
-0.225
-0.2285
-0.225
-0.229
-0.2275
-0.2195
-0.221
-0.2205
-0.224
-0.227
-0.227
-0.2225
-0.219
-0.221
-0.2175
-0.2205
-0.225
-0.2305
-0.2295
-0.228
-0.2295
-0.2315
-0.236
-0.2405
-0.2435
-0.2405
-0.2475
-0.25
-0.2475
-0.252
-0.2565
-0.2565
-0.2555
-0.2595
-0.2605
-0.2615
-0.2625
-0.2625
-0.264
-0.266
-0.268
-0.271
-0.2755
-0.2785
-0.28
-0.2765
-0.2775
-0.2805
-0.285
-0.2965
-0.3025
-0.297
-0.2835
-0.2875
-0.3005
-0.307
-0.311
-0.315
-0.3155
-0.313
-0.3165
-0.3215
-0.3255
-0.327
-0.3285
-0.331
-0.333
-0.334
-0.336
-0.342
-0.3455
-0.3385
-0.3295
-0.33
-0.338
-0.347
-0.3475
-0.344
-0.34
-0.335
-0.3365
-0.343
-0.3505
-0.3535
-0.353
-0.3525
-0.3525
-0.3505
-0.35
-0.3505
-0.347
-0.346
-0.3445
-0.3435
-0.345
-0.349
-0.3525
-0.3535
-0.351
-0.3495
-0.3485
-0.3515
-0.3555
-0.3615
-0.3635
-0.358
-0.3555
-0.353
-0.355
-0.3565
-0.3565
-0.3595
-0.3635
-0.3595
-0.3615
-0.365
-0.358
-0.3595
-0.3565
-0.3505
-0.351
-0.3545
-0.361
-0.3635
-0.3605
-0.3585
-0.358
-0.3595
-0.363
-0.3645
-0.3665
-0.3655
-0.364
-0.362
-0.3595
-0.3595
-0.3595
-0.358
-0.3555
-0.3595
-0.36
-0.3635
-0.3695
-0.3755
-0.3785
-0.3735
-0.374
-0.3735
-0.374
-0.374
-0.367
-0.3675
-0.371
-0.3665
-0.371
-0.3745
-0.3705
-0.372
-0.3655
-0.3635
-0.367
-0.3675
-0.3745
-0.383
-0.3805
-0.373
-0.372
-0.375
-0.376
-0.372
-0.372
-0.3725
-0.369
-0.3635
-0.359
-0.3615
-0.366
-0.37
-0.364
-0.3585
-0.359
-0.3655
-0.37
-0.37
-0.37
-0.3695
-0.376
-0.374
-0.369
-0.375
-0.376
-0.3705
-0.3675
-0.364
-0.3645
-0.3735
-0.3765
-0.373
-0.368
-0.363
-0.361
-0.3715
-0.381
-0.3765
-0.374
-0.3725
-0.3695
-0.369
-0.3725
-0.372
-0.368
-0.368
-0.3725
-0.377
-0.379
-0.3795
-0.382
-0.382
-0.378
-0.3725
-0.369
-0.37
-0.3705
-0.3735
-0.376
-0.3705
-0.37
-0.372
-0.369
-0.372
-0.373
-0.3675
-0.368
-0.369
-0.368
-0.3715
-0.375
-0.372
-0.366
-0.3595
-0.3575
-0.365
-0.366
-0.371
-0.377
-0.3765
-0.377
-0.3765
-0.379
-0.3795
-0.3765
-0.367
-0.3605
-0.3575
-0.357
-0.3585
-0.3625
-0.362
-0.355
-0.3565
-0.3565
-0.3635
-0.368
-0.3705
-0.369
-0.359
-0.3565
-0.356
-0.3575
-0.3635
-0.3665
-0.362
-0.3575
-0.354
-0.3505
-0.349
-0.354
-0.355
-0.3515
-0.351
-0.349
-0.3495
-0.3525
-0.356
-0.3545
-0.353
-0.3585
-0.3595
-0.3605
-0.3645
-0.363
-0.354
-0.35
-0.346
-0.3425
-0.351
-0.3575
-0.362
-0.3595
-0.355
-0.3535
-0.3575
-0.3625
-0.3635
-0.363
-0.3575
-0.357
-0.358
-0.367
-0.3735
-0.3705
-0.3695
-0.366
-0.3685
-0.3695
-0.3705
-0.372
-0.3655
-0.3625
-0.3655
-0.3645
-0.364
-0.3665
-0.3715
-0.3715
-0.364
-0.363
-0.363
-0.365
-0.371
-0.3725
-0.363
-0.357
-0.3595
-0.363
-0.3675
-0.36
-0.3555
-0.356
-0.353
-0.357
-0.364
-0.3665
-0.368
-0.3655
-0.3625
-0.366
-0.3655
-0.368
-0.3725
-0.37
-0.364
-0.3635
-0.3645
-0.3625
-0.3645
-0.3625
-0.361
-0.3605
-0.358
-0.358
-0.3635
-0.3675
-0.369
-0.3675
-0.3645
-0.36
-0.358
-0.36
-0.36
-0.364
-0.3605
-0.3535
-0.3505
-0.349
-0.355
-0.3545
-0.3535
-0.3625
-0.3635
-0.3635
-0.3665
-0.3665
-0.3665
-0.3605
-0.3625
-0.3665
-0.3665
-0.3665
-0.3675
-0.372
-0.366
-0.36
-0.3565
-0.3555
-0.3545
-0.3525
-0.3565
-0.3645
-0.3655
-0.3665
-0.371
-0.367
-0.3685
-0.368
-0.3625
-0.363
-0.364
-0.3665
-0.3685
-0.3705
-0.368
-0.3655
-0.3605
-0.3595
-0.363
-0.361
-0.364
-0.368
-0.3655
-0.361
-0.3635
-0.368
-0.369
-0.366
-0.3645
-0.3705
-0.376
-0.375
-0.374
-0.3695
-0.3585
-0.3575
-0.354
-0.3555
-0.3625
-0.359
-0.3605
-0.3605
-0.361
-0.3565
-0.359
-0.3635
-0.3595
-0.36
-0.361
-0.3635
-0.3685
-0.3755
-0.377
-0.376
-0.373
-0.3705
-0.3665
-0.363
-0.363
-0.3665
-0.3675
-0.3605
-0.355
-0.3545
-0.362
-0.3655
-0.3725
-0.3705
-0.363
-0.3685
-0.367
-0.3665
-0.3645
-0.361
-0.362
-0.362
-0.358
-0.3575
-0.364
-0.3625
-0.36
-0.3585
-0.3595
-0.3605
-0.36
-0.362
-0.361
-0.361
-0.361
-0.3615
-0.361
-0.3605
-0.3655
-0.367
-0.3605
-0.3555
-0.3545
-0.358
-0.3585
-0.3565
-0.357
-0.354
-0.354
-0.3555
-0.356
-0.358
-0.3605
-0.362
-0.364
-0.366
-0.367
-0.364
-0.3665
-0.37
-0.367
-0.3615
-0.355
-0.3645
-0.374
-0.3715
-0.3665
-0.357
-0.3515
-0.3585
-0.366
-0.366
-0.367
-0.368
-0.363
-0.363
-0.367
-0.367
-0.366
-0.3615
-0.3595
-0.36
-0.353
-0.3515
-0.352
-0.351
-0.358
-0.36
-0.3625
-0.366
-0.369
-0.3645
-0.3635
-0.3685
-0.3645
-0.363
-0.364
-0.362
-0.3615
-0.363
-0.3605
-0.365
-0.366
-0.363
-0.363
-0.3625
-0.3675
-0.365
-0.3615
-0.36
-0.3565
-0.358
-0.3625
-0.362
-0.3585
-0.36
-0.361
-0.3595
-0.36
-0.359
-0.351
-0.3485
-0.3485
-0.346
-0.3475
-0.348
-0.35
-0.344
-0.3305
-0.3275
-0.335
-0.3315
-0.329
-0.3285
-0.3255
-0.3245
-0.319
-0.324
-0.3305
-0.3295
-0.3255
-0.3235
-0.32
-0.318
-0.3175
-0.318
-0.318
-0.3135
-0.312
-0.3085
-0.3095
-0.3095
-0.3045
-0.302
-0.302
-0.308
-0.312
-0.3095
-0.312
-0.317
-0.3155
-0.312
-0.308
-0.3095
-0.312
-0.309
-0.3105
-0.305
-0.3085
-0.3165
-0.324
-0.3295
-0.3265
-0.3285
-0.3255
-0.3245
-0.325
-0.3265
-0.3315
-0.3355
-0.3385
-0.3445
-0.343
-0.3385
-0.347
-0.3555
-0.3625
-0.361
-0.356
-0.356
-0.361
-0.3665
-0.3685
-0.3665
-0.362
-0.366
-0.3685
-0.367
-0.3715
-0.372
-0.367
-0.366
-0.3655
-0.367
-0.368
-0.366
-0.364
-0.36
-0.359
-0.361
-0.3655
-0.3715
-0.3715
-0.369
-0.3695
-0.37
-0.37
-0.373
-0.3725
-0.3725
-0.3715
-0.3715
-0.371
-0.373
-0.3765
-0.365
-0.3635
-0.367
-0.363
-0.366
-0.368
-0.372
-0.3765
-0.373
-0.3695
-0.3715
-0.376
-0.3785
-0.3805
-0.3805
-0.382
-0.3835
-0.383
-0.382
-0.381
-0.387
-0.3935
-0.399
-0.4005
-0.398
-0.4
-0.3995
-0.392
-0.3805
-0.3695
-0.356
-0.3355
-0.3195
-0.3015
-0.2825
-0.2555
-0.222
-0.191
-0.146
-0.1055
-0.064
-0.0295
-0.0025
0.034
0.059
0.0805
0.0905
0.0875
0.0775
0.0485
0.0085
-0.028
-0.059
-0.095
-0.126
-0.144
-0.1595
-0.174
-0.191
-0.206
-0.2225
-0.2395
-0.2535
-0.2695
-0.2825
-0.29
-0.2905
-0.2865
-0.2785
-0.2755
-0.2745
-0.27
-0.2815
-0.2895
-0.2925
-0.2895
-0.2845
-0.28
-0.2795
-0.2795
-0.28
-0.2875
-0.2855
-0.3
-0.3165
-0.32
-0.32
-0.327
-0.3335
-0.341
-0.3495
-0.345
-0.3505
-0.357
-0.356
-0.355
-0.355
-0.3525
-0.353
-0.354
-0.352
-0.3545
-0.3565
-0.3565
-0.36
-0.366
-0.3635
-0.365
-0.368
-0.3645
-0.367
-0.367
-0.372
-0.3765
-0.377
-0.374
-0.367
-0.3645
-0.3685
-0.374
-0.373
-0.375
-0.3755
-0.372
-0.37
-0.365
-0.3615
-0.3655
-0.3685
-0.3695
-0.3675
-0.3615
-0.364
-0.3715
-0.3705
-0.3605
-0.358
-0.3595
-0.359
-0.359
-0.3605
-0.3625
-0.3605
-0.3565
-0.357
-0.3625
-0.363
-0.364
-0.3665
-0.364
-0.3625
-0.3595
-0.363
-0.3675
-0.362
-0.3585
-0.3575
-0.3585
-0.3645
-0.3655
-0.363
-0.3625
-0.3585
-0.354
-0.3545
-0.356
-0.36
-0.3595
-0.3605
-0.362
-0.3585
-0.3655
-0.367
-0.361
-0.3575
-0.356
-0.3555
-0.3515
-0.353
-0.3515
-0.3505
-0.356
-0.352
-0.3535
-0.359
-0.362
-0.359
-0.357
-0.363
-0.3625
-0.357
-0.3535
-0.353
-0.351
-0.349
-0.35
-0.357
-0.358
-0.361
-0.363
-0.3585
-0.359
-0.3545
-0.3545
-0.356
-0.3555
-0.357
-0.3555
-0.352
-0.35
-0.3475
-0.349
-0.356
-0.3645
-0.36
-0.348
-0.3465
-0.3415
-0.3395
-0.3395
-0.3385
-0.339
-0.338
-0.337
-0.3355
-0.343
-0.346
-0.34
-0.336
-0.3365
-0.34
-0.3345
-0.3335
-0.336
-0.339
-0.346
-0.3435
-0.333
-0.3305
-0.333
-0.333
-0.331
-0.3265
-0.323
-0.3215
-0.327
-0.329
-0.334
-0.3355
-0.333
-0.3375
-0.3295
-0.324
-0.328
-0.3265
-0.3255
-0.324
-0.3165
-0.319
-0.3225
-0.3215
-0.319
-0.315
-0.3135
-0.311
-0.3135
-0.3155
-0.3175
-0.315
-0.31
-0.3075
-0.3025
-0.301
-0.3035
-0.3045
-0.2965
-0.2945
-0.294
-0.2905
-0.2905
-0.291
-0.2885
-0.2805
-0.2775
-0.278
-0.276
-0.278
-0.283
-0.274
-0.266
-0.2705
-0.27
-0.271
-0.2775
-0.275
-0.264
-0.255
-0.2475
-0.249
-0.2545
-0.253
-0.2485
-0.2445
-0.243
-0.2455
-0.2505
-0.2505
-0.2455
-0.2385
-0.239
-0.244
-0.2435
-0.2425
-0.242
-0.2405
-0.235
-0.2305
-0.2255
-0.2195
-0.2215
-0.224
-0.2195
-0.2185
-0.2185
-0.222
-0.2235
-0.2205
-0.223
-0.2195
-0.216
-0.217
-0.2185
-0.22
-0.22
-0.2185
-0.212
-0.21
-0.2055
-0.204
-0.205
-0.203
-0.2065
-0.2055
-0.207
-0.2105
-0.2135
-0.2195
-0.2215
-0.2185
-0.2195
-0.22
-0.2245
-0.231
-0.2355
-0.237
-0.2345
-0.2365
-0.2305
-0.232
-0.2345
-0.233
-0.2325
-0.2255
-0.225
-0.234
-0.2425
-0.248
-0.251
-0.25
-0.2525
-0.2505
-0.2515
-0.2605
-0.2605
-0.2625
-0.265
-0.2675
-0.2705
-0.274
-0.2775
-0.278
-0.2775
-0.2795
-0.286
-0.292
-0.296
-0.3
-0.303
-0.2995
-0.2995
-0.301
-0.307
-0.3205
-0.3225
-0.3185
-0.313
-0.3115
-0.312
-0.3165
-0.3185
-0.3145
-0.3155
-0.313
-0.3095
-0.314
-0.3205
-0.325
-0.331
-0.329
-0.3245
-0.327
-0.334
-0.343
-0.3445
-0.343
-0.3385
-0.3365
-0.336
-0.3395
-0.34
-0.336
-0.3365
-0.3385
-0.338
-0.339
-0.3455
-0.3465
-0.3515
-0.3515
-0.3495
-0.353
-0.3475
-0.349
-0.35
-0.351
-0.354
-0.3485
-0.342
-0.345
-0.3495
-0.347
-0.35
-0.348
-0.347
-0.3495
-0.349
-0.3495
-0.3515
-0.3515
-0.3525
-0.35
-0.347
-0.3505
-0.348
-0.3455
-0.347
-0.352
-0.353
-0.355
-0.355
-0.352
-0.3525
-0.3535
-0.3535
-0.357
-0.363
-0.357
-0.358
-0.3585
-0.3525
-0.3535
-0.3535
-0.3575
-0.363
-0.36
-0.356
-0.3565
-0.3535
-0.3555
-0.3575
-0.3595
-0.3595
-0.3535
-0.3535
-0.3565
-0.36
-0.3595
-0.3575
-0.3535
-0.35
-0.3525
-0.3545
-0.3565
-0.3585
-0.357
-0.351
-0.349
-0.348
-0.354
-0.3625
-0.364
-0.358
-0.346
-0.346
-0.353
-0.356
-0.355
-0.362
-0.364
-0.3595
-0.36
-0.3595
-0.363
-0.3695
-0.373
-0.363
-0.3565
-0.3565
-0.3595
-0.365
-0.3685
-0.363
-0.3515
-0.3515
-0.3525
-0.356
-0.3635
-0.3645
-0.357
-0.3545
-0.356
-0.3565
-0.3565
-0.3615
-0.369
-0.3615
-0.3585
-0.3575
-0.357
-0.3605
-0.3555
-0.352
-0.3475
-0.3455
-0.347
-0.351
-0.3585
-0.3635
-0.3605
-0.3625
-0.3635
-0.36
-0.3595
-0.361
-0.369
-0.364
-0.36
-0.3605
-0.3565
-0.356
-0.356
-0.3535
-0.347
-0.3515
-0.36
-0.364
-0.3665
-0.367
-0.3625
-0.3605
-0.363
-0.363
-0.3625
-0.3595
-0.361
-0.358
-0.355
-0.354
-0.353
-0.351
-0.3495
-0.3485
-0.344
-0.346
-0.348
-0.349
-0.3505
-0.351
-0.354
-0.3565
-0.3545
-0.35
-0.3495
-0.352
-0.3535
-0.351
-0.3475
-0.346
-0.346
-0.3485
-0.3515
-0.3545
-0.3565
-0.355
-0.3535
-0.3565
-0.356
-0.3565
-0.3545
-0.354
-0.359
-0.3605
-0.363
-0.364
-0.36
-0.3545
-0.3505
-0.345
-0.347
-0.352
-0.3525
-0.3525
-0.3495
-0.3485
-0.3515
-0.354
-0.352
-0.3565
-0.3575
-0.356
-0.3595
-0.3555
-0.355
-0.3545
-0.3555
-0.3595
-0.359
-0.3515
-0.3465
-0.351
-0.3545
-0.357
-0.3555
-0.353
-0.3525
-0.3535
-0.352
-0.3525
-0.351
-0.3495
-0.352
-0.353
-0.356
-0.358
-0.355
-0.3525
-0.354
-0.356
-0.3565
-0.3565
-0.355
-0.348
-0.3475
-0.3495
-0.348
-0.349
-0.3505
-0.354
-0.352
-0.3545
-0.351
-0.348
-0.354
-0.3545
-0.3545
-0.351
-0.35
-0.343
-0.346
-0.3505
-0.35
-0.35
-0.343
-0.3425
-0.3405
-0.3445
-0.344
-0.3465
-0.355
-0.352
-0.345
-0.342
-0.3515
-0.357
-0.3545
-0.3495
-0.3485
-0.3445
-0.3425
-0.348
-0.351
-0.3495
-0.3435
-0.34
-0.341
-0.3435
-0.3445
-0.3485
-0.349
-0.346
-0.3465
-0.348
-0.353
-0.3515
-0.348
-0.3485
-0.3525
-0.3475
-0.343
-0.3465
-0.3435
-0.3415
-0.3395
-0.3395
-0.343
-0.348
-0.351
-0.3495
-0.347
-0.345
-0.3465
-0.3475
-0.35
-0.3515
-0.3505
-0.345
-0.343
-0.343
-0.339
-0.3385
-0.338
-0.3365
-0.3345
-0.3295
-0.3285
-0.3315
-0.3345
-0.3575
-0.35
-0.3315
-0.336
-0.338
-0.3465
-0.348
-0.3525
-0.353
-0.3475
-0.344
-0.3445
-0.3445
-0.338
-0.336
-0.3365
-0.3345
-0.3345
-0.338
-0.3385
-0.3425
-0.337
-0.332
-0.3415
-0.341
-0.34
-0.3415
-0.342
-0.342
-0.3365
-0.334
-0.341
-0.3485
-0.3505
-0.352
-0.3445
-0.333
-0.329
-0.3355
-0.344
-0.3505
-0.354
-0.356
-0.356
-0.354
-0.3535
-0.3545
-0.3505
-0.343
-0.34
-0.3385
-0.3425
-0.3475
-0.3465
-0.345
-0.345
-0.3405
-0.338
-0.342
-0.3445
-0.3475
-0.343
-0.337
-0.3405
-0.344
-0.3405
-0.3375
-0.3355
-0.3335
-0.333
-0.3305
-0.34
-0.338
-0.3315
-0.3385
-0.3335
-0.336
-0.3415
-0.3395
-0.3415
-0.3425
-0.342
-0.343
-0.342
-0.342
-0.342
-0.3425
-0.3385
-0.334
-0.333
-0.33
-0.3375
-0.3385
-0.335
-0.3375
-0.333
-0.3325
-0.3345
-0.3375
-0.3375
-0.3375
-0.3385
-0.337
-0.3385
-0.34
-0.3425
-0.346
-0.345
-0.3385
-0.3385
-0.331
-0.33
-0.3305
-0.33
-0.333
-0.328
-0.3315
-0.3325
-0.335
-0.337
-0.3385
-0.339
-0.336
-0.339
-0.3445
-0.35
-0.349
-0.346
-0.3425
-0.3395
-0.3355
-0.339
-0.342
-0.332
-0.326
-0.327
-0.3285
-0.3325
-0.338
-0.3395
-0.3415
-0.3395
-0.3355
-0.3355
-0.337
-0.3405
-0.3405
-0.342
-0.3395
-0.334
-0.329
-0.33
-0.3385
-0.3375
-0.334
-0.3255
-0.3195
-0.3205
-0.3255
-0.334
-0.339
-0.3425
-0.343
-0.3425
-0.3415
-0.342
-0.3425
-0.342
-0.337
-0.335
-0.335
-0.335
-0.336
-0.3265
-0.3155
-0.311
-0.306
-0.309
-0.312
-0.312
-0.313
-0.31
-0.309
-0.3075
-0.311
-0.314
-0.3105
-0.307
-0.302
-0.3015
-0.304
-0.303
-0.304
-0.3075
-0.303
-0.297
-0.288
-0.2795
-0.278
-0.2775
-0.2785
-0.2815
-0.2885
-0.292
-0.2935
-0.296
-0.291
-0.2865
-0.2875
-0.2915
-0.2905
-0.2915
-0.296
-0.302
-0.305
-0.3025
-0.3005
-0.2955
-0.298
-0.3005
-0.304
-0.304
-0.3015
-0.3025
-0.3065
-0.3175
-0.3185
-0.32
-0.3235
-0.321
-0.3205
-0.328
-0.336
-0.344
-0.3455
-0.3405
-0.3395
-0.3425
-0.3455
-0.3435
-0.344
-0.3415
-0.343
-0.344
-0.342
-0.346
-0.3485
-0.348
-0.3455
-0.3425
-0.338
-0.3415
-0.3455
-0.343
-0.3435
-0.3395
-0.3365
-0.339
-0.343
-0.3435
-0.348
-0.35
-0.348
-0.3495
-0.349
-0.352
-0.354
-0.348
-0.3425
-0.3365
-0.333
-0.343
-0.3465
-0.345
-0.3525
-0.35
-0.3455
-0.35
-0.355
-0.362
-0.3625
-0.356
-0.3575
-0.3605
-0.365
-0.373
-0.3775
-0.3785
-0.3745
-0.3725
-0.3745
-0.3785
-0.38
-0.384
-0.3885
-0.3815
-0.3745
-0.3695
-0.359
-0.346
-0.334
-0.316
-0.3105
-0.303
-0.277
-0.255
-0.2305
-0.2
-0.161
-0.1185
-0.0785
-0.0435
-0.0205
0.009
0.0455
0.076
0.1065
0.12
0.119
0.106
0.071
0.0345
-0.0005
-0.034
-0.0675
-0.1
-0.124
-0.1405
-0.155
-0.166
-0.181
-0.203
-0.2215
-0.232
-0.2485
-0.262
-0.2605
-0.2605
-0.252
-0.25
-0.2605
-0.2565
-0.2545
-0.2655
-0.273
-0.2715
-0.271
-0.271
-0.268
-0.2655
-0.2575
-0.26
-0.2695
-0.276
-0.2855
-0.291
-0.294
-0.296
-0.3015
-0.3065
-0.3155
-0.3225
-0.3215
-0.321
-0.3235
-0.327
-0.326
-0.3295
-0.3305
-0.3335
-0.3325
-0.337
-0.3405
-0.3335
-0.3305
-0.33
-0.3315
-0.333
-0.344
-0.3495
-0.348
-0.3485
-0.349
-0.347
-0.346
-0.346
-0.351
-0.35
-0.3355
-0.3325
-0.33
-0.3305
-0.3365
-0.338
-0.34
-0.34
-0.3405
-0.341
-0.345
-0.349
-0.3495
-0.3495
-0.349
-0.3415
-0.3365
-0.3385
-0.339
-0.3345
-0.327
-0.3285
-0.3325
-0.3355
-0.3355
-0.339
-0.3375
-0.3315
-0.3305
-0.3305
-0.333
-0.3315
-0.3345
-0.3335
-0.3325
-0.3365
-0.34
-0.3435
-0.3395
-0.338
-0.334
-0.328
-0.3225
-0.3275
-0.3325
-0.3325
-0.3375
-0.3345
-0.333
-0.341
-0.3465
-0.3405
-0.3415
-0.342
-0.336
-0.337
-0.338
-0.3385
-0.343
-0.3455
-0.3425
-0.342
-0.339
-0.3405
-0.337
-0.332
-0.333
-0.332
-0.339
-0.34
-0.3385
-0.338
-0.3355
-0.335
-0.3325
-0.3325
-0.3335
-0.336
-0.337
-0.336
-0.334
-0.3325
-0.3325
-0.3375
-0.3375
-0.3345
-0.328
-0.318
-0.317
-0.319
-0.325
-0.3315
-0.337
-0.3405
-0.3425
-0.3365
-0.33
-0.332
-0.3345
-0.334
-0.3305
-0.323
-0.316
-0.327
-0.3325
-0.322
-0.3165
-0.315
-0.317
-0.322
-0.325
-0.328
-0.331
-0.324
-0.3255
-0.3285
-0.3225
-0.318
-0.32
-0.3215
-0.3195
-0.319
-0.313
-0.31
-0.312
-0.312
-0.309
-0.305
-0.3045
-0.309
-0.316
-0.3145
-0.311
-0.3075
-0.3055
-0.3025
-0.298
-0.299
-0.301
-0.2965
-0.2905
-0.2855
-0.281
-0.2835
-0.29
-0.2925
-0.289
-0.2835
-0.28
-0.2865
-0.29
-0.2875
-0.288
-0.2785
-0.2745
-0.275
-0.2755
-0.279
-0.2775
-0.281
-0.279
-0.27
-0.2645
-0.264
-0.263
-0.261
-0.26
-0.2535
-0.2485
-0.2535
-0.257
-0.2525
-0.2525
-0.2505
-0.2475
-0.249
-0.2455
-0.2445
-0.2475
-0.2435
-0.2355
-0.233
-0.2325
-0.234
-0.2335
-0.23
-0.2215
-0.2165
-0.213
-0.21
-0.217
-0.2205
-0.2265
-0.2235
-0.2175
-0.218
-0.214
-0.2095
-0.2075
-0.209
-0.208
-0.204
-0.1965
-0.1995
-0.2035
-0.1995
-0.195
-0.1935
-0.1935
-0.1905
-0.194
-0.1925
-0.1905
-0.19
-0.191
-0.191
-0.1905
-0.197
-0.1965
-0.192
-0.191
-0.188
-0.1865
-0.1855
-0.1825
-0.1825
-0.1865
-0.185
-0.183
-0.1865
-0.191
-0.193
-0.193
-0.1965
-0.201
-0.199
-0.2015
-0.2015
-0.197
-0.1995
-0.2005
-0.2025
-0.2015
-0.2075
-0.211
-0.212
-0.215
-0.213
-0.2235
-0.2305
-0.236
-0.241
-0.241
-0.241
-0.2425
-0.246
-0.247
-0.25
-0.254
-0.2575
-0.252
-0.252
-0.254
-0.2545
-0.254
-0.257
-0.2695
-0.2715
-0.267
-0.27
-0.275
-0.2775
-0.2785
-0.277
-0.2835
-0.2885
-0.289
-0.2935
-0.29
-0.2845
-0.2815
-0.2785
-0.282
-0.288
-0.291
-0.2945
-0.2955
-0.2995
-0.3
-0.296
-0.3015
-0.305
-0.3035
-0.31
-0.3165
-0.31
-0.302
-0.3055
-0.3065
-0.302
-0.2975
-0.29
-0.2895
-0.297
-0.3055
-0.3135
-0.31
-0.3005
-0.3005
-0.304
-0.3105
-0.3205
-0.3265
-0.32
-0.314
-0.3125
-0.312
-0.3105
-0.3105
-0.309
-0.308
-0.312
-0.3085
-0.3105
-0.3165
-0.3185
-0.3165
-0.31
-0.3095
-0.3155
-0.316
-0.317
-0.318
-0.3135
-0.3145
-0.3165
-0.3255
-0.3355
-0.3365
-0.33
-0.3185
-0.3185
-0.3175
-0.316
-0.323
-0.3295
-0.324
-0.323
-0.3235
-0.3185
-0.326
-0.3285
-0.333
-0.3355
-0.3285
-0.3285
-0.33
-0.331
-0.332
-0.323
-0.3225
-0.328
-0.3285
-0.3315
-0.3275
-0.3245
-0.32
-0.3195
-0.3255
-0.3295
-0.337
-0.3355
-0.339
-0.3385
-0.3365
-0.34
-0.332
-0.33
-0.336
-0.334
-0.333
-0.332
-0.3275
-0.33
-0.3265
-0.3295
-0.336
-0.33
-0.327
-0.33
-0.3315
-0.331
-0.338
-0.3395
-0.332
-0.3295
-0.3295
-0.3325
-0.336
-0.3385
-0.34
-0.336
-0.3355
-0.3325
-0.3355
-0.3405
-0.3315
-0.3245
-0.3195
-0.3285
-0.337
-0.3385
-0.345
-0.348
-0.341
-0.3315
-0.329
-0.332
-0.33
-0.324
-0.321
-0.3185
-0.324
-0.331
-0.3295
-0.3295
-0.329
-0.321
-0.317
-0.3205
-0.3255
-0.327
-0.3285
-0.3315
-0.33
-0.3245
-0.325
-0.3285
-0.3345
-0.339
-0.3355
-0.3315
-0.3225
-0.319
-0.32
-0.317
-0.3175
-0.32
-0.322
-0.325
-0.327
-0.3275
-0.33
-0.332
-0.333
-0.331
-0.3335
-0.339
-0.3385
-0.334
-0.329
-0.3285
-0.326
-0.3255
-0.329
-0.327
-0.3225
-0.317
-0.317
-0.3235
-0.3235
-0.3225
-0.3215
-0.3175
-0.3235
-0.326
-0.3255
-0.328
-0.327
-0.329
-0.33
-0.3295
-0.3285
-0.326
-0.3205
-0.3205
-0.3245
-0.3235
-0.3205
-0.324
-0.327
-0.3295
-0.3345
-0.328
-0.3305
-0.331
-0.327
-0.329
-0.3315
-0.3325
-0.3255
-0.3285
-0.3275
-0.3275
-0.3255
-0.318
-0.319
-0.3175
-0.315
-0.3115
-0.32
-0.3225
-0.324
-0.329
-0.3245
-0.3295
-0.332
-0.3265
-0.3215
-0.3155
-0.316
-0.3135
-0.3115
-0.3125
-0.31
-0.3085
-0.314
-0.317
-0.3195
-0.3275
-0.3295
-0.3245
-0.3255
-0.325
-0.325
-0.3315
-0.3365
-0.3305
-0.3225
-0.317
-0.3125
-0.322
-0.328
-0.3285
-0.322
-0.318
-0.317
-0.315
-0.321
-0.322
-0.3265
-0.33
-0.329
-0.325
-0.3185
-0.324
-0.3285
-0.323
-0.325
-0.325
-0.322
-0.3215
-0.316
-0.319
-0.3195
-0.3135
-0.3085
-0.309
-0.3065
-0.3075
-0.3145
-0.312
-0.316
-0.316
-0.311
-0.317
-0.3225
-0.3185
-0.317
-0.318
-0.313
-0.309
-0.3105
-0.311
-0.3045
-0.304
-0.305
-0.302
-0.2985
-0.302
-0.31
-0.312
-0.3055
-0.303
-0.3095
-0.313
-0.3135
-0.312
-0.3105
-0.308
-0.3045
-0.302
-0.3015
-0.3075
-0.3095
-0.311
-0.3125
-0.3065
-0.303
-0.301
-0.3
-0.3035
-0.3025
-0.303
-0.301
-0.299
-0.3075
-0.3115
-0.3095
-0.3085
-0.3065
-0.3035
-0.2965
-0.2985
-0.307
-0.3085
-0.3095
-0.312
-0.3075
-0.306
-0.309
-0.306
-0.3045
-0.3085
-0.3075
-0.2995
-0.3085
-0.3155
-0.3065
-0.303
-0.304
-0.305
-0.3035
-0.3045
-0.3035
-0.2985
-0.298
-0.3
-0.305
-0.3135
-0.3205
-0.315
-0.316
-0.309
-0.3055
-0.309
-0.307
-0.3145
-0.312
-0.307
-0.3025
-0.302
-0.3045
-0.3075
-0.306
-0.307
-0.311
-0.3055
-0.3045
-0.3065
-0.313
-0.319
-0.3205
-0.31
-0.31
-0.3085
-0.3065
-0.314
-0.313
-0.316
-0.308
-0.301
-0.2995
-0.3005
-0.302
-0.2995
-0.3005
-0.299
-0.3005
-0.3065
-0.31
-0.3135
-0.315
-0.311
-0.312
-0.311
-0.3135
-0.3185
-0.314
-0.315
-0.3125
-0.308
-0.308
-0.3095
-0.3095
-0.303
-0.297
-0.2955
-0.2955
-0.299
-0.3055
-0.3065
-0.308
-0.312
-0.31
-0.3085
-0.309
-0.3105
-0.314
-0.311
-0.302
-0.3
-0.3025
-0.3065
-0.304
-0.301
-0.301
-0.299
-0.298
-0.3
-0.306
-0.3125
-0.315
-0.311
-0.307
-0.308
-0.3105
-0.313
-0.3105
-0.307
-0.3075
-0.31
-0.306
-0.3035
-0.305
-0.305
-0.305
-0.302
-0.3
-0.298
-0.3
-0.302
-0.302
-0.306
-0.302
-0.298
-0.2945
-0.296
-0.307
-0.3095
-0.31
-0.3025
-0.2965
-0.3005
-0.3025
-0.3075
-0.302
-0.3015
-0.311
-0.306
-0.299
-0.303
-0.3095
-0.3085
-0.311
-0.3145
-0.312
-0.3135
-0.3165
-0.3165
-0.315
-0.308
-0.302
-0.3065
-0.3105
-0.3135
-0.3105
-0.3045
-0.3005
-0.3005
-0.305
-0.3025
-0.304
-0.301
-0.295
-0.292
-0.2905
-0.29
-0.2895
-0.2905
-0.284
-0.28
-0.2725
-0.273
-0.283
-0.284
-0.2805
-0.2745
-0.2655
-0.2595
-0.2655
-0.275
-0.277
-0.2725
-0.2715
-0.269
-0.2685
-0.266
-0.261
-0.264
-0.259
-0.2495
-0.2485
-0.2545
-0.2565
-0.2535
-0.257
-0.258
-0.2565
-0.255
-0.256
-0.2655
-0.268
-0.269
-0.2715
-0.272
-0.2745
-0.277
-0.284
-0.285
-0.277
-0.269
-0.2615
-0.2625
-0.274
-0.279
-0.276
-0.283
-0.289
-0.2915
-0.3
-0.3085
-0.3145
-0.3135
-0.3105
-0.3105
-0.309
-0.3115
-0.3105
-0.303
-0.3035
-0.2985
-0.2945
-0.301
-0.3075
-0.311
-0.3075
-0.305
-0.3075
-0.3125
-0.315
-0.309
-0.304
-0.3045
-0.3135
-0.3255
-0.322
-0.316
-0.319
-0.318
-0.3235
-0.323
-0.315
-0.3175
-0.3185
-0.3165
-0.315
-0.3145
-0.314
-0.317
-0.322
-0.3225
-0.3235
-0.317
-0.3145
-0.3155
-0.312
-0.317
-0.3185
-0.32
-0.3225
-0.316
-0.3085
-0.31
-0.3195
-0.3255
-0.324
-0.32
-0.3195
-0.319
-0.325
-0.335
-0.338
-0.3375
-0.343
-0.3455
-0.3435
-0.351
-0.3515
-0.3345
-0.3155
-0.2905
-0.264
-0.252
-0.2385
-0.217
-0.1895
-0.157
-0.121
-0.085
-0.055
-0.0165
0.015
0.037
0.068
0.0925
0.1215
0.146
0.1505
0.1545
0.1255
0.084
0.0585
0.0265
-0.005
-0.042
-0.061
-0.087
-0.118
-0.127
-0.142
-0.1645
-0.1845
-0.2015
-0.223
-0.231
-0.2395
-0.254
-0.2565
-0.2455
-0.2355
-0.2505
-0.251
-0.2475
-0.2485
-0.248
-0.257
-0.251
-0.246
-0.2535
-0.262
-0.264
-0.265
-0.257
-0.252
-0.2535
-0.2585
-0.26
-0.2635
-0.2665
-0.2535
-0.261
-0.2735
-0.2835
-0.2935
-0.289
-0.286
-0.2865
-0.286
-0.289
-0.303
-0.304
-0.301
-0.2995
-0.294
-0.299
-0.305
-0.3095
-0.31
-0.309
-0.311
-0.312
-0.311
-0.3115
-0.3015
-0.292
-0.291
-0.2905
-0.2905
-0.2895
-0.295
-0.304
-0.301
-0.2925
-0.2985
-0.3035
-0.3065
-0.3095
-0.3145
-0.3095
-0.2945
-0.2885
-0.292
-0.3015
-0.297
-0.2975
-0.301
-0.2945
-0.2945
-0.2995
-0.299
-0.2995
-0.2995
-0.2935
-0.3
-0.298
-0.296
-0.3045
-0.303
-0.3
-0.293
-0.2965
-0.3
-0.2935
-0.2945
-0.296
-0.2965
-0.2915
-0.2915
-0.295
-0.2955
-0.302
-0.3065
-0.3025
-0.293
-0.2885
-0.2975
-0.3
-0.299
-0.304
-0.2995
-0.297
-0.2935
-0.2955
-0.3005
-0.297
-0.296
-0.291
-0.2845
-0.281
-0.2835
-0.2885
-0.291
-0.298
-0.302
-0.3
-0.2985
-0.3015
-0.3025
-0.292
-0.289
-0.2925
-0.29
-0.2905
-0.292
-0.288
-0.285
-0.2825
-0.2785
-0.288
-0.2915
-0.286
-0.286
-0.2835
-0.286
-0.285
-0.2865
-0.285
-0.2835
-0.285
-0.277
-0.2775
-0.276
-0.2795
-0.281
-0.2795
-0.282
-0.273
-0.269
-0.272
-0.2705
-0.2745
-0.277
-0.268
-0.271
-0.2775
-0.2795
-0.286
-0.285
-0.2755
-0.2725
-0.2765
-0.269
-0.266
-0.264
-0.264
-0.2645
-0.255
-0.2565
-0.2575
-0.2605
-0.258
-0.256
-0.2585
-0.254
-0.2545
-0.2525
-0.259
-0.26
-0.252
-0.254
-0.2525
-0.247
-0.2475
-0.25
-0.2515
-0.2495
-0.248
-0.2455
-0.2365
-0.236
-0.2425
-0.2465
-0.246
-0.243
-0.243
-0.2455
-0.2445
-0.2435
-0.234
-0.2235
-0.223
-0.2175
-0.2225
-0.233
-0.2315
-0.229
-0.2235
-0.216
-0.217
-0.22
-0.2205
-0.2205
-0.215
-0.2125
-0.2065
-0.206
-0.209
-0.211
-0.207
-0.2025
-0.211
-0.202
-0.194
-0.202
-0.202
-0.198
-0.188
-0.179
-0.1775
-0.1795
-0.1795
-0.1755
-0.1755
-0.1765
-0.1715
-0.1695
-0.1765
-0.1805
-0.1725
-0.1665
-0.1605
-0.152
-0.1555
-0.155
-0.1565
-0.1485
-0.138
-0.1455
-0.149
-0.151
-0.152
-0.154
-0.145
-0.14
-0.1445
-0.1445
-0.1465
-0.1445
-0.1435
-0.144
-0.1375
-0.1335
-0.1325
-0.136
-0.1395
-0.1395
-0.1395
-0.134
-0.1405
-0.1495
-0.154
-0.157
-0.145
-0.138
-0.14
-0.143
-0.149
-0.145
-0.149
-0.155
-0.149
-0.1485
-0.156
-0.162
-0.166
-0.1705
-0.1695
-0.165
-0.172
-0.1815
-0.1835
-0.18
-0.1815
-0.189
-0.1905
-0.193
-0.1925
-0.196
-0.2005
-0.198
-0.196
-0.1945
-0.2055
-0.21
-0.2065
-0.2095
-0.2105
-0.215
-0.222
-0.2255
-0.23
-0.2435
-0.2455
-0.2425
-0.246
-0.2515
-0.25
-0.2435
-0.245
-0.2385
-0.237
-0.2415
-0.2465
-0.2515
-0.255
-0.26
-0.2615
-0.264
-0.269
-0.274
-0.271
-0.2745
-0.275
-0.273
-0.2725
-0.2725
-0.277
-0.2805
-0.2805
-0.275
-0.2775
-0.275
-0.276
-0.278
-0.2735
-0.273
-0.274
-0.281
-0.284
-0.2845
-0.2875
-0.293
-0.2935
-0.2965
-0.291
-0.286
-0.2935
-0.2955
-0.2945
-0.294
-0.298
-0.298
-0.2975
-0.2965
-0.3025
-0.312
-0.308
-0.2985
-0.295
-0.297
-0.298
-0.3045
-0.3015
-0.299
-0.307
-0.3075
-0.305
-0.309
-0.3015
-0.2935
-0.299
-0.2955
-0.2975
-0.304
-0.2965
-0.295
-0.3005
-0.298
-0.297
-0.298
-0.298
-0.2985
-0.297
-0.295
-0.292
-0.291
-0.302
-0.305
-0.2995
-0.2965
-0.3005
-0.2985
-0.281
-0.2825
-0.2965
-0.302
-0.3005
-0.2985
-0.295
-0.2965
-0.303
-0.3045
-0.3065
-0.3055
-0.295
-0.303
-0.309
-0.3065
-0.3095
-0.2995
-0.2955
-0.2965
-0.3085
-0.3155
-0.3135
-0.318
-0.311
-0.3015
-0.306
-0.3065
-0.303
-0.3045
-0.3055
-0.314
-0.31
-0.3015
-0.309
-0.311
-0.3065
-0.301
-0.3005
-0.2985
-0.2935
-0.296
-0.308
-0.3145
-0.3135
-0.314
-0.3185
-0.3215
-0.3185
-0.3235
-0.3225
-0.3125
-0.3115
-0.316
-0.322
-0.318
-0.312
-0.312
-0.312
-0.306
-0.307
-0.3045
-0.2975
-0.3005
-0.302
-0.3095
-0.3125
-0.3125
-0.309
-0.3095
-0.313
-0.311
-0.317
-0.318
-0.3235
-0.329
-0.322
-0.3125
-0.305
-0.3055
-0.313
-0.313
-0.3145
-0.313
-0.3055
-0.302
-0.3005
-0.3015
-0.2995
-0.3065
-0.3125
-0.311
-0.307
-0.307
-0.311
-0.3145
-0.317
-0.311
-0.314
-0.3155
-0.312
-0.312
-0.3115
-0.3135
-0.313
-0.313
-0.316
-0.312
-0.3125
-0.3165
-0.316
-0.3235
-0.3165
-0.311
-0.316
-0.319
-0.319
-0.3145
-0.3135
-0.31
-0.314
-0.3195
-0.3145
-0.3085
-0.3095
-0.3085
-0.309
-0.311
-0.305
-0.3115
-0.3085
-0.2985
-0.303
-0.304
-0.311
-0.3115
-0.3095
-0.3115
-0.3085
-0.309
-0.3145
-0.3125
-0.3055
-0.3085
-0.3085
-0.312
-0.318
-0.318
-0.3185
-0.3125
-0.306
-0.304
-0.309
-0.315
-0.3165
-0.321
-0.327
-0.3155
-0.3105
-0.3165
-0.3125
-0.308
-0.3025
-0.306
-0.3095
-0.3055
-0.31
-0.3165
-0.313
-0.3145
-0.316
-0.3105
-0.311
-0.313
-0.3125
-0.3115
-0.312
-0.31
-0.3055
-0.3015
-0.309
-0.3135
-0.31
-0.3095
-0.3055
-0.304
-0.3105
-0.3185
-0.315
-0.313
-0.3085
-0.308
-0.313
-0.304
-0.306
-0.309
-0.308
-0.307
-0.302
-0.2995
-0.296
-0.296
-0.3045
-0.309
-0.305
-0.2965
-0.292
-0.3065
-0.306
-0.305
-0.308
-0.3005
-0.304
-0.3065
-0.307
-0.3105
-0.306
-0.305
-0.3005
-0.2975
-0.297
-0.293
-0.3025
-0.2965
-0.2955
-0.294
-0.2855
-0.2965
-0.2985
-0.3
-0.3075
-0.3095
-0.305
-0.2975
-0.296
-0.2935
-0.285
-0.2795
-0.279
-0.271
-0.266
-0.261
-0.263
-0.263
-0.25
-0.2515
-0.255
-0.268
-0.267
-0.263
-0.267
-0.265
-0.264
-0.2495
-0.2535
-0.2555
-0.251
-0.248
-0.2405
-0.2465
-0.241
-0.241
-0.2455
-0.235
-0.241
-0.2435
-0.2375
-0.244
-0.2425
-0.2375
-0.2375
-0.2385
-0.2425
-0.247
-0.2475
-0.2535
-0.257
-0.251
-0.2435
-0.243
-0.249
-0.251
-0.2555
-0.2655
-0.264
-0.256
-0.257
-0.2595
-0.2675
-0.28
-0.2845
-0.283
-0.286
-0.2945
-0.299
-0.294
-0.298
-0.308
-0.3095
-0.3055
-0.3005
-0.302
-0.303
-0.3015
-0.3005
-0.3005
-0.3035
-0.3075
-0.3155
-0.323
-0.32
-0.316
-0.313
-0.311
-0.3165
-0.3155
-0.3055
-0.302
-0.304
-0.3015
-0.304
-0.298
-0.2955
-0.304
-0.2975
-0.292
-0.297
-0.302
-0.307
-0.3145
-0.316
-0.306
-0.309
-0.31
-0.303
-0.3035
-0.3005
-0.2995
-0.2995
-0.311
-0.314
-0.3095
-0.307
-0.302
-0.3085
-0.309
-0.3125
-0.3185
-0.3255
-0.3385
-0.3325
-0.3275
-0.339
-0.341
-0.34
-0.339
-0.332
-0.3265
-0.311
-0.2905
-0.275
-0.2595
-0.2395
-0.2125
-0.196
-0.173
-0.1435
-0.115
-0.072
-0.0435
-0.0095
0.0215
0.05
0.082
0.1
0.118
0.1255
0.147
0.1395
0.1005
0.0705
0.038
0.0115
-0.017
-0.0365
-0.0545
-0.082
-0.113
-0.132
-0.145
-0.1585
-0.174
-0.1985
-0.212
-0.223
-0.238
-0.2485
-0.248
-0.2405
-0.237
-0.2435
-0.2485
-0.247
-0.249
-0.2475
-0.2435
-0.247
-0.25
-0.2515
-0.258
-0.261
-0.251
-0.2425
-0.24
-0.2415
-0.2465
-0.245
-0.242
-0.2455
-0.246
-0.2495
-0.256
-0.2555
-0.256
-0.26
-0.2685
-0.277
-0.279
-0.278
-0.2775
-0.2835
-0.2885
-0.287
-0.29
-0.2965
-0.297
-0.294
-0.2915
-0.286
-0.283
-0.2845
-0.283
-0.288
-0.2865
-0.28
-0.282
-0.284
-0.2915
-0.295
-0.2915
-0.2895
-0.285
-0.2865
-0.296
-0.3
-0.2885
-0.2845
-0.2885
-0.288
-0.2835
-0.2815
-0.289
-0.286
-0.2785
-0.283
-0.287
-0.283
-0.2855
-0.29
-0.2925
-0.2965
-0.2965
-0.289
-0.2875
-0.2885
-0.29
-0.2845
-0.2825
-0.285
-0.277
-0.2765
-0.275
-0.2805
-0.29
-0.2955
-0.2915
-0.2795
-0.286
-0.292
-0.2935
-0.294
-0.2995
-0.3005
-0.2955
-0.299
-0.3
-0.3025
-0.2985
-0.2905
-0.286
-0.2865
-0.287
-0.293
-0.2985
-0.29
-0.284
-0.2825
-0.286
-0.2865
-0.2825
-0.2885
-0.2925
-0.29
-0.294
-0.2895
-0.2865
-0.286
-0.2765
-0.2785
-0.2775
-0.2775
-0.2745
-0.2675
-0.268
-0.264
-0.266
-0.2685
-0.27
-0.277
-0.276
-0.2655
-0.2575
-0.2655
-0.2845
-0.2785
-0.274
-0.278
-0.2645
-0.2665
-0.267
-0.2635
-0.269
-0.2655
-0.2635
-0.2655
-0.2565
-0.25
-0.26
-0.268
-0.264
-0.2615
-0.27
-0.268
-0.2645
-0.2635
-0.269
-0.2705
-0.2595
-0.26
-0.2585
-0.2635
-0.2625
-0.253
-0.255
-0.2565
-0.251
-0.2475
-0.2475
-0.248
-0.248
-0.2445
-0.243
-0.245
-0.2445
-0.2465
-0.2465
-0.241
-0.243
-0.237
-0.2335
-0.2405
-0.24
-0.2345
-0.235
-0.2345
-0.233
-0.234
-0.231
-0.2315
-0.2245
-0.222
-0.2245
-0.2275
-0.2355
-0.228
-0.221
-0.218
-0.2075
-0.2045
-0.204
-0.208
-0.2105
-0.203
-0.203
-0.197
-0.191
-0.197
-0.1945
-0.1955
-0.191
-0.1805
-0.1815
-0.184
-0.1865
-0.1855
-0.1875
-0.187
-0.179
-0.168
-0.162
-0.1665
-0.1645
-0.163
-0.1605
-0.158
-0.1555
-0.1465
-0.1415
-0.1405
-0.1465
-0.141
-0.1385
-0.148
-0.1445
-0.142
-0.1405
-0.143
-0.146
-0.1415
-0.135
-0.1325
-0.135
-0.1315
-0.1275
-0.1275
-0.1195
-0.1195
-0.1215
-0.1255
-0.127
-0.116
-0.1165
-0.1235
-0.1295
-0.125
-0.1195
-0.12
-0.1115
-0.116
-0.1135
-0.1115
-0.122
-0.122
-0.1185
-0.121
-0.1185
-0.114
-0.123
-0.1225
-0.1245
-0.1285
-0.1295
-0.129
-0.131
-0.1445
-0.1465
-0.1395
-0.136
-0.146
-0.1525
-0.155
-0.1595
-0.159
-0.161
-0.1635
-0.1655
-0.1715
-0.175
-0.176
-0.182
-0.182
-0.1835
-0.185
-0.188
-0.201
-0.2015
-0.202
-0.21
-0.2075
-0.199
-0.2055
-0.209
-0.2085
-0.2175
-0.2165
-0.2215
-0.2265
-0.2295
-0.237
-0.238
-0.234
-0.2345
-0.2335
-0.234
-0.24
-0.2415
-0.2445
-0.2415
-0.2405
-0.2405
-0.2405
-0.2455
-0.2515
-0.2525
-0.247
-0.248
-0.247
-0.2485
-0.2545
-0.257
-0.259
-0.261
-0.261
-0.2585
-0.267
-0.273
-0.2705
-0.2655
-0.2615
-0.2625
-0.2675
-0.274
-0.274
-0.281
-0.2815
-0.277
-0.2795
-0.28
-0.282
-0.2815
-0.28
-0.277
-0.27
-0.2645
-0.271
-0.2805
-0.2825
-0.2825
-0.281
-0.2795
-0.278
-0.2805
-0.2885
-0.288
-0.276
-0.269
-0.2755
-0.2855
-0.2875
-0.296
-0.301
-0.292
-0.2855
-0.2795
-0.2845
-0.2905
-0.284
-0.2775
-0.28
-0.277
-0.2775
-0.28
-0.276
-0.2815
-0.282
-0.281
-0.285
-0.2875
-0.289
-0.2895
-0.289
-0.291
-0.292
-0.296
-0.298
-0.298
-0.2875
-0.2745
-0.2745
-0.2745
-0.283
-0.2855
-0.284
-0.285
-0.28
-0.273
-0.271
-0.2765
-0.284
-0.2935
-0.294
-0.295
-0.298
-0.295
-0.29
-0.293
-0.296
-0.291
-0.2915
-0.2865
-0.281
-0.287
-0.2835
-0.2725
-0.2715
-0.271
-0.2775
-0.286
-0.292
-0.2965
-0.291
-0.2905
-0.289
-0.289
-0.29
-0.293
-0.294
-0.2875
-0.2895
-0.289
-0.2875
-0.292
-0.2945
-0.2865
-0.2765
-0.278
-0.2805
-0.283
-0.2855
-0.2905
-0.293
-0.291
-0.289
-0.289
-0.289
-0.2905
-0.2945
-0.2895
-0.285
-0.2855
-0.286
-0.285
-0.288
-0.291
-0.291
-0.29
-0.284
-0.2805
-0.278
-0.2785
-0.2775
-0.279
-0.2835
-0.286
-0.288
-0.2935
-0.2955
-0.288
-0.284
-0.2765
-0.275
-0.2785
-0.274
-0.2705
-0.2725
-0.2745
-0.276
-0.283
-0.285
-0.288
-0.288
-0.286
-0.2825
-0.2805
-0.294
-0.298
-0.292
-0.2825
-0.279
-0.283
-0.2815
-0.286
-0.285
-0.2825
-0.2825
-0.284
-0.2895
-0.2865
-0.286
-0.289
-0.281
-0.2775
-0.287
-0.289
-0.2875
-0.2865
-0.2915
-0.2905
-0.2795
-0.276
-0.284
-0.2895
-0.288
-0.286
-0.286
-0.286
-0.285
-0.286
-0.2875
-0.2885
-0.2845
-0.2795
-0.277
-0.281
-0.282
-0.2805
-0.2845
-0.282
-0.2775
-0.279
-0.283
-0.2815
-0.2815
-0.282
-0.279
-0.2795
-0.2845
-0.289
-0.289
-0.291
-0.2865
-0.2845
-0.285
-0.283
-0.2835
-0.2855
-0.2835
-0.28
-0.2825
-0.271
-0.2685
-0.2715
-0.2715
-0.2785
-0.2785
-0.2815
-0.281
-0.2785
-0.28
-0.284
-0.2865
-0.284
-0.284
-0.284
-0.2835
-0.287
-0.2845
-0.281
-0.285
-0.2825
-0.2855
-0.2885
-0.2825
-0.279
-0.272
-0.269
-0.269
-0.274
-0.2735
-0.2755
-0.2815
-0.282
-0.281
-0.278
-0.2795
-0.2805
-0.281
-0.275
-0.2755
-0.279
-0.277
-0.2785
-0.281
-0.2795
-0.277
-0.274
-0.269
-0.272
-0.274
-0.2785
-0.2785
-0.2765
-0.2775
-0.2825
-0.2915
-0.292
-0.2915
-0.277
-0.2745
-0.2805
-0.2785
-0.283
-0.284
-0.2835
-0.279
-0.277
-0.276
-0.279
-0.285
-0.2865
-0.2795
-0.2845
-0.296
-0.29
-0.292
-0.2955
-0.2905
-0.2845
-0.283
-0.2805
-0.279
-0.2805
-0.2795
-0.288
-0.285
-0.2775
-0.282
-0.285
-0.283
-0.2805
-0.2805
-0.2805
-0.279
-0.2775
-0.281
-0.283
-0.2875
-0.284
-0.2795
-0.2805
-0.274
-0.2785
-0.2825
-0.2835
-0.284
-0.277
-0.2745
-0.276
-0.2805
-0.287
-0.2845
-0.284
-0.287
-0.284
-0.2825
-0.287
-0.287
-0.283
-0.2805
-0.2805
-0.288
-0.295
-0.2915
-0.28
-0.276
-0.27
-0.2695
-0.274
-0.275
-0.284
-0.2855
-0.288
-0.292
-0.294
-0.2915
-0.286
-0.2805
-0.2775
-0.278
-0.271
-0.277
-0.2825
-0.284
-0.285
-0.2775
-0.275
-0.2775
-0.2825
-0.2865
-0.2925
-0.2945
-0.2915
-0.2905
-0.287
-0.2885
-0.287
-0.2865
-0.2885
-0.2875
-0.288
-0.289
-0.288
-0.2875
-0.29
-0.293
-0.2915
-0.288
-0.2895
-0.289
-0.291
-0.2905
-0.2935
-0.2965
-0.2975
-0.297
-0.2915
-0.2905
-0.288
-0.2885
-0.2815
-0.2795
-0.2815
-0.2825
-0.2885
-0.2865
-0.284
-0.2875
-0.2995
-0.303
-0.2985
-0.2965
-0.2955
-0.2935
-0.2885
-0.293
-0.297
-0.2945
-0.2965
-0.299
-0.293
-0.2925
-0.2925
-0.287
-0.2875
-0.284
-0.2765
-0.2785
-0.2805
-0.2875
-0.2925
-0.281
-0.2855
-0.296
-0.2945
-0.2985
-0.3015
-0.2995
-0.292
-0.2895
-0.29
-0.291
-0.2955
-0.2905
-0.285
-0.281
-0.2835
-0.2885
-0.2895
-0.2905
-0.2945
-0.2945
-0.2905
-0.292
-0.2905
-0.2945
-0.3
-0.3
-0.298
-0.2915
-0.285
-0.2845
-0.285
-0.2875
-0.2875
-0.2805
-0.2775
-0.2785
-0.277
-0.278
-0.2925
-0.2995
-0.2985
-0.296
-0.2935
-0.2955
-0.294
-0.298
-0.2945
-0.2925
-0.295
-0.2915
-0.2935
-0.293
-0.2925
-0.29
-0.289
-0.2925
-0.2965
-0.3015
-0.301
-0.299
-0.2995
-0.3
-0.3005
-0.301
-0.2985
-0.295
-0.296
-0.2935
-0.285
-0.286
-0.2895
-0.291
-0.2905
-0.2855
-0.2845
-0.2875
-0.293
-0.2955
-0.295
-0.293
-0.288
-0.286
-0.2845
-0.2865
-0.289
-0.284
-0.281
-0.2835
-0.282
-0.287
-0.295
-0.2925
-0.2905
-0.286
-0.2835
-0.287
-0.287
-0.289
-0.2935
-0.291
-0.291
-0.2935
-0.291
-0.291
-0.29
-0.2835
-0.2785
-0.2725
-0.2705
-0.271
-0.2735
-0.274
-0.2705
-0.2735
-0.2715
-0.2685
-0.2655
-0.261
-0.2595
-0.249
-0.247
-0.251
-0.2505
-0.2555
-0.258
-0.254
-0.2495
-0.25
-0.2445
-0.247
-0.256
-0.2575
-0.261
-0.254
-0.244
-0.242
-0.2405
-0.241
-0.2375
-0.231
-0.2345
-0.2385
-0.2425
-0.2435
-0.2455
-0.247
-0.241
-0.2375
-0.234
-0.237
-0.234
-0.235
-0.246
-0.2435
-0.2385
-0.24
-0.2485
-0.251
-0.252
-0.2515
-0.2505
-0.2505
-0.251
-0.254
-0.2515
-0.254
-0.254
-0.2575
-0.2635
-0.2685
-0.271
-0.274
-0.2825
-0.2815
-0.283
-0.282
-0.284
-0.2855
-0.2855
-0.288
-0.2855
-0.285
-0.283
-0.2845
-0.2835
-0.2805
-0.2815
-0.284
-0.28
-0.2805
-0.2755
-0.267
-0.274
-0.273
-0.2715
-0.276
-0.2805
-0.2825
-0.2825
-0.2805
-0.278
-0.2815
-0.2835
-0.2865
-0.2885
-0.286
-0.2805
-0.2775
-0.2755
-0.2745
-0.2835
-0.291
-0.2925
-0.2955
-0.2925
-0.2895
-0.289
-0.29
-0.297
-0.295
-0.294
-0.3
-0.303
-0.3075
-0.3065
-0.3045
-0.3035
-0.301
-0.302
-0.303
-0.307
-0.3085
-0.313
-0.3165
-0.312
-0.3105
-0.305
-0.2935
-0.283
-0.2725
-0.2625
-0.247
-0.23
-0.217
-0.2015
-0.178
-0.145
-0.1085
-0.0635
-0.0245
0.0075
0.0365
0.0555
0.0805
0.1125
0.1425
0.144
0.1405
0.13
0.107
0.0785
0.0435
0.019
-0.0175
-0.052
-0.076
-0.092
-0.103
-0.119
-0.1315
-0.1475
-0.167
-0.1865
-0.2065
-0.218
-0.217
-0.217
-0.2145
-0.2065
-0.2055
-0.2055
-0.1945
-0.195
-0.2075
-0.2105
-0.213
-0.2135
-0.2175
-0.2195
-0.22
-0.216
-0.2135
-0.221
-0.23
-0.2395
-0.2425
-0.2505
-0.2565
-0.254
-0.2545
-0.2535
-0.258
-0.267
-0.275
-0.2795
-0.2805
-0.2765
-0.272
-0.2745
-0.283
-0.283
-0.278
-0.279
-0.2765
-0.277
-0.2785
-0.283
-0.289
-0.2865
-0.2845
-0.282
-0.2805
-0.2865
-0.288
-0.283
-0.2795
-0.2775
-0.2775
-0.275
-0.281
-0.2845
-0.2845
-0.2865
-0.2845
-0.285
-0.287
-0.2875
-0.2845
-0.2855
-0.2895
-0.2885
-0.282
-0.2795
-0.2815
-0.2855
-0.2875
-0.2815
-0.2815
-0.281
-0.2835
-0.2885
-0.287
-0.289
-0.2855
-0.281
-0.282
-0.2815
-0.281
-0.2835
-0.284
-0.286
-0.2845
-0.2835
-0.294
-0.3015
-0.3005
-0.293
-0.2865
-0.2805
-0.2805
-0.282
-0.279
-0.279
-0.275
-0.271
-0.2735
-0.275
-0.275
-0.2785
-0.278
-0.2785
-0.28
-0.277
-0.2795
-0.283
-0.283
-0.2745
-0.2685
-0.2705
-0.272
-0.2745
-0.273
-0.273
-0.273
-0.271
-0.2735
-0.2795
-0.2795
-0.28
-0.2775
-0.275
-0.281
-0.2825
-0.28
-0.276
-0.273
-0.272
-0.2675
-0.261
-0.268
-0.2735
-0.269
-0.2595
-0.2555
-0.26
-0.2655
-0.2745
-0.2745
-0.28
-0.2805
-0.275
-0.272
-0.2705
-0.2765
-0.275
-0.271
-0.269
-0.2735
-0.2715
-0.2655
-0.2715
-0.27
-0.2645
-0.2645
-0.262
-0.265
-0.271
-0.272
-0.277
-0.273
-0.2655
-0.2645
-0.2645
-0.264
-0.2645
-0.2665
-0.2605
-0.2535
-0.252
-0.256
-0.2555
-0.248
-0.246
-0.243
-0.2415
-0.2445
-0.247
-0.2495
-0.256
-0.2575
-0.2505
-0.2475
-0.246
-0.246
-0.25
-0.251
-0.2455
-0.238
-0.2325
-0.238
-0.247
-0.245
-0.245
-0.238
-0.229
-0.2325
-0.2365
-0.2345
-0.2295
-0.2285
-0.227
-0.224
-0.2255
-0.227
-0.225
-0.2235
-0.2205
-0.2185
-0.213
-0.213
-0.2125
-0.206
-0.2055
-0.1995
-0.1995
-0.205
-0.2095
-0.2085
-0.202
-0.1995
-0.2025
-0.202
-0.1975
-0.1995
-0.201
-0.1905
-0.1805
-0.183
-0.179
-0.175
-0.1745
-0.1725
-0.17
-0.1615
-0.1575
-0.159
-0.164
-0.1745
-0.182
-0.1795
-0.176
-0.171
-0.169
-0.1685
-0.166
-0.1645
-0.16
-0.158
-0.154
-0.152
-0.1445
-0.141
-0.141
-0.135
-0.14
-0.141
-0.144
-0.153
-0.151
-0.1465
-0.1445
-0.14
-0.1345
-0.1365
-0.138
-0.1365
-0.135
-0.1365
-0.133
-0.133
-0.1345
-0.13
-0.129
-0.1265
-0.124
-0.1235
-0.1335
-0.1445
-0.1495
-0.149
-0.1475
-0.1485
-0.145
-0.151
-0.158
-0.1535
-0.1495
-0.1455
-0.144
-0.149
-0.15
-0.1485
-0.1515
-0.1595
-0.166
-0.171
-0.1755
-0.1705
-0.173
-0.179
-0.178
-0.1765
-0.176
-0.18
-0.1895
-0.192
-0.1845
-0.184
-0.187
-0.188
-0.19
-0.194
-0.201
-0.2055
-0.2065
-0.211
-0.2135
-0.2125
-0.2235
-0.2215
-0.2135
-0.218
-0.224
-0.233
-0.232
-0.2325
-0.236
-0.236
-0.2315
-0.2315
-0.239
-0.2415
-0.239
-0.2335
-0.2385
-0.244
-0.2435
-0.244
-0.2465
-0.246
-0.2435
-0.245
-0.2465
-0.2475
-0.25
-0.251
-0.249
-0.2485
-0.245
-0.2445
-0.2495
-0.2515
-0.254
-0.2575
-0.258
-0.2575
-0.256
-0.257
-0.264
-0.2665
-0.267
-0.27
-0.272
-0.2755
-0.28
-0.282
-0.2775
-0.2745
-0.2705
-0.2675
-0.2685
-0.263
-0.258
-0.261
-0.2645
-0.2595
-0.2665
-0.2705
-0.2695
-0.274
-0.2705
-0.268
-0.27
-0.2745
-0.2765
-0.273
-0.2715
-0.2755
-0.2685
-0.2625
-0.2645
-0.262
-0.2625
-0.2645
-0.2645
-0.264
-0.27
-0.274
-0.277
-0.284
-0.281
-0.278
-0.281
-0.285
-0.285
-0.285
-0.2815
-0.2745
-0.277
-0.279
-0.2725
-0.2755
-0.279
-0.276
-0.272
-0.271
-0.2755
-0.278
-0.277
-0.2765
-0.276
-0.2745
-0.2745
-0.278
-0.2825
-0.2845
-0.283
-0.277
-0.275
-0.2755
-0.2745
-0.28
-0.2845
-0.2805
-0.279
-0.284
-0.2905
-0.2915
-0.2905
-0.2895
-0.288
-0.286
-0.285
-0.286
-0.29
-0.2915
-0.285
-0.2825
-0.279
-0.28
-0.2795
-0.275
-0.278
-0.279
-0.2775
-0.2835
-0.297
-0.305
-0.305
-0.2985
-0.298
-0.294
-0.2905
-0.296
-0.2925
-0.291
-0.288
-0.284
-0.279
-0.2795
-0.281
-0.282
-0.2845
-0.2865
-0.287
-0.281
-0.283
-0.285
-0.285
-0.287
-0.2905
-0.2935
-0.291
-0.2945
-0.3035
-0.3015
-0.2935
-0.293
-0.2925
-0.293
-0.2955
-0.295
-0.298
-0.295
-0.2855
-0.2855
-0.2855
-0.285
-0.296
-0.2935
-0.2945
-0.302
-0.297
-0.301
-0.2995
-0.2915
-0.2895
-0.2885
-0.2885
-0.2895
-0.288
-0.2805
-0.2785
-0.284
-0.285
-0.2845
-0.2895
-0.288
-0.289
-0.2965
-0.2975
-0.2965
-0.2915
-0.2865
-0.287
-0.2885
-0.286
-0.2835
-0.283
-0.286
-0.29
-0.2915
-0.2915
-0.285
-0.2835
-0.288
-0.2905
-0.2925
-0.2945
-0.2915
-0.288
-0.2925
-0.296
-0.294
-0.298
-0.301
-0.2995
-0.3005
-0.2935
-0.2945
-0.298
-0.2945
-0.2925
-0.2875
-0.288
-0.2885
-0.2885
-0.2925
-0.296
-0.293
-0.2875
-0.289
-0.292
-0.289
-0.2875
-0.2925
-0.2875
-0.2815
-0.281
-0.285
-0.287
-0.287
-0.2925
-0.2895
-0.2835
-0.285
-0.291
-0.296
-0.2975
-0.3
-0.296
-0.293
-0.291
-0.2865
-0.29
-0.2905
-0.288
-0.2885
-0.29
-0.2915
-0.2865
-0.285
-0.282
-0.28
-0.279
-0.281
-0.2875
-0.2835
-0.28
-0.282
-0.283
-0.285
-0.292
-0.3
-0.3
-0.2985
-0.2915
-0.288
-0.2885
-0.289
-0.2915
-0.2905
-0.288
-0.283
-0.2805
-0.284
-0.291
-0.293
-0.292
-0.29
-0.288
-0.2925
-0.2955
-0.2975
-0.3015
-0.2985
-0.2915
-0.29
-0.2845
-0.284
-0.285
-0.285
-0.2865
-0.279
-0.278
-0.286
-0.293
-0.296
-0.292
-0.2905
-0.291
-0.296
-0.298
-0.2965
-0.295
-0.2915
-0.2885
-0.2865
-0.2865
-0.2845
-0.288
-0.292
-0.289
-0.288
-0.2855
-0.282
-0.287
-0.292
-0.294
-0.292
-0.2915
-0.2955
-0.2925
-0.295
-0.292
-0.287
-0.282
-0.2795
-0.279
-0.284
-0.2885
-0.285
-0.2925
-0.2905
-0.2815
-0.278
-0.282
-0.286
-0.2895
-0.297
-0.301
-0.2985
-0.2945
-0.3
-0.3055
-0.3035
-0.2965
-0.2895
-0.2795
-0.281
-0.2895
-0.2885
-0.2905
-0.292
-0.291
-0.2935
-0.3015
-0.3025
-0.301
-0.2985
-0.2925
-0.295
-0.2945
-0.2955
-0.298
-0.2945
-0.2945
-0.2955
-0.2935
-0.2905
-0.295
-0.2985
-0.2925
-0.2935
-0.2935
-0.288
-0.2915
-0.291
-0.2895
-0.288
-0.286
-0.2865
-0.288
-0.295
-0.296
-0.293
-0.292
-0.295
-0.291
-0.2845
-0.2875
-0.2875
-0.292
-0.2895
-0.2835
-0.293
-0.2995
-0.2945
-0.2915
-0.292
-0.2915
-0.292
-0.29
-0.288
-0.2925
-0.292
-0.2855
-0.288
-0.286
-0.286
-0.294
-0.2935
-0.294
-0.2875
-0.283
-0.2895
-0.29
-0.296
-0.3025
-0.299
-0.2925
-0.2875
-0.29
-0.295
-0.3015
-0.306
-0.302
-0.2945
-0.2915
-0.2885
-0.287
-0.2885
-0.2905
-0.2925
-0.2895
-0.2895
-0.297
-0.3005
-0.3005
-0.301
-0.302
-0.298
-0.298
-0.3025
-0.307
-0.3095
-0.301
-0.298
-0.3005
-0.3015
-0.2935
-0.288
-0.29
-0.289
-0.2905
-0.2895
-0.2955
-0.2995
-0.3035
-0.3045
-0.3015
-0.3045
-0.3035
-0.308
-0.3055
-0.3025
-0.299
-0.2935
-0.2905
-0.2875
-0.2875
-0.2855
-0.284
-0.281
-0.281
-0.2885
-0.294
-0.2975
-0.303
-0.3
-0.295
-0.292
-0.2885
-0.2885
-0.2875
-0.2945
-0.293
-0.293
-0.2925
-0.289
-0.2945
-0.2895
-0.2875
-0.289
-0.2885
-0.2835
-0.2885
-0.295
-0.2895
-0.282
-0.278
-0.281
-0.282
-0.292
-0.296
-0.293
-0.284
-0.276
-0.276
-0.2755
-0.2785
-0.277
-0.274
-0.2665
-0.261
-0.2605
-0.26
-0.2635
-0.262
-0.257
-0.253
-0.2495
-0.244
-0.2485
-0.2505
-0.249
-0.2535
-0.251
-0.2475
-0.25
-0.259
-0.259
-0.2545
-0.251
-0.2435
-0.2435
-0.2435
-0.24
-0.2375
-0.2365
-0.234
-0.237
-0.24
-0.2435
-0.246
-0.2425
-0.2415
-0.2355
-0.232
-0.2365
-0.24
-0.241
-0.2405
-0.2395
-0.2365
-0.237
-0.245
-0.2545
-0.2585
-0.256
-0.255
-0.2565
-0.2495
-0.251
-0.2575
-0.2585
-0.265
-0.2675
-0.2675
-0.2685
-0.269
-0.275
-0.278
-0.278
-0.278
-0.282
-0.289
-0.2925
-0.295
-0.2905
-0.29
-0.293
-0.293
-0.296
-0.297
-0.2945
-0.2905
-0.2915
-0.29
-0.2885
-0.2965
-0.298
-0.2935
-0.289
-0.2885
-0.2855
-0.2815
-0.286
-0.2915
-0.2935
-0.289
-0.287
-0.2815
-0.2845
-0.292
-0.2915
-0.2945
-0.2995
-0.297
-0.2965
-0.299
-0.2945
-0.2945
-0.2925
-0.29
-0.2915
-0.2935
-0.3
-0.306
-0.3075
-0.3045
-0.307
-0.3105
-0.3075
-0.3085
-0.305
-0.3015
-0.308
-0.312
-0.311
-0.313
-0.319
-0.323
-0.325
-0.328
-0.3305
-0.3305
-0.325
-0.3215
-0.3085
-0.2935
-0.282
-0.262
-0.2525
-0.24
-0.2185
-0.1945
-0.167
-0.1375
-0.0895
-0.0485
-0.019
0.012
0.0415
0.085
0.1135
0.124
0.1355
0.139
0.1395
0.114
0.08
0.045
0.0075
-0.0175
-0.047
-0.0585
-0.0725
-0.099
-0.115
-0.13
-0.145
-0.1545
-0.164
-0.1845
-0.197
-0.198
-0.189
-0.183
-0.175
-0.1695
-0.1795
-0.1785
-0.1845
-0.195
-0.199
-0.201
-0.193
-0.1885
-0.1865
-0.188
-0.1965
-0.207
-0.213
-0.2165
-0.2225
-0.2345
-0.243
-0.2475
-0.25
-0.253
-0.261
-0.26
-0.264
-0.2705
-0.2715
-0.276
-0.276
-0.274
-0.2735
-0.276
-0.2795
-0.2815
-0.285
-0.283
-0.2805
-0.288
-0.295
-0.297
-0.2955
-0.2915
-0.291
-0.291
-0.2905
-0.292
-0.2925
-0.2895
-0.2845
-0.2885
-0.303
-0.306
-0.2985
-0.295
-0.291
-0.291
-0.289
-0.2875
-0.2905
-0.293
-0.295
-0.2955
-0.2995
-0.3045
-0.306
-0.306
-0.3025
-0.301
-0.303
-0.2975
-0.2995
-0.302
-0.2925
-0.2895
-0.2885
-0.289
-0.292
-0.2965
-0.3005
-0.3015
-0.2975
-0.293
-0.295
-0.2965
-0.302
-0.3085
-0.3055
-0.298
-0.293
-0.285
-0.287
-0.29
-0.287
-0.293
-0.287
-0.2835
-0.295
-0.3015
-0.3
-0.3
-0.301
-0.295
-0.2955
-0.2935
-0.2915
-0.294
-0.2965
-0.299
-0.2985
-0.294
-0.292
-0.294
-0.292
-0.2925
-0.29
-0.289
-0.2875
-0.287
-0.2865
-0.2875
-0.2875
-0.284
-0.2915
-0.297
-0.3
-0.2975
-0.2945
-0.2955
-0.294
-0.2915
-0.291
-0.292
-0.2905
-0.2895
-0.284
-0.28
-0.2795
-0.2835
-0.2835
-0.2825
-0.2865
-0.2835
-0.2845
-0.284
-0.2835
-0.288
-0.2915
-0.2915
-0.285
-0.282
-0.285
-0.2875
-0.286
-0.2845
-0.2845
-0.2765
-0.271
-0.274
-0.275
-0.276
-0.2795
-0.276
-0.276
-0.277
-0.272
-0.275
-0.2815
-0.2835
-0.281
-0.2735
-0.273
-0.279
-0.278
-0.2735
-0.268
-0.26
-0.2595
-0.2625
-0.2625
-0.265
-0.265
-0.262
-0.2635
-0.2585
-0.257
-0.257
-0.256
-0.2585
-0.255
-0.2525
-0.249
-0.2505
-0.2535
-0.2505
-0.248
-0.248
-0.2505
-0.2535
-0.2505
-0.251
-0.2535
-0.251
-0.253
-0.2525
-0.2525
-0.254
-0.2545
-0.249
-0.2395
-0.2345
-0.231
-0.2285
-0.232
-0.24
-0.238
-0.2265
-0.222
-0.228
-0.2275
-0.2275
-0.2305
-0.227
-0.2275
-0.2305
-0.2275
-0.2195
-0.214
-0.2135
-0.2125
-0.2065
-0.2005
-0.1985
-0.2055
-0.203
-0.197
-0.2
-0.1975
-0.197
-0.1935
-0.1935
-0.1965
-0.194
-0.198
-0.198
-0.1935
-0.1915
-0.1885
-0.1825
-0.1795
-0.177
-0.1755
-0.1745
-0.173
-0.174
-0.1645
-0.161
-0.165
-0.165
-0.1635
-0.1665
-0.1675
-0.1625
-0.162
-0.1625
-0.163
-0.1595
-0.1625
-0.16
-0.154
-0.15
-0.1465
-0.153
-0.155
-0.16
-0.1595
-0.1545
-0.1545
-0.1595
-0.1625
-0.1655
-0.172
-0.1675
-0.164
-0.165
-0.17
-0.1785
-0.1795
-0.1745
-0.172
-0.1725
-0.179
-0.1855
-0.1815
-0.186
-0.184
-0.1785
-0.1825
-0.186
-0.1885
-0.192
-0.1965
-0.196
-0.1975
-0.2015
-0.205
-0.213
-0.216
-0.2165
-0.2195
-0.2195
-0.218
-0.221
-0.2235
-0.2275
-0.2375
-0.24
-0.2335
-0.236
-0.236
-0.2375
-0.2385
-0.2375
-0.2435
-0.2405
-0.244
-0.2505
-0.2485
-0.245
-0.244
-0.2415
-0.244
-0.2535
-0.258
-0.262
-0.2625
-0.259
-0.2545
-0.2585
-0.2685
-0.276
-0.278
-0.278
-0.28
-0.2825
-0.2845
-0.283
-0.2785
-0.273
-0.274
-0.268
-0.264
-0.275
-0.2795
-0.2805
-0.2845
-0.285
-0.2835
-0.292
-0.296
-0.2935
-0.2955
-0.292
-0.2895
-0.2945
-0.3005
-0.2995
-0.293
-0.2885
-0.289
-0.292
-0.2935
-0.293
-0.291
-0.2915
-0.2935
-0.2935
-0.2885
-0.29
-0.2965
-0.2985
-0.2985
-0.292
-0.2975
-0.304
-0.302
-0.304
-0.3035
-0.296
-0.2895
-0.2875
-0.2935
-0.303
-0.3
-0.299
-0.3025
-0.3035
-0.302
-0.304
-0.308
-0.3085
-0.3085
-0.307
-0.305
-0.3045
-0.3105
-0.309
-0.308
-0.303
-0.298
-0.2985
-0.2965
-0.2995
-0.296
-0.2915
-0.291
-0.296
-0.3005
-0.3015
-0.306
-0.3085
-0.3005
-0.298
-0.304
-0.3055
-0.309
-0.3105
-0.309
-0.306
-0.302
-0.2985
-0.3005
-0.3065
-0.3065
-0.305
-0.3055
-0.3085
-0.3085
-0.31
-0.3145
-0.3165
-0.3175
-0.313
-0.3085
-0.312
-0.316
-0.3145
-0.3095
-0.2995
-0.3005
-0.307
-0.3095
-0.3125
-0.314
-0.3165
-0.314
-0.3145
-0.3165
-0.318
-0.3205
-0.3205
-0.3205
-0.317
-0.3165
-0.3135
-0.3125
-0.32
-0.319
-0.311
-0.311
-0.3095
-0.303
-0.3065
-0.3085
-0.3115
-0.3105
-0.3065
-0.305
-0.3075
-0.314
-0.3135
-0.313
-0.3125
-0.311
-0.3125
-0.31
-0.3145
-0.3215
-0.3155
-0.3085
-0.305
-0.3055
-0.305
-0.303
-0.306
-0.3055
-0.304
-0.3075
-0.31
-0.307
-0.3105
-0.3125
-0.309
-0.3105
-0.3135
-0.3145
-0.3145
-0.31
-0.3
-0.299
-0.299
-0.3015
-0.3055
-0.308
-0.305
-0.301
-0.303
-0.303
-0.308
-0.3085
-0.307
-0.3075
-0.307
-0.31
-0.315
-0.3185
-0.321
-0.327
-0.322
-0.3135
-0.311
-0.3095
-0.31
-0.308
-0.3065
-0.3065
-0.3025
-0.302
-0.307
-0.31
-0.316
-0.3145
-0.304
-0.3
-0.3045
-0.311
-0.3185
-0.3225
-0.317
-0.312
-0.3035
-0.305
-0.3135
-0.309
-0.31
-0.3105
-0.3085
-0.3135
-0.3185
-0.318
-0.3155
-0.3115
-0.308
-0.3085
-0.3055
-0.3065
-0.316
-0.32
-0.3165
-0.314
-0.3095
-0.307
-0.308
-0.3035
-0.3035
-0.303
-0.2995
-0.2995
-0.3095
-0.3145
-0.313
-0.3145
-0.3065
-0.3015
-0.3005
-0.3025
-0.3075
-0.3085
-0.303
-0.2945
-0.2895
-0.295
-0.301
-0.3005
-0.303
-0.3015
-0.2915
-0.29
-0.3035
-0.31
-0.3055
-0.304
-0.302
-0.2985
-0.301
-0.3045
-0.305
-0.3075
-0.3085
-0.3085
-0.3065
-0.3015
-0.301
-0.298
-0.297
-0.2965
-0.2935
-0.293
-0.3
-0.3065
-0.3085
-0.312
-0.308
-0.303
-0.303
-0.3055
-0.3095
-0.309
-0.303
-0.2985
-0.2995
-0.3
-0.3015
-0.301
-0.299
-0.2965
-0.2965
-0.2965
-0.2975
-0.305
-0.3035
-0.299
-0.297
-0.298
-0.299
-0.3005
-0.3015
-0.301
-0.3015
-0.301
-0.3025
-0.2995
-0.294
-0.294
-0.2955
-0.296
-0.294
-0.2945
-0.296
-0.2995
-0.311
-0.3105
-0.308
-0.3095
-0.3035
-0.303
-0.303
-0.301
-0.2995
-0.294
-0.291
-0.293
-0.2965
-0.2985
-0.299
-0.2985
-0.2945
-0.291
-0.295
-0.2995
-0.303
-0.2995
-0.2975
-0.296
-0.2955
-0.3035
-0.304
-0.3015
-0.297
-0.2955
-0.293
-0.293
-0.299
-0.2985
-0.2995
-0.2995
-0.2965
-0.2915
-0.2965
-0.3035
-0.3125
-0.3155
-0.3085
-0.3135
-0.3175
-0.3155
-0.3125
-0.3105
-0.307
-0.3015
-0.297
-0.298
-0.302
-0.3025
-0.299
-0.295
-0.296
-0.303
-0.3125
-0.31
-0.3145
-0.3135
-0.306
-0.3035
-0.302
-0.312
-0.3175
-0.3185
-0.3125
-0.3095
-0.3105
-0.308
-0.311
-0.3085
-0.3095
-0.3085
-0.3055
-0.306
-0.3035
-0.3
-0.3025
-0.3095
-0.3075
-0.3105
-0.3095
-0.3025
-0.3015
-0.3015
-0.3055
-0.309
-0.307
-0.305
-0.304
-0.2995
-0.3
-0.2965
-0.293
-0.294
-0.297
-0.2965
-0.2995
-0.309
-0.303
-0.3005
-0.3045
-0.305
-0.304
-0.307
-0.3025
-0.295
-0.2945
-0.296
-0.301
-0.301
-0.306
-0.3045
-0.2965
-0.295
-0.2965
-0.3015
-0.308
-0.3145
-0.3095
-0.31
-0.3145
-0.3115
-0.3105
-0.307
-0.305
-0.301
-0.2955
-0.295
-0.2985
-0.301
-0.304
-0.3015
-0.298
-0.3015
-0.3055
-0.31
-0.316
-0.3175
-0.318
-0.319
-0.316
-0.312
-0.3075
-0.311
-0.3115
-0.309
-0.308
-0.307
-0.3075
-0.3065
-0.306
-0.3055
-0.308
-0.303
-0.3025
-0.308
-0.3135
-0.3175
-0.317
-0.3155
-0.3145
-0.318
-0.3185
-0.3165
-0.3155
-0.315
-0.313
-0.3115
-0.313
-0.3125
-0.312
-0.308
-0.3045
-0.3065
-0.3115
-0.3115
-0.3145
-0.3185
-0.315
-0.3115
-0.306
-0.308
-0.3095
-0.3055
-0.3035
-0.3005
-0.3005
-0.3055
-0.3085
-0.306
-0.3045
-0.3055
-0.3035
-0.3035
-0.308
-0.3055
-0.308
-0.3095
-0.31
-0.31
-0.3045
-0.3075
-0.307
-0.306
-0.3035
-0.297
-0.292
-0.288
-0.2875
-0.283
-0.2815
-0.2785
-0.2745
-0.2735
-0.274
-0.272
-0.2725
-0.279
-0.2815
-0.282
-0.2795
-0.276
-0.2765
-0.2795
-0.2775
-0.2705
-0.2645
-0.2665
-0.27
-0.2615
-0.257
-0.255
-0.2485
-0.249
-0.256
-0.257
-0.258
-0.264
-0.2625
-0.266
-0.266
-0.2605
-0.257
-0.2555
-0.2605
-0.2675
-0.267
-0.264
-0.265
-0.2675
-0.273
-0.2775
-0.279
-0.277
-0.282
-0.2795
-0.2715
-0.274
-0.2765
-0.2885
-0.294
-0.296
-0.3095
-0.3095
-0.305
-0.311
-0.3115
-0.3125
-0.318
-0.32
-0.318
-0.308
-0.3045
-0.3045
-0.306
-0.3105
-0.3115
-0.313
-0.3125
-0.3175
-0.318
-0.316
-0.3165
-0.3135
-0.312
-0.31
-0.3055
-0.303
-0.302
-0.306
-0.308
-0.3015
-0.308
-0.316
-0.3155
-0.3125
-0.315
-0.316
-0.311
-0.317
-0.3205
-0.321
-0.3195
-0.314
-0.309
-0.3045
-0.3045
-0.312
-0.324
-0.323
-0.319
-0.315
-0.312
-0.317
-0.3195
-0.3175
-0.3215
-0.325
-0.319
-0.318
-0.322
-0.3315
-0.3395
-0.3395
-0.334
-0.3345
-0.336
-0.336
-0.344
-0.349
-0.354
-0.348
-0.3385
-0.331
-0.321
-0.3115
-0.296
-0.2775
-0.262
-0.2445
-0.2295
-0.2065
-0.1715
-0.1385
-0.088
-0.0465
-0.0155
0.0115
0.0395
0.0885
0.117
0.1335
0.14
0.14
0.128
0.0905
0.0515
0.011
-0.0135
-0.0405
-0.0715
-0.089
-0.1085
-0.1255
-0.14
-0.149
-0.1635
-0.1805
-0.191
-0.2005
-0.2085
-0.2115
-0.206
-0.203
-0.203
-0.204
-0.2115
-0.2155
-0.2195
-0.2245
-0.229
-0.2325
-0.229
-0.2255
-0.2195
-0.22
-0.227
-0.235
-0.251
-0.256
-0.2555
-0.2585
-0.2605
-0.2655
-0.2795
-0.287
-0.2895
-0.292
-0.2915
-0.2925
-0.2965
-0.305
-0.306
-0.304
-0.3035
-0.3005
-0.298
-0.3005
-0.305
-0.305
-0.305
-0.3035
-0.301
-0.3
-0.3005
-0.303
-0.3125
-0.3215
-0.3225
-0.324
-0.3245
-0.322
-0.3205
-0.3165
-0.3105
-0.306
-0.303
-0.306
-0.3115
-0.312
-0.315
-0.3155
-0.3155
-0.3175
-0.316
-0.3175
-0.324
-0.326
-0.325
-0.327
-0.325
-0.3265
-0.33
-0.3255
-0.3195
-0.3155
-0.3145
-0.315
-0.314
-0.31
-0.3125
-0.313
-0.307
-0.306
-0.3115
-0.3155
-0.3205
-0.3225
-0.3195
-0.3235
-0.322
-0.3225
-0.3275
-0.3235
-0.313
-0.3065
-0.3045
-0.31
-0.319
-0.3185
-0.316
-0.311
-0.3085
-0.309
-0.3105
-0.317
-0.32
-0.316
-0.3115
-0.3115
-0.3115
-0.312
-0.315
-0.315
-0.3105
-0.313
-0.311
-0.303
-0.3015
-0.299
-0.3
-0.302
-0.3
-0.2995
-0.299
-0.298
-0.3005
-0.3
-0.2985
-0.3005
-0.303
-0.308
-0.309
-0.3115
-0.3115
-0.307
-0.3005
-0.2995
-0.3035
-0.3005
-0.2985
-0.2965
-0.29
-0.2885
-0.291
-0.291
-0.295
-0.2985
-0.2965
-0.2925
-0.2915
-0.2945
-0.296
-0.3005
-0.2955
-0.2905
-0.2885
-0.282
-0.2865
-0.2895
-0.2885
-0.2845
-0.2795
-0.281
-0.282
-0.284
-0.2855
-0.282
-0.2785
-0.279
-0.2835
-0.29
-0.2905
-0.2945
-0.2975
-0.2925
-0.2865
-0.2785
-0.283
-0.287
-0.283
-0.2785
-0.272
-0.272
-0.271
-0.2705
-0.2775
-0.2805
-0.28
-0.2775
-0.2715
-0.268
-0.269
-0.271
-0.267
-0.2635
-0.2625
-0.258
-0.257
-0.262
-0.262
-0.2585
-0.2625
-0.2575
-0.254
-0.2565
-0.257
-0.2565
-0.2495
-0.2505
-0.253
-0.2555
-0.2575
-0.258
-0.257
-0.2505
-0.2445
-0.239
-0.234
-0.237
-0.241
-0.2345
-0.2305
-0.2305
-0.232
-0.231
-0.232
-0.2325
-0.229
-0.2285
-0.2255
-0.2275
-0.2265
-0.2215
-0.2195
-0.2205
-0.2175
-0.21
-0.2035
-0.2
-0.201
-0.1985
-0.193
-0.1885
-0.1935
-0.195
-0.1915
-0.1915
-0.1845
-0.178
-0.184
-0.1895
-0.1895
-0.1905
-0.1895
-0.19
-0.1865
-0.1805
-0.1795
-0.1765
-0.176
-0.171
-0.1655
-0.165
-0.1685
-0.171
-0.1765
-0.178
-0.168
-0.163
-0.162
-0.1655
-0.1705
-0.172
-0.171
-0.173
-0.1735
-0.1675
-0.168
-0.17
-0.1695
-0.1655
-0.1605
-0.159
-0.1685
-0.1765
-0.18
-0.182
-0.1785
-0.178
-0.1785
-0.183
-0.187
-0.19
-0.184
-0.1835
-0.184
-0.1825
-0.19
-0.194
-0.1975
-0.1945
-0.1915
-0.195
-0.203
-0.206
-0.2085
-0.2165
-0.2135
-0.2145
-0.219
-0.2235
-0.227
-0.2295
-0.234
-0.2385
-0.237
-0.236
-0.238
-0.236
-0.242
-0.245
-0.2395
-0.233
-0.237
-0.246
-0.251
-0.254
-0.2555
-0.265
-0.2685
-0.2655
-0.2665
-0.2685
-0.2675
-0.2685
-0.271
-0.272
-0.276
-0.278
-0.278
-0.2765
-0.274
-0.276
-0.2805
-0.2825
-0.284
-0.287
-0.285
-0.2885
-0.294
-0.2925
-0.294
-0.2985
-0.2965
-0.292
-0.29
-0.2855
-0.285
-0.2795
-0.2835
-0.289
-0.2825
-0.282
-0.287
-0.293
-0.2955
-0.297
-0.2985
-0.3025
-0.3035
-0.298
-0.293
-0.295
-0.2955
-0.2975
-0.301
-0.2995
-0.3005
-0.2995
-0.3005
-0.302
-0.3015
-0.306
-0.311
-0.3115
-0.311
-0.311
-0.309
-0.3105
-0.3105
-0.306
-0.308
-0.3095
-0.301
-0.2985
-0.3025
-0.3005
-0.303
-0.3035
-0.3015
-0.2995
-0.295
-0.2955
-0.301
-0.302
-0.301
-0.305
-0.2995
-0.303
-0.308
-0.3045
-0.305
-0.3045
-0.302
-0.301
-0.301
-0.3025
-0.305
-0.3015
-0.298
-0.296
-0.294
-0.296
-0.3
-0.3005
-0.3045
-0.311
-0.309
-0.307
-0.3105
-0.3145
-0.3165
-0.314
-0.3105
-0.3085
-0.301
-0.3005
-0.3055
-0.3045
-0.3055
-0.3035
-0.2995
-0.297
-0.302
-0.3085
-0.311
-0.313
-0.308
-0.3105
-0.312
-0.3085
-0.309
-0.3075
-0.3065
-0.3025
-0.301
-0.303
-0.3045
-0.3055
-0.3045
-0.301
-0.299
-0.3005
-0.308
-0.31
-0.3105
-0.3095
-0.304
-0.3085
-0.312
-0.3145
-0.3165
-0.315
-0.3165
-0.317
-0.3095
-0.3095
-0.3155
-0.316
-0.318
-0.315
-0.3085
-0.3055
-0.307
-0.308
-0.3155
-0.3195
-0.313
-0.314
-0.3195
-0.3215
-0.322
-0.3215
-0.316
-0.3135
-0.3115
-0.314
-0.3205
-0.317
-0.313
-0.314
-0.3145
-0.3155
-0.321
-0.3225
-0.314
-0.3145
-0.3215
-0.325
-0.3235
-0.323
-0.326
-0.3245
-0.319
-0.315
-0.312
-0.3075
-0.315
-0.3175
-0.3155
-0.316
-0.3115
-0.311
-0.312
-0.3115
-0.314
-0.3115
-0.308
-0.31
-0.312
-0.316
-0.3195
-0.3245
-0.3245
-0.316
-0.3115
-0.3085
-0.311
-0.312
-0.3145
-0.3195
-0.318
-0.3145
-0.317
-0.317
-0.3165
-0.319
-0.319
-0.3225
-0.3175
-0.313
-0.3155
-0.3155
-0.3145
-0.3115
-0.3125
-0.312
-0.314
-0.32
-0.3185
-0.314
-0.31
-0.3095
-0.315
-0.312
-0.3135
-0.319
-0.3175
-0.32
-0.323
-0.325
-0.3245
-0.325
-0.3245
-0.3165
-0.3125
-0.311
-0.319
-0.3215
-0.3165
-0.3155
-0.3105
-0.3085
-0.3145
-0.32
-0.3225
-0.321
-0.32
-0.3205
-0.3175
-0.3145
-0.3165
-0.3175
-0.3135
-0.311
-0.3085
-0.3075
-0.308
-0.312
-0.3175
-0.312
-0.306
-0.31
-0.3175
-0.3215
-0.322
-0.3225
-0.3185
-0.317
-0.3135
-0.3135
-0.318
-0.317
-0.3125
-0.311
-0.3115
-0.312
-0.3145
-0.3125
-0.3125
-0.3105
-0.3065
-0.3055
-0.304
-0.3065
-0.3115
-0.316
-0.3135
-0.3115
-0.311
-0.311
-0.314
-0.3155
-0.3155
-0.313
-0.313
-0.307
-0.3055
-0.313
-0.3175
-0.3135
-0.307
-0.3005
-0.301
-0.307
-0.3105
-0.315
-0.3145
-0.3155
-0.314
-0.314
-0.3195
-0.316
-0.3125
-0.311
-0.308
-0.3085
-0.3155
-0.313
-0.3055
-0.302
-0.2995
-0.3025
-0.3095
-0.325
-0.3325
-0.328
-0.32
-0.315
-0.316
-0.32
-0.3225
-0.3215
-0.3145
-0.3145
-0.3175
-0.315
-0.316
-0.3095
-0.308
-0.3105
-0.3055
-0.3065
-0.3125
-0.316
-0.311
-0.3125
-0.3145
-0.3125
-0.3125
-0.316
-0.318
-0.3155
-0.318
-0.3185
-0.316
-0.3155
-0.3175
-0.316
-0.3155
-0.3195
-0.318
-0.313
-0.3135
-0.312
-0.3125
-0.319
-0.317
-0.3215
-0.328
-0.324
-0.3205
-0.324
-0.3235
-0.316
-0.3095
-0.3055
-0.3115
-0.3155
-0.3145
-0.3175
-0.316
-0.3145
-0.3195
-0.3235
-0.3295
-0.3285
-0.319
-0.3175
-0.319
-0.3215
-0.3235
-0.3245
-0.3215
-0.319
-0.318
-0.321
-0.328
-0.3255
-0.325
-0.324
-0.324
-0.3255
-0.3265
-0.329
-0.3295
-0.328
-0.322
-0.3215
-0.319
-0.317
-0.3225
-0.325
-0.3245
-0.318
-0.3125
-0.314
-0.318
-0.3215
-0.3235
-0.324
-0.326
-0.329
-0.3325
-0.3315
-0.3295
-0.33
-0.3245
-0.3205
-0.321
-0.3255
-0.329
-0.3295
-0.3235
-0.3185
-0.318
-0.319
-0.325
-0.3225
-0.324
-0.3225
-0.3225
-0.3265
-0.324
-0.3245
-0.3285
-0.3305
-0.3245
-0.322
-0.3195
-0.3145
-0.3155
-0.319
-0.317
-0.317
-0.323
-0.326
-0.332
-0.329
-0.323
-0.3195
-0.3145
-0.3135
-0.3165
-0.3215
-0.3225
-0.323
-0.316
-0.316
-0.3225
-0.3255
-0.327
-0.323
-0.321
-0.32
-0.3165
-0.3145
-0.321
-0.323
-0.321
-0.3185
-0.315
-0.315
-0.3225
-0.3295
-0.329
-0.325
-0.3185
-0.3155
-0.3155
-0.3205
-0.326
-0.323
-0.3175
-0.315
-0.315
-0.3155
-0.3145
-0.3145
-0.3215
-0.322
-0.319
-0.321
-0.3215
-0.322
-0.3225
-0.3265
-0.322
-0.3165
-0.3175
-0.315
-0.3155
-0.3165
-0.318
-0.316
-0.3085
-0.3035
-0.31
-0.314
-0.3135
-0.305
-0.2965
-0.2965
-0.2935
-0.291
-0.2925
-0.295
-0.29
-0.2915
-0.2905
-0.285
-0.288
-0.2895
-0.2865
-0.282
-0.281
-0.279
-0.28
-0.282
-0.284
-0.284
-0.2805
-0.2825
-0.288
-0.29
-0.288
-0.284
-0.2745
-0.2695
-0.273
-0.2715
-0.275
-0.281
-0.2755
-0.275
-0.272
-0.2635
-0.2615
-0.264
-0.2665
-0.2695
-0.2735
-0.2715
-0.2765
-0.2805
-0.2865
-0.2935
-0.294
-0.295
-0.2905
-0.288
-0.2855
-0.2855
-0.2845
-0.285
-0.2905
-0.2955
-0.3015
-0.308
-0.315
-0.313
-0.313
-0.3185
-0.3275
-0.327
-0.3265
-0.3325
-0.332
-0.331
-0.3345
-0.341
-0.343
-0.3415
-0.3305
-0.326
-0.323
-0.3225
-0.3255
-0.3175
-0.3145
-0.3155
-0.316
-0.3165
-0.3255
-0.3285
-0.328
-0.328
-0.325
-0.3275
-0.3275
-0.3305
-0.327
-0.3255
-0.3285
-0.3295
-0.332
-0.328
-0.327
-0.325
-0.3265
-0.3295
-0.329
-0.331
-0.3345
-0.3375
-0.3365
-0.338
-0.339
-0.336
-0.336
-0.333
-0.3315
-0.337
-0.336
-0.339
-0.3385
-0.3395
-0.348
-0.3445
-0.349
-0.3515
-0.3535
-0.361
-0.37
-0.3795
-0.377
-0.374
-0.3595
-0.3395
-0.325
-0.3125
-0.296
-0.28
-0.2665
-0.249
-0.227
-0.198
-0.17
-0.1275
-0.0785
-0.0425
-0.011
0.017
0.0505
0.0775
0.101
0.1215
0.1235
0.1195
0.1
0.064
0.032
-0.003
-0.031
-0.0595
-0.0945
-0.1155
-0.137
-0.1545
-0.17
-0.1875
-0.1975
-0.2065
-0.2185
-0.2345
-0.241
-0.2415
-0.2335
-0.228
-0.2275
-0.23
-0.237
-0.239
-0.241
-0.2405
-0.243
-0.242
-0.2395
-0.241
-0.233
-0.2295
-0.2345
-0.245
-0.255
-0.2575
-0.269
-0.278
-0.2825
-0.289
-0.287
-0.2855
-0.2955
-0.311
-0.312
-0.3055
-0.304
-0.3085
-0.315
-0.314
-0.3145
-0.316
-0.31
-0.311
-0.3175
-0.3165
-0.32
-0.3215
-0.3145
-0.3155
-0.315
-0.3145
-0.317
-0.3185
-0.3185
-0.3165
-0.3175
-0.32
-0.321
-0.322
-0.3245
-0.319
-0.315
-0.319
-0.324
-0.326
-0.328
-0.33
-0.326
-0.325
-0.326
-0.331
-0.3325
-0.3305
-0.324
-0.323
-0.3265
-0.3205
-0.318
-0.3175
-0.3215
-0.325
-0.325
-0.325
-0.3275
-0.332
-0.3335
-0.331
-0.329
-0.3365
-0.3385
-0.34
-0.3445
-0.3405
-0.3385
-0.3325
-0.3285
-0.33
-0.3325
-0.33
-0.3265
-0.324
-0.32
-0.318
-0.32
-0.3225
-0.328
-0.3335
-0.329
-0.3245
-0.3245
-0.3275
-0.3255
-0.326
-0.3215
-0.319
-0.3235
-0.326
-0.332
-0.327
-0.325
-0.3225
-0.3175
-0.32
-0.324
-0.325
-0.327
-0.333
-0.328
-0.323
-0.3215
-0.323
-0.3285
-0.325
-0.3215
-0.326
-0.3245
-0.317
-0.318
-0.3175
-0.3145
-0.312
-0.3155
-0.325
-0.3265
-0.3255
-0.326
-0.328
-0.327
-0.326
-0.326
-0.3265
-0.3305
-0.3315
-0.3235
-0.3205
-0.3195
-0.3185
-0.3185
-0.322
-0.3245
-0.3235
-0.3205
-0.3115
-0.314
-0.318
-0.3215
-0.3255
-0.3245
-0.3235
-0.3165
-0.316
-0.322
-0.321
-0.3125
-0.312
-0.3095
-0.3055
-0.3105
-0.3125
-0.315
-0.312
-0.307
-0.303
-0.3035
-0.307
-0.305
-0.3025
-0.304
-0.3025
-0.303
-0.31
-0.312
-0.312
-0.3085
-0.303
-0.3005
-0.2985
-0.2965
-0.295
-0.293
-0.289
-0.286
-0.2845
-0.286
-0.285
-0.2855
-0.288
-0.2865
-0.286
-0.281
-0.2835
-0.2875
-0.2855
-0.283
-0.278
-0.2725
-0.2655
-0.266
-0.271
-0.27
-0.265
-0.2625
-0.259
-0.257
-0.263
-0.2715
-0.268
-0.2575
-0.251
-0.2475
-0.2525
-0.257
-0.2525
-0.2465
-0.2435
-0.236
-0.2365
-0.2435
-0.2365
-0.234
-0.2335
-0.2295
-0.232
-0.2315
-0.232
-0.2345
-0.225
-0.226
-0.2395
-0.2375
-0.229
-0.2275
-0.23
-0.2235
-0.2165
-0.214
-0.208
-0.209
-0.2095
-0.2115
-0.2115
-0.205
-0.2015
-0.202
-0.206
-0.207
-0.2035
-0.2005
-0.2005
-0.203
-0.2035
-0.203
-0.2035
-0.198
-0.1905
-0.1875
-0.1855
-0.189
-0.191
-0.197
-0.1975
-0.194
-0.191
-0.1895
-0.195
-0.1965
-0.1985
-0.1955
-0.205
-0.2115
-0.2055
-0.2065
-0.2065
-0.2045
-0.203
-0.2005
-0.202
-0.2085
-0.2145
-0.2175
-0.213
-0.2145
-0.217
-0.219
-0.226
-0.2265
-0.23
-0.233
-0.2365
-0.24
-0.2405
-0.246
-0.251
-0.248
-0.246
-0.246
-0.2475
-0.2495
-0.254
-0.262
-0.2575
-0.256
-0.262
-0.2695
-0.2775
-0.2785
-0.281
-0.278
-0.2785
-0.2855
-0.288
-0.288
-0.2895
-0.2905
-0.29
-0.2915
-0.2915
-0.292
-0.294
-0.296
-0.2945
-0.2955
-0.2945
-0.2955
-0.298
-0.303
-0.304
-0.3005
-0.304
-0.3095
-0.311
-0.3085
-0.309
-0.3025
-0.299
-0.301
-0.305
-0.309
-0.31
-0.3135
-0.3125
-0.3115
-0.31
-0.312
-0.311
-0.312
-0.319
-0.321
-0.3225
-0.323
-0.325
-0.3255
-0.3255
-0.321
-0.316
-0.313
-0.3105
-0.317
-0.323
-0.3285
-0.3235
-0.313
-0.31
-0.313
-0.3185
-0.3265
-0.3265
-0.3175
-0.319
-0.3235
-0.3275
-0.326
-0.318
-0.316
-0.312
-0.3055
-0.306
-0.312
-0.3145
-0.316
-0.3155
-0.3165
-0.317
-0.319
-0.3245
-0.333
-0.3315
-0.3175
-0.32
-0.3225
-0.326
-0.331
-0.327
-0.322
-0.3165
-0.315
-0.317
-0.324
-0.326
-0.327
-0.326
-0.325
-0.3255
-0.327
-0.326
-0.3255
-0.3335
-0.3335
-0.33
-0.328
-0.3315
-0.3355
-0.3365
-0.3335
-0.3285
-0.331
-0.3275
-0.325
-0.3265
-0.3255
-0.322
-0.318
-0.3175
-0.324
-0.329
-0.328
-0.3275
-0.3245
-0.3255
-0.325
-0.328
-0.335
-0.3345
-0.327
-0.3195
-0.318
-0.3225
-0.324
-0.325
-0.328
-0.321
-0.3195
-0.325
-0.3255
-0.3255
-0.33
-0.332
-0.3255
-0.3225
-0.321
-0.3245
-0.3335
-0.3355
-0.3265
-0.3225
-0.32
-0.3185
-0.3225
-0.3255
-0.324
-0.3195
-0.3235
-0.326
-0.3255
-0.325
-0.3245
-0.3295
-0.3265
-0.325
-0.3325
-0.338
-0.3355
-0.3355
-0.33
-0.3215
-0.3225
-0.3195
-0.319
-0.321
-0.3225
-0.322
-0.3165
-0.314
-0.317
-0.3215
-0.3225
-0.3235
-0.318
-0.3175
-0.323
-0.3255
-0.3315
-0.333
-0.325
-0.32
-0.32
-0.32
-0.322
-0.3275
-0.331
-0.3275
-0.3245
-0.318
-0.323
-0.327
-0.323
-0.327
-0.3285
-0.3285
-0.328
-0.3275
-0.332
-0.3345
-0.327
-0.324
-0.3205
-0.3205
-0.3225
-0.315
-0.3105
-0.309
-0.3075
-0.3075
-0.313
-0.3145
-0.3125
-0.3185
-0.322
-0.3215
-0.321
-0.3225
-0.325
-0.326
-0.322
-0.319
-0.3165
-0.318
-0.3205
-0.318
-0.317
-0.3165
-0.3135
-0.3125
-0.3155
-0.315
-0.3165
-0.3215
-0.3175
-0.3155
-0.313
-0.3115
-0.3165
-0.317
-0.316
-0.315
-0.3105
-0.3105
-0.315
-0.318
-0.318
-0.3115
-0.3115
-0.3115
-0.315
-0.321
-0.3175
-0.316
-0.315
-0.319
-0.322
-0.32
-0.3205
-0.3245
-0.3245
-0.32
-0.3165
-0.313
-0.3135
-0.3115
-0.308
-0.309
-0.31
-0.31
-0.316
-0.3205
-0.323
-0.3245
-0.3205
-0.3205
-0.321
-0.321
-0.322
-0.324
-0.326
-0.329
-0.3275
-0.325
-0.329
-0.3305
-0.333
-0.33
-0.326
-0.323
-0.3215
-0.328
-0.3295
-0.3285
-0.3285
-0.328
-0.322
-0.3305
-0.3405
-0.339
-0.339
-0.3315
-0.3255
-0.322
-0.327
-0.327
-0.322
-0.326
-0.328
-0.33
-0.3265
-0.326
-0.333
-0.332
-0.327
-0.3275
-0.328
-0.3315
-0.337
-0.3355
-0.3305
-0.3315
-0.3275
-0.3205
-0.322
-0.322
-0.3255
-0.326
-0.3215
-0.3225
-0.3275
-0.3315
-0.3355
-0.3395
-0.336
-0.334
-0.333
-0.337
-0.3415
-0.341
-0.3355
-0.329
-0.326
-0.3225
-0.3255
-0.3255
-0.328
-0.332
-0.326
-0.326
-0.3315
-0.332
-0.3355
-0.3375
-0.3345
-0.339
-0.336
-0.3335
-0.335
-0.332
-0.331
-0.3325
-0.3295
-0.324
-0.329
-0.3285
-0.325
-0.3235
-0.321
-0.318
-0.3225
-0.328
-0.3275
-0.326
-0.322
-0.324
-0.333
-0.338
-0.339
-0.339
-0.333
-0.3295
-0.327
-0.3195
-0.3205
-0.318
-0.3175
-0.3255
-0.3225
-0.3185
-0.321
-0.323
-0.328
-0.3295
-0.328
-0.334
-0.341
-0.343
-0.3415
-0.339
-0.33
-0.326
-0.3275
-0.326
-0.332
-0.3305
-0.3285
-0.332
-0.3265
-0.3225
-0.3225
-0.322
-0.3225
-0.3285
-0.327
-0.3255
-0.329
-0.332
-0.331
-0.325
-0.322
-0.3205
-0.3245
-0.3265
-0.3305
-0.3335
-0.3255
-0.324
-0.319
-0.3195
-0.325
-0.3195
-0.3245
-0.33
-0.325
-0.3195
-0.3205
-0.3285
-0.3335
-0.328
-0.319
-0.319
-0.321
-0.3225
-0.322
-0.32
-0.318
-0.3145
-0.3125
-0.3125
-0.3165
-0.32
-0.323
-0.324
-0.32
-0.318
-0.319
-0.3195
-0.32
-0.321
-0.3185
-0.3115
-0.318
-0.3275
-0.3255
-0.3225
-0.322
-0.3175
-0.316
-0.318
-0.3195
-0.3235
-0.3225
-0.322
-0.3185
-0.3185
-0.3225
-0.3255
-0.3325
-0.335
-0.3295
-0.32
-0.316
-0.32
-0.322
-0.321
-0.3225
-0.324
-0.3195
-0.3155
-0.3215
-0.324
-0.331
-0.3355
-0.3305
-0.3295
-0.328
-0.3335
-0.3355
-0.3305
-0.3245
-0.3195
-0.318
-0.323
-0.3265
-0.3235
-0.3285
-0.3285
-0.3265
-0.3265
-0.3305
-0.3315
-0.3325
-0.3325
-0.3275
-0.337
-0.3385
-0.333
-0.3325
-0.3335
-0.3275
-0.3255
-0.3235
-0.32
-0.33
-0.33
-0.333
-0.3365
-0.332
-0.324
-0.318
-0.324
-0.3265
-0.325
-0.323
-0.3285
-0.331
-0.3325
-0.336
-0.3285
-0.3215
-0.322
-0.321
-0.319
-0.323
-0.3195
-0.3125
-0.3055
-0.3025
-0.3035
-0.299
-0.295
-0.296
-0.2935
-0.2875
-0.289
-0.2905
-0.2965
-0.2985
-0.2955
-0.294
-0.291
-0.287
-0.284
-0.2925
-0.292
-0.286
-0.2845
-0.282
-0.2765
-0.2715
-0.2725
-0.2705
-0.2725
-0.272
-0.272
-0.2745
-0.2775
-0.2825
-0.2805
-0.275
-0.271
-0.266
-0.2645
-0.272
-0.275
-0.2765
-0.2755
-0.275
-0.28
-0.2895
-0.295
-0.298
-0.2995
-0.289
-0.2815
-0.278
-0.2815
-0.292
-0.3055
-0.31
-0.31
-0.31
-0.3085
-0.32
-0.3255
-0.328
-0.3315
-0.325
-0.3215
-0.324
-0.3265
-0.3295
-0.332
-0.3275
-0.325
-0.326
-0.327
-0.332
-0.332
-0.33
-0.3285
-0.326
-0.325
-0.329
-0.332
-0.3275
-0.328
-0.3235
-0.321
-0.329
-0.3265
-0.3235
-0.326
-0.3255
-0.329
-0.3305
-0.328
-0.3255
-0.3265
-0.3295
-0.3345
-0.33
-0.327
-0.3335
-0.3365
-0.3395
-0.3375
-0.3315
-0.332
-0.3345
-0.336
-0.3405
-0.3465
-0.347
-0.3405
-0.339
-0.3385
-0.3415
-0.3475
-0.3485
-0.357
-0.359
-0.3525
-0.355
-0.3605
-0.367
-0.372
-0.371
-0.3665
-0.3615
-0.358
-0.354
-0.344
-0.3295
-0.317
-0.2975
-0.279
-0.267
-0.2435
-0.2155
-0.187
-0.152
-0.103
-0.0625
-0.0315
-0.0055
0.0205
0.0635
0.098
0.1205
0.131
0.1305
0.118
0.0855
0.0485
0.02
-0.005
-0.036
-0.0715
-0.0965
-0.113
-0.126
-0.1395
-0.1615
-0.186
-0.201
-0.206
-0.2155
-0.229
-0.2395
-0.2425
-0.235
-0.2285
-0.225
-0.2285
-0.23
-0.239
-0.252
-0.2515
-0.2435
-0.234
-0.2335
-0.2305
-0.2335
-0.2385
-0.246
-0.261
-0.264
-0.2685
-0.271
-0.271
-0.2825
-0.293
-0.2925
-0.2915
-0.2935
-0.301
-0.31
-0.3145
-0.316
-0.314
-0.312
-0.314
-0.316
-0.3145
-0.3165
-0.322
-0.3155
-0.312
-0.3165
-0.316
-0.3225
-0.3285
-0.3235
-0.324
-0.3285
-0.326
-0.3295
-0.3305
-0.325
-0.323
-0.318
-0.315
-0.319
-0.318
-0.3175
-0.324
-0.322
-0.319
-0.3255
-0.3215
-0.317
-0.3205
-0.3185
-0.322
-0.325
-0.326
-0.3285
-0.3295
-0.3275
-0.3225
-0.315
-0.3095
-0.318
-0.3215
-0.323
-0.3315
-0.335
-0.332
-0.332
-0.3325
-0.33
-0.3285
-0.3275
-0.329
-0.328
-0.324
-0.32
-0.319
-0.3175
-0.314
-0.312
-0.312
-0.3145
-0.3155
-0.313
-0.311
-0.3125
-0.3115
-0.3125
-0.317
-0.3195
-0.3215
-0.323
-0.329
-0.3295
-0.325
-0.328
-0.3285
-0.3235
-0.32
-0.317
-0.314
-0.313
-0.3105
-0.3095
-0.309
-0.3105
-0.3105
-0.312
-0.3135
-0.312
-0.311
-0.3115
-0.316
-0.3135
-0.317
-0.322
-0.319
-0.313
-0.309
-0.31
-0.3095
-0.309
-0.3065
-0.3085
-0.306
-0.306
-0.308
-0.3065
-0.3105
-0.316
-0.3145
-0.307
-0.3065
-0.3075
-0.311
-0.315
-0.317
-0.3165
-0.3105
-0.305
-0.3005
-0.299
-0.2995
-0.3005
-0.3
-0.299
-0.2995
-0.303
-0.3085
-0.309
-0.3115
-0.312
-0.3075
-0.302
-0.3025
-0.303
-0.3015
-0.301
-0.2985
-0.297
-0.2915
-0.2925
-0.2895
-0.2855
-0.2945
-0.302
-0.295
-0.2875
-0.289
-0.293
-0.297
-0.2935
-0.2945
-0.2935
-0.289
-0.287
-0.2845
-0.2815
-0.281
-0.2805
-0.276
-0.2775
-0.2735
-0.268
-0.271
-0.27
-0.267
-0.2715
-0.2685
-0.265
-0.273
-0.2755
-0.2765
-0.2765
-0.271
-0.2715
-0.2705
-0.263
-0.26
-0.2565
-0.2535
-0.2535
-0.251
-0.25
-0.246
-0.24
-0.2445
-0.2495
-0.2445
-0.246
-0.2465
-0.237
-0.2315
-0.2305
-0.234
-0.236
-0.233
-0.2255
-0.2205
-0.2155
-0.2075
-0.2095
-0.2075
-0.2055
-0.2045
-0.203
-0.208
-0.2115
-0.2105
-0.212
-0.2145
-0.213
-0.2105
-0.2085
-0.207
-0.2065
-0.2075
-0.203
-0.1945
-0.192
-0.1905
-0.1895
-0.1895
-0.19
-0.1895
-0.187
-0.1815
-0.178
-0.18
-0.183
-0.1805
-0.172
-0.171
-0.17
-0.178
-0.179
-0.177
-0.183
-0.181
-0.1695
-0.163
-0.1655
-0.1645
-0.1685
-0.171
-0.1725
-0.175
-0.1795
-0.1825
-0.178
-0.1795
-0.179
-0.179
-0.178
-0.1785
-0.186
-0.1905
-0.1885
-0.192
-0.1945
-0.19
-0.1945
-0.1975
-0.1995
-0.2
-0.1965
-0.189
-0.19
-0.2015
-0.209
-0.211
-0.209
-0.212
-0.2135
-0.22
-0.2285
-0.2305
-0.2285
-0.224
-0.223
-0.225
-0.2305
-0.233
-0.236
-0.2345
-0.2345
-0.239
-0.246
-0.2535
-0.2525
-0.254
-0.253
-0.257
-0.262
-0.259
-0.2605
-0.265
-0.262
-0.2645
-0.275
-0.2755
-0.275
-0.2745
-0.2745
-0.2775
-0.2805
-0.2815
-0.2845
-0.29
-0.292
-0.291
-0.2885
-0.288
-0.29
-0.2935
-0.2985
-0.3005
-0.297
-0.292
-0.2915
-0.293
-0.296
-0.2975
-0.299
-0.301
-0.296
-0.292
-0.2965
-0.3025
-0.3055
-0.302
-0.2985
-0.299
-0.2975
-0.3
-0.305
-0.3085
-0.303
-0.3
-0.3015
-0.301
-0.305
-0.304
-0.3055
-0.303
-0.3005
-0.3085
-0.3095
-0.314
-0.321
-0.3165
-0.3105
-0.308
-0.313
-0.3155
-0.318
-0.3235
-0.32
-0.315
-0.3075
-0.301
-0.302
-0.3015
-0.302
-0.304
-0.305
-0.3085
-0.3105
-0.3135
-0.3195
-0.32
-0.316
-0.3165
-0.318
-0.318
-0.3195
-0.319
-0.316
-0.315
-0.312
-0.3125
-0.3155
-0.3145
-0.3175
-0.3165
-0.312
-0.3115
-0.3155
-0.32
-0.326
-0.3325
-0.329
-0.3235
-0.3215
-0.3255
-0.3295
-0.3285
-0.321
-0.3165
-0.317
-0.319
-0.323
-0.3195
-0.3185
-0.32
-0.311
-0.3055
-0.316
-0.3215
-0.324
-0.33
-0.326
-0.3195
-0.319
-0.3185
-0.321
-0.3215
-0.318
-0.319
-0.317
-0.316
-0.3175
-0.313
-0.3145
-0.315
-0.313
-0.3155
-0.322
-0.3275
-0.3265
-0.328
-0.3255
-0.323
-0.3245
-0.3275
-0.328
-0.324
-0.322
-0.321
-0.318
-0.3165
-0.318
-0.3195
-0.3215
-0.3225
-0.329
-0.331
-0.3265
-0.326
-0.3285
-0.3295
-0.3205
-0.321
-0.3255
-0.327
-0.326
-0.327
-0.331
-0.3295
-0.3225
-0.3155
-0.314
-0.318
-0.3245
-0.3235
-0.3205
-0.319
-0.322
-0.3285
-0.3345
-0.338
-0.334
-0.332
-0.3295
-0.3305
-0.3335
-0.332
-0.328
-0.3255
-0.3265
-0.325
-0.325
-0.3285
-0.327
-0.3255
-0.326
-0.323
-0.326
-0.3285
-0.325
-0.3255
-0.3225
-0.3195
-0.3195
-0.3175
-0.3245
-0.334
-0.331
-0.3235
-0.3165
-0.3165
-0.3205
-0.322
-0.3245
-0.324
-0.319
-0.318
-0.3215
-0.32
-0.3235
-0.329
-0.3245
-0.319
-0.3185
-0.323
-0.3265
-0.329
-0.3245
-0.321
-0.321
-0.319
-0.322
-0.322
-0.32
-0.317
-0.316
-0.316
-0.3155
-0.315
-0.3185
-0.32
-0.321
-0.321
-0.32
-0.322
-0.3225
-0.325
-0.3245
-0.3245
-0.318
-0.3155
-0.3225
-0.3195
-0.3165
-0.311
-0.3055
-0.3055
-0.311
-0.3145
-0.3155
-0.3175
-0.321
-0.3255
-0.322
-0.321
-0.322
-0.3225
-0.323
-0.322
-0.3185
-0.317
-0.323
-0.319
-0.3125
-0.3075
-0.3015
-0.301
-0.303
-0.3075
-0.316
-0.319
-0.3185
-0.324
-0.319
-0.3155
-0.3175
-0.3145
-0.3135
-0.3155
-0.3115
-0.3115
-0.3125
-0.3065
-0.307
-0.3125
-0.314
-0.305
-0.3095
-0.3115
-0.31
-0.309
-0.3045
-0.314
-0.318
-0.3205
-0.3255
-0.323
-0.3125
-0.3035
-0.3
-0.2995
-0.3025
-0.3025
-0.308
-0.3075
-0.305
-0.308
-0.3105
-0.315
-0.3215
-0.3265
-0.322
-0.325
-0.3235
-0.3165
-0.3165
-0.3185
-0.321
-0.3165
-0.3105
-0.3105
-0.312
-0.3105
-0.311
-0.3065
-0.304
-0.305
-0.3045
-0.307
-0.3095
-0.312
-0.3085
-0.3095
-0.3105
-0.3105
-0.314
-0.3135
-0.311
-0.308
-0.3035
-0.303
-0.3065
-0.3085
-0.313
-0.3125
-0.306
-0.3075
-0.309
-0.3095
-0.313
-0.313
-0.3125
-0.3145
-0.316
-0.315
-0.312
-0.3075
-0.305
-0.3065
-0.3025
-0.302
-0.305
-0.308
-0.3075
-0.3015
-0.3015
-0.304
-0.309
-0.315
-0.3145
-0.31
-0.308
-0.309
-0.3125
-0.3155
-0.318
-0.321
-0.3155
-0.313
-0.31
-0.3075
-0.309
-0.305
-0.3025
-0.3035
-0.3035
-0.2985
-0.303
-0.303
-0.3045
-0.307
-0.302
-0.3035
-0.307
-0.3145
-0.3145
-0.3085
-0.3035
-0.301
-0.302
-0.3055
-0.311
-0.3105
-0.3085
-0.306
-0.303
-0.3025
-0.3055
-0.304
-0.3035
-0.309
-0.3065
-0.305
-0.3105
-0.3195
-0.3205
-0.3085
-0.303
-0.305
-0.3035
-0.303
-0.3055
-0.305
-0.307
-0.306
-0.3065
-0.3055
-0.305
-0.309
-0.3105
-0.3085
-0.3
-0.3
-0.3045
-0.3115
-0.3195
-0.3185
-0.3125
-0.3115
-0.3075
-0.3035
-0.304
-0.304
-0.305
-0.3035
-0.3015
-0.296
-0.2995
-0.3015
-0.3035
-0.311
-0.3095
-0.3135
-0.312
-0.3095
-0.3165
-0.3105
-0.3045
-0.3025
-0.2995
-0.301
-0.304
-0.3025
-0.2975
-0.2925
-0.2915
-0.2915
-0.2945
-0.3035
-0.3065
-0.304
-0.3015
-0.301
-0.2985
-0.3
-0.301
-0.2985
-0.2955
-0.296
-0.2965
-0.2965
-0.3005
-0.2955
-0.293
-0.29
-0.288
-0.291
-0.2935
-0.301
-0.3035
-0.3045
-0.3055
-0.3055
-0.3055
-0.3065
-0.3085
-0.314
-0.3095
-0.3035
-0.3045
-0.303
-0.3045
-0.301
-0.298
-0.2965
-0.2915
-0.293
-0.2985
-0.3015
-0.302
-0.299
-0.294
-0.298
-0.298
-0.2945
-0.2975
-0.2955
-0.286
-0.2805
-0.2775
-0.275
-0.2755
-0.272
-0.265
-0.2625
-0.258
-0.257
-0.2605
-0.267
-0.268
-0.266
-0.2675
-0.269
-0.2645
-0.262
-0.2665
-0.271
-0.269
-0.2605
-0.255
-0.2535
-0.2545
-0.252
-0.248
-0.2435
-0.239
-0.2405
-0.2465
-0.255
-0.2645
-0.267
-0.259
-0.2515
-0.2445
-0.243
-0.25
-0.2565
-0.2545
-0.255
-0.2525
-0.2505
-0.262
-0.267
-0.2705
-0.2735
-0.268
-0.2695
-0.2745
-0.2725
-0.275
-0.2785
-0.2825
-0.29
-0.2925
-0.297
-0.301
-0.309
-0.3135
-0.316
-0.318
-0.312
-0.314
-0.315
-0.312
-0.306
-0.3025
-0.3
-0.303
-0.3065
-0.308
-0.3145
-0.3075
-0.3075
-0.3055
-0.3045
-0.3125
-0.3165
-0.317
-0.312
-0.3085
-0.305
-0.3055
-0.31
-0.3195
-0.317
-0.311
-0.3125
-0.3145
-0.319
-0.321
-0.323
-0.3195
-0.3185
-0.317
-0.317
-0.318
-0.317
-0.3165
-0.3115
-0.3135
-0.3215
-0.322
-0.312
-0.312
-0.316
-0.3155
-0.314
-0.3205
-0.3265
-0.3285
-0.332
-0.326
-0.3285
-0.332
-0.3345
-0.335
-0.332
-0.3355
-0.337
-0.3405
-0.345
-0.342
-0.3335
-0.327
-0.3145
-0.3015
-0.2935
-0.2815
-0.2655
-0.2495
-0.2315
-0.213
-0.1855
-0.15
-0.1115
-0.0675
-0.028
0.002
0.028
0.066
0.1
0.1205
0.1445
0.155
0.157
0.144
0.1105
0.071
0.0325
-0.0025
-0.037
-0.0585
-0.078
-0.094
-0.11
-0.1315
-0.1445
-0.158
-0.1735
-0.181
-0.1965
-0.214
-0.216
-0.214
-0.204
-0.196
-0.2025
-0.2065
-0.207
-0.2235
-0.234
-0.233
-0.231
-0.227
-0.2245
-0.224
-0.2215
-0.2195
-0.229
-0.228
-0.234
-0.24
-0.239
-0.2485
-0.2505
-0.2565
-0.261
-0.269
-0.278
-0.282
-0.2895
-0.2935
-0.2955
-0.296
-0.2985
-0.301
-0.3005
-0.299
-0.297
-0.2935
-0.2925
-0.297
-0.3
-0.301
-0.2975
-0.2955
-0.2925
-0.296
-0.3005
-0.301
-0.3015
-0.299
-0.3005
-0.3025
-0.3075
-0.308
-0.3045
-0.297
-0.2955
-0.3
-0.299
-0.303
-0.304
-0.303
-0.2955
-0.2865
-0.29
-0.2945
-0.2945
-0.302
-0.3105
-0.3115
-0.309
-0.301
-0.3025
-0.3045
-0.3
-0.293
-0.292
-0.2965
-0.292
-0.2915
-0.295
-0.2945
-0.292
-0.2915
-0.2925
-0.297
-0.3045
-0.309
-0.304
-0.2925
-0.289
-0.2905
-0.2985
-0.308
-0.308
-0.301
-0.3
-0.3035
-0.299
-0.296
-0.295
-0.298
-0.296
-0.292
-0.291
-0.2925
-0.3015
-0.3015
-0.2915
-0.28
-0.282
-0.2855
-0.2875
-0.2905
-0.2895
-0.2855
-0.278
-0.278
-0.278
-0.279
-0.281
-0.2815
-0.2785
-0.2745
-0.2775
-0.2815
-0.281
-0.2855
-0.2875
-0.2825
-0.2815
-0.2815
-0.286
-0.2905
-0.292
-0.2895
-0.283
-0.2755
-0.2775
-0.281
-0.2775
-0.279
-0.2795
-0.2795
-0.281
-0.284
-0.2835
-0.2815
-0.282
-0.282
-0.28
-0.2765
-0.2775
-0.277
-0.2765
-0.2715
-0.267
-0.2645
-0.2695
-0.2755
-0.272
-0.271
-0.267
-0.2645
-0.2615
-0.266
-0.2685
-0.268
-0.2705
-0.2675
-0.2685
-0.268
-0.2715
-0.2735
-0.2715
-0.267
-0.2675
-0.2705
-0.271
-0.2675
-0.2615
-0.26
-0.2565
-0.256
-0.253
-0.2545
-0.2595
-0.264
-0.267
-0.26
-0.255
-0.2505
-0.245
-0.244
-0.2435
-0.2405
-0.242
-0.238
-0.2395
-0.246
-0.241
-0.2375
-0.2355
-0.232
-0.229
-0.2285
-0.2285
-0.2385
-0.244
-0.238
-0.2325
-0.2275
-0.229
-0.229
-0.229
-0.2275
-0.225
-0.2185
-0.216
-0.222
-0.2205
-0.2145
-0.2075
-0.2065
-0.2095
-0.214
-0.214
-0.209
-0.2055
-0.2065
-0.2095
-0.2045
-0.201
-0.1985
-0.196
-0.193
-0.1905
-0.187
-0.183
-0.185
-0.1845
-0.1845
-0.178
-0.171
-0.1755
-0.1785
-0.1755
-0.1745
-0.176
-0.178
-0.172
-0.168
-0.1695
-0.169
-0.1685
-0.1615
-0.158
-0.154
-0.152
-0.1555
-0.1525
-0.149
-0.146
-0.1435
-0.145
-0.149
-0.148
-0.15
-0.1505
-0.1475
-0.1445
-0.141
-0.1435
-0.1465
-0.1475
-0.1475
-0.146
-0.142
-0.145
-0.15
-0.152
-0.151
-0.148
-0.1485
-0.149
-0.1565
-0.1635
-0.166
-0.1655
-0.1655
-0.174
-0.177
-0.175
-0.1715
-0.171
-0.177
-0.1785
-0.172
-0.173
-0.1825
-0.1885
-0.1915
-0.1925
-0.1985
-0.2045
-0.213
-0.217
-0.218
-0.223
-0.217
-0.2175
-0.222
-0.221
-0.2235
-0.2215
-0.2185
-0.2155
-0.212
-0.2165
-0.226
-0.2345
-0.2375
-0.237
-0.234
-0.2345
-0.2405
-0.2455
-0.253
-0.256
-0.255
-0.2535
-0.2585
-0.263
-0.263
-0.265
-0.263
-0.262
-0.2595
-0.26
-0.263
-0.269
-0.2735
-0.2745
-0.2795
-0.2825
-0.287
-0.2885
-0.2885
-0.2855
-0.277
-0.275
-0.278
-0.285
-0.289
-0.2865
-0.2855
-0.2845
-0.2785
-0.283
-0.287
-0.2875
-0.2885
-0.2845
-0.2855
-0.2855
-0.2875
-0.2905
-0.295
-0.297
-0.2965
-0.297
-0.298
-0.301
-0.2995
-0.2965
-0.294
-0.2915
-0.2885
-0.291
-0.296
-0.2955
-0.297
-0.2935
-0.2865
-0.2855
-0.289
-0.293
-0.296
-0.2935
-0.29
-0.291
-0.292
-0.294
-0.2955
-0.2945
-0.2925
-0.289
-0.2885
-0.295
-0.298
-0.291
-0.286
-0.278
-0.2715
-0.2775
-0.285
-0.288
-0.294
-0.2905
-0.2815
-0.2845
-0.2885
-0.293
-0.2955
-0.294
-0.295
-0.292
-0.286
-0.2885
-0.295
-0.293
-0.2925
-0.296
-0.296
-0.2955
-0.3
-0.3005
-0.3
-0.297
-0.2945
-0.2945
-0.297
-0.3045
-0.2995
-0.291
-0.2865
-0.287
-0.2845
-0.2825
-0.2885
-0.293
-0.298
-0.297
-0.294
-0.2945
-0.2955
-0.2925
-0.298
-0.3025
-0.3
-0.2975
-0.2995
-0.3025
-0.302
-0.3015
-0.2985
-0.296
-0.291
-0.285
-0.2815
-0.287
-0.2925
-0.2915
-0.2915
-0.2935
-0.3045
-0.311
-0.3135
-0.3075
-0.3
-0.3
-0.3025
-0.3055
-0.305
-0.304
-0.302
-0.302
-0.2965
-0.2975
-0.302
-0.3035
-0.305
-0.303
-0.298
-0.2945
-0.2955
-0.2975
-0.3005
-0.3015
-0.302
-0.3005
-0.2995
-0.304
-0.305
-0.2995
-0.295
-0.297
-0.2955
-0.2925
-0.294
-0.295
-0.2905
-0.2895
-0.298
-0.2985
-0.3005
-0.305
-0.3035
-0.2975
-0.2965
-0.2985
-0.297
-0.2995
-0.2985
-0.2985
-0.2965
-0.2945
-0.2905
-0.2925
-0.2985
-0.2965
-0.294
-0.293
-0.2975
-0.2965
-0.298
-0.3085
-0.3095
-0.3005
-0.2955
-0.295
-0.2985
-0.302
-0.301
-0.3015
-0.299
-0.2955
-0.295
-0.299
-0.2995
-0.2955
-0.296
-0.2935
-0.295
-0.299
-0.302
-0.3085
-0.311
-0.3065
-0.3005
-0.2955
-0.2955
-0.299
-0.3015
-0.302
-0.299
-0.2995
-0.299
-0.3025
-0.302
-0.3005
-0.3015
-0.2955
-0.296
-0.3055
-0.309
-0.3075
-0.31
-0.3035
-0.299
-0.303
-0.302
-0.304
-0.3
-0.296
-0.296
-0.2965
-0.2995
-0.301
-0.301
-0.3
-0.3035
-0.303
-0.298
-0.303
-0.31
-0.3105
-0.306
-0.2955
-0.2895
-0.2935
-0.296
-0.3015
-0.308
-0.3085
-0.305
-0.298
-0.2935
-0.2965
-0.2975
-0.2955
-0.298
-0.297
-0.2945
-0.2985
-0.3045
-0.305
-0.3045
-0.3035
-0.2995
-0.296
-0.2975
-0.297
-0.298
-0.2965
-0.2875
-0.2855
-0.2845
-0.289
-0.2895
-0.288
-0.2895
-0.288
-0.291
-0.297
-0.305
-0.304
-0.2985
-0.2975
-0.297
-0.298
-0.2995
-0.302
-0.301
-0.298
-0.2965
-0.293
-0.2915
-0.294
-0.292
-0.287
-0.2845
-0.282
-0.279
-0.288
-0.3005
-0.3015
-0.3065
-0.3075
-0.3025
-0.301
-0.301
-0.3065
-0.309
-0.3035
-0.2955
-0.291
-0.2895
-0.2965
-0.3015
-0.2975
-0.294
-0.292
-0.2895
-0.2875
-0.2945
-0.2985
-0.298
-0.2995
-0.2985
-0.2985
-0.298
-0.2995
-0.3015
-0.302
-0.301
-0.2965
-0.2915
-0.2945
-0.295
-0.29
-0.287
-0.2845
-0.2845
-0.2865
-0.2945
-0.2985
-0.3
-0.296
-0.288
-0.287
-0.2905
-0.292
-0.2945
-0.295
-0.2885
-0.2885
-0.2925
-0.297
-0.2995
-0.2955
-0.29
-0.288
-0.289
-0.2885
-0.2895
-0.2915
-0.2935
-0.292
-0.2895
-0.2915
-0.2975
-0.3055
-0.303
-0.2945
-0.292
-0.2895
-0.285
-0.2875
-0.291
-0.288
-0.2865
-0.288
-0.292
-0.2975
-0.2985
-0.3
-0.2985
-0.2945
-0.2965
-0.297
-0.293
-0.2895
-0.288
-0.29
-0.291
-0.2905
-0.2865
-0.2875
-0.292
-0.2925
-0.2905
-0.283
-0.282
-0.293
-0.298
-0.3
-0.3055
-0.302
-0.3025
-0.3045
-0.302
-0.3015
-0.3
-0.301
-0.3015
-0.3025
-0.3005
-0.298
-0.302
-0.305
-0.301
-0.297
-0.2935
-0.295
-0.3015
-0.307
-0.3105
-0.302
-0.2995
-0.3015
-0.3025
-0.307
-0.304
-0.2975
-0.296
