ECG
1.0155
1.0145
1.013
1.0145
1.016
1.0205
1.0245
1.025
1.025
1.027
1.03
1.0255
1.0225
1.0295
1.033
1.0355
1.0385
1.0435
1.055
1.0535
1.0505
1.0535
1.0595
1.063
1.057
1.062
1.0685
1.072
1.0735
1.0645
1.0545
1.0655
1.0865
1.0835
1.073
1.0735
1.076
1.09
1.1005
1.108
1.115
1.112
1.1095
1.1075
1.108
1.1065
1.1065
1.112
1.111
1.113
1.1155
1.1125
1.115
1.114
1.1115
1.1155
1.113
1.112
1.1145
1.1125
1.1145
1.1105
1.109
1.1065
1.108
1.109
1.106
1.105
1.098
1.102
1.1085
1.1005
1.094
1.1015
1.104
1.099
1.091
1.088
1.0885
1.081
1.0755
1.0745
1.068
1.06
1.0545
1.0465
1.0395
1.0285
1.022
1.0255
1.0365
1.0385
1.023
1.012
1.007
1.007
1.012
1.014
1.0075
1.0005
1.003
0.996
0.9885
0.978
0.97
0.981
0.9775
0.9725
0.9695
0.961
0.9625
0.958
0.954
0.948
0.941
0.9415
0.942
0.944
0.945
0.942
0.9485
0.9505
0.942
0.937
0.933
0.927
0.916
0.9065
0.914
0.928
0.9355
0.9345
0.932
0.934
0.934
0.93
0.929
0.931
0.927
0.924
0.9215
0.9185
0.9225
0.9215
0.911
0.913
0.917
0.915
0.919
0.922
0.9195
0.927
0.927
0.91
0.92
0.9315
0.9295
0.923
0.9225
0.928
0.924
0.9205
0.915
0.916
0.9175
0.9155
0.9125
0.9105
0.912
0.9095
0.9055
0.9185
0.9295
0.919
0.917
0.918
0.9175
0.9195
0.912
0.903
0.907
0.914
0.917
0.925
0.9255
0.9235
0.9185
0.9085
0.911
0.9155
0.911
0.911
0.915
0.915
0.9215
0.923
0.9185
0.9205
0.917
0.9085
0.902
0.9075
0.9155
0.916
0.9195
0.92
0.921
0.92
0.9145
0.905
0.895
0.9135
0.934
0.925
0.9145
0.9075
0.9145
0.9175
0.9175
0.9195
0.914
0.9185
0.9205
0.9165
0.9135
0.9165
0.9235
0.927
0.9245
0.919
0.9155
0.9125
0.9085
0.907
0.9115
0.915
0.916
0.922
0.9215
0.917
0.9185
0.9185
0.921
0.92
0.9175
0.9175
0.913
0.909
0.9115
0.908
0.9045
0.912
0.9185
0.9205
0.9125
0.9185
0.9235
0.9155
0.914
0.906
0.905
0.903
0.9015
0.9135
0.9115
0.909
0.9145
0.9205
0.921
0.9115
0.908
0.912
0.9105
0.9065
0.91
0.9155
0.919
0.9215
0.918
0.915
0.918
0.9185
0.915
0.911
0.9155
0.9165
0.9145
0.914
0.9095
0.904
0.9035
0.911
0.9165
0.9265
0.9255
0.913
0.908
0.908
0.9145
0.9095
0.9065
0.9155
0.92
0.9175
0.9125
0.916
0.911
0.9035
0.9075
0.907
0.904
0.903
0.904
0.9
0.903
0.904
0.9035
0.9145
0.9175
0.9155
0.9115
0.9085
0.9085
0.903
0.907
0.912
0.9095
0.905
0.9
0.9095
0.9195
0.9065
0.8975
0.9045
0.912
0.915
0.9045
0.8985
0.9095
0.9125
0.912
0.912
0.903
0.898
0.902
0.9015
0.9005
0.908
0.916
0.9105
0.908
0.9145
0.9105
0.9105
0.907
0.902
0.908
0.9075
0.904
0.9015
0.8955
0.8955
0.898
0.899
0.895
0.8995
0.9035
0.9065
0.913
0.9085
0.913
0.9075
0.9
0.903
0.906
0.908
0.908
0.9075
0.8985
0.8985
0.905
0.9045
0.909
0.9055
0.8995
0.8955
0.89
0.886
0.8765
0.879
0.8945
0.904
0.906
0.916
0.924
0.914
0.9075
0.908
0.9075
0.9085
0.912
0.9075
0.905
0.905
0.9055
0.905
0.9025
0.8995
0.9025
0.9095
0.9055
0.905
0.907
0.9015
0.899
0.901
0.9045
0.902
0.8955
0.8955
0.902
0.9035
0.9005
0.8985
0.8945
0.885
0.8845
0.893
0.892
0.8915
0.896
0.9045
0.9165
0.9165
0.91
0.905
0.8995
0.9005
0.898
0.8955
0.9005
0.9005
0.8985
0.8995
0.901
0.8985
0.8975
0.8975
0.8955
0.898
0.9005
0.899
0.895
0.8915
0.8965
0.9045
0.908
0.913
0.908
0.897
0.8935
0.8935
0.8975
0.8955
0.9025
0.9115
0.9085
0.9085
0.909
0.9105
0.904
0.9
0.906
0.9065
0.9065
0.909
0.905
0.888
0.8825
0.8965
0.9065
0.903
0.9025
0.908
0.9035
0.898
0.8965
0.8945
0.8895
0.8925
0.899
0.901
0.9005
0.893
0.893
0.9
0.907
0.906
0.9055
0.9085
0.905
0.905
0.9065
0.907
0.907
0.903
0.902
0.906
0.9045
0.901
0.902
0.908
0.9075
0.906
0.9065
0.906
0.9045
0.901
0.902
0.8955
0.894
0.8915
0.8835
0.887
0.898
0.901
0.89
0.9005
0.9165
0.9155
0.914
0.915
0.9145
0.908
0.9055
0.909
0.9065
0.9075
0.9085
0.9045
0.9025
0.8985
0.9005
0.8995
0.8975
0.9065
0.911
0.9075
0.9065
0.9095
0.911
0.9025
0.8985
0.8995
0.898
0.8975
0.9005
0.9045
0.9015
0.9035
0.908
0.905
0.9035
0.9115
0.91
0.9075
0.902
0.894
0.911
0.915
0.915
0.9225
0.925
0.932
0.9275
0.9265
0.9265
0.923
0.9205
0.9175
0.9165
0.9125
0.9075
0.908
0.9185
0.9275
0.9325
0.9425
0.9505
0.941
0.9355
0.9325
0.924
0.9335
0.9345
0.9285
0.923
0.92
0.935
0.957
0.977
0.971
0.959
0.9615
0.9665
0.967
0.959
0.955
0.953
0.953
0.9535
0.949
0.946
0.9475
0.953
0.9525
0.9485
0.9525
0.9545
0.9535
0.9515
0.954
0.954
0.955
0.957
0.9515
0.9525
0.951
0.95
0.9525
0.949
0.9405
0.9295
0.9255
0.922
0.917
0.906
0.904
0.911
0.9025
0.895
0.8875
0.8845
0.8925
0.8935
0.891
0.892
0.895
0.8905
0.888
0.8985
0.9055
0.894
0.884
0.884
0.8895
0.91
0.914
0.9115
0.9125
0.908
0.9165
0.9135
0.9035
0.896
0.893
0.894
0.8925
0.895
0.8995
0.9005
0.8955
0.8935
0.886
0.887
0.899
0.8885
0.881
0.8795
0.876
0.894
0.902
0.9065
0.904
0.901
0.9035
0.887
0.89
0.905
0.9035
0.9015
0.897
0.8945
0.9045
0.907
0.8975
0.894
0.8945
0.9005
0.903
0.899
0.891
0.8835
0.88
0.8825
0.888
0.881
0.877
0.882
0.8845
0.89
0.889
0.8925
0.9075
0.9315
0.9495
0.96
0.977
1.001
1.024
1.0355
1.053
1.0725
1.0895
1.102
1.1145
1.1395
1.1665
1.1945
1.219
1.244
1.2645
1.2805
1.2905
1.2965
1.3095
1.3115
1.311
1.316
1.3165
1.3055
1.2745
1.23
1.183
1.1455
1.1175
1.081
1.042
1.0065
0.9795
0.9615
0.9445
0.924
0.8965
0.8685
0.8435
0.8275
0.8255
0.8275
0.8245
0.8315
0.8415
0.83
0.828
0.832
0.8435
0.866
0.88
0.8955
0.911
0.926
0.9295
0.919
0.928
0.945
0.9515
0.9645
0.969
0.964
0.9595
0.96
0.9625
0.9565
0.9485
0.946
0.9535
0.9575
0.953
0.9485
0.9465
0.9435
0.9415
0.9405
0.9375
0.937
0.9325
0.933
0.93
0.9235
0.9305
0.934
0.9295
0.926
0.926
0.937
0.943
0.9365
0.9365
0.9315
0.9285
0.9345
0.9285
0.9285
0.9345
0.936
0.937
0.9305
0.93
0.935
0.941
0.9405
0.9385
0.931
0.9175
0.9265
0.9385
0.937
0.9335
0.9365
0.9395
0.9375
0.9355
0.9335
0.936
0.9385
0.937
0.9295
0.9315
0.938
0.942
0.943
0.9365
0.932
0.931
0.9265
0.925
0.9325
0.93
0.935
0.941
0.951
0.9605
0.95
0.9475
0.9465
0.9485
0.951
0.947
0.954
0.9515
0.942
0.9255
0.92
0.9525
0.9715
0.963
0.944
0.937
0.9465
0.9485
0.956
0.963
0.9595
0.958
0.9645
0.9635
0.961
0.97
0.974
0.9725
0.9705
0.9695
0.97
0.972
0.968
0.9665
0.972
0.9735
0.975
0.9715
0.9675
0.9735
0.983
0.9875
0.9895
0.9975
0.9915
0.983
0.9845
0.983
0.9895
0.9945
0.9875
0.988
0.9905
0.995
0.998
0.997
1.0055
1.002
0.992
0.995
1.016
1.027
1.0205
1.0245
1.021
1.0215
1.03
1.03
1.023
1.0235
1.0295
1.035
1.0375
1.0305
1.035
1.048
1.0645
1.071
1.062
1.0595
1.062
1.066
1.067
1.068
1.0645
1.0675
1.0805
1.086
1.085
1.0905
1.098
1.094
1.0965
1.0955
1.098
1.1035
1.1
1.098
1.0935
1.095
1.0985
1.107
1.1105
1.103
1.0975
1.102
1.111
1.1095
1.1085
1.0995
1.099
1.1175
1.121
1.117
1.1085
1.1095
1.115
1.101
1.1
1.1065
1.107
1.1115
1.11
1.1025
1.1
1.0995
1.0955
1.092
1.088
1.083
1.0765
1.074
1.0735
1.074
1.0705
1.0655
1.0645
1.049
1.039
1.0455
1.042
1.0385
1.037
1.032
1.028
1.018
0.997
0.993
1.005
0.9975
0.9835
0.9815
0.9835
0.991
0.9945
0.981
0.973
0.972
0.9705
0.9645
0.954
0.952
0.95
0.945
0.9415
0.936
0.946
0.9585
0.949
0.9415
0.943
0.9385
0.931
0.926
0.916
0.9145
0.92
0.92
0.931
0.9315
0.925
0.932
0.9315
0.919
0.911
0.91
0.9155
0.9255
0.9265
0.9195
0.92
0.92
0.92
0.919
0.921
0.92
0.9135
0.915
0.912
0.908
0.912
0.914
0.909
0.906
0.902
0.893
0.8935
0.9045
0.912
0.915
0.9145
0.9115
0.914
0.9185
0.918
0.917
0.917
0.9155
0.921
0.919
0.9125
0.91
0.9065
0.9105
0.912
0.917
0.9165
0.913
0.911
0.907
0.9065
0.904
0.9095
0.9055
0.904
0.9105
0.9065
0.895
0.8815
0.8865
0.91
0.9265
0.919
0.915
0.9195
0.9125
0.91
0.9085
0.906
0.9045
0.9025
0.9045
0.904
0.915
0.919
0.9095
0.9115
0.912
0.91
0.9065
0.8995
0.903
0.9165
0.9115
0.898
0.8985
0.896
0.901
0.9065
0.9075
0.918
0.9225
0.919
0.916
0.9185
0.9165
0.916
0.9175
0.908
0.9085
0.9065
0.9065
0.9065
0.9065
0.9125
0.9085
0.9125
0.9145
0.912
0.9155
0.9155
0.9115
0.9095
0.92
0.9205
0.9135
0.9115
0.9075
0.905
0.907
0.9095
0.9055
0.907
0.905
0.902
0.908
0.906
0.9035
0.9055
0.908
0.9135
0.9085
0.901
0.9075
0.9085
0.9055
0.91
0.9105
0.9005
0.894
0.913
0.9245
0.918
0.914
0.91
0.913
0.9125
0.915
0.907
0.9015
0.9115
0.921
0.9285
0.9195
0.914
0.9175
0.9185
0.919
0.921
0.9205
0.911
0.9115
0.9235
0.9245
0.9165
0.9125
0.9165
0.912
0.9125
0.917
0.913
0.91
0.905
0.9075
0.911
0.9065
0.8995
0.9095
0.92
0.915
0.92
0.9195
0.91
0.903
0.9075
0.907
0.902
0.911
0.9195
0.9225
0.9185
0.911
0.9085
0.9185
0.9175
0.9105
0.907
0.908
0.9155
0.92
0.921
0.914
0.9155
0.92
0.9175
0.9165
0.913
0.9135
0.911
0.905
0.911
0.913
0.908
0.912
0.9205
0.918
0.9145
0.91
0.91
0.9195
0.914
0.9055
0.901
0.8955
0.899
0.9015
0.8965
0.9
0.9135
0.9205
0.9155
0.908
0.9125
0.9145
0.9075
0.904
0.9095
0.917
0.91
0.9065
0.904
0.9015
0.9075
0.908
0.907
0.9125
0.918
0.916
0.9105
0.911
0.9065
0.903
0.9075
0.9045
0.8995
0.9055
0.9115
0.905
0.9075
0.9045
0.912
0.921
0.9135
0.9135
0.9145
0.9165
0.908
0.909
0.911
0.9075
0.908
0.908
0.905
0.904
0.9045
0.902
0.9115
0.907
0.8975
0.8975
0.8935
0.8915
0.8875
0.8915
0.9015
0.905
0.8955
0.884
0.885
0.888
0.8865
0.8835
0.8945
0.9115
0.913
0.921
0.9245
0.912
0.905
0.9045
0.9065
0.9045
0.9
0.897
0.9035
0.9145
0.915
0.9085
0.9065
0.9115
0.9095
0.907
0.9035
0.9005
0.903
0.9005
0.9
0.899
0.8955
0.894
0.8975
0.902
0.8995
0.901
0.906
0.9105
0.9085
0.8965
0.884
0.885
0.907
0.912
0.902
0.8985
0.905
0.9075
0.899
0.9025
0.9
0.8915
0.889
0.8915
0.899
0.9055
0.9005
0.8965
0.895
0.8935
0.8975
0.8945
0.8955
0.898
0.898
0.9005
0.901
0.9015
0.9015
0.898
0.8995
0.8985
0.9
0.901
0.8955
0.8935
0.896
0.901
0.8945
0.889
0.8935
0.901
0.9005
0.8995
0.904
0.897
0.8995
0.91
0.911
0.916
0.9175
0.9155
0.9135
0.915
0.9205
0.927
0.9335
0.932
0.928
0.9215
0.9145
0.9205
0.9265
0.923
0.9155
0.911
0.9095
0.906
0.9035
0.9045
0.9235
0.951
0.958
0.9525
0.951
0.9485
0.9455
0.9405
0.9435
0.947
0.942
0.9445
0.945
0.946
0.945
0.936
0.934
0.9415
0.9455
0.9405
0.942
0.9445
0.9465
0.9445
0.938
0.9505
0.953
0.949
0.948
0.9345
0.9325
0.9525
0.962
0.9545
0.95
0.9505
0.9465
0.935
0.9325
0.9405
0.941
0.9375
0.938
0.9345
0.941
0.946
0.9355
0.933
0.9265
0.9125
0.9045
0.8995
0.9015
0.8965
0.8875
0.886
0.887
0.884
0.8815
0.886
0.8885
0.8985
0.905
0.8995
0.8985
0.9
0.899
0.8975
0.8935
0.8935
0.895
0.8935
0.8895
0.8875
0.89
0.8875
0.883
0.878
0.8725
0.8655
0.867
0.8845
0.8935
0.894
0.905
0.9095
0.9
0.892
0.8945
0.9
0.8955
0.8915
0.893
0.888
0.8855
0.888
0.89
0.8925
0.889
0.892
0.8955
0.893
0.8985
0.9
0.8935
0.8885
0.893
0.885
0.8745
0.8835
0.888
0.8905
0.8915
0.8895
0.891
0.8845
0.879
0.882
0.881
0.88
0.8815
0.878
0.879
0.886
0.896
0.9
0.901
0.9135
0.929
0.9475
0.971
0.9975
1.0115
1.0195
1.0375
1.056
1.07
1.087
1.1115
1.13
1.1525
1.1795
1.2005
1.221
1.2385
1.251
1.259
1.269
1.285
1.293
1.29
1.282
1.2645
1.246
1.2115
1.1785
1.142
1.109
1.087
1.06
1.0355
0.9985
0.976
0.9545
0.921
0.899
0.8805
0.859
0.836
0.8235
0.8205
0.8215
0.82
0.8205
0.819
0.811
0.805
0.807
0.816
0.8315
0.859
0.8745
0.8855
0.913
0.931
0.933
0.9365
0.9435
0.9515
0.957
0.957
0.959
0.9575
0.9565
0.953
0.944
0.9355
0.934
0.934
0.928
0.927
0.921
0.915
0.9315
0.939
0.939
0.935
0.914
0.9115
0.926
0.927
0.923
0.9195
0.929
0.9355
0.929
0.9225
0.922
0.938
0.937
0.9295
0.934
0.9315
0.9305
0.932
0.932
0.925
0.9225
0.926
0.925
0.9285
0.93
0.93
0.939
0.941
0.9325
0.93
0.929
0.9275
0.926
0.9275
0.9275
0.9275
0.9325
0.934
0.9365
0.935
0.9325
0.9335
0.9325
0.934
0.9325
0.932
0.9395
0.9395
0.9365
0.9385
0.9385
0.9345
0.931
0.9325
0.9315
0.934
0.939
0.9395
0.9415
0.937
0.9395
0.9405
0.9355
0.9415
0.94
0.936
0.9415
0.932
0.925
0.9345
0.9455
0.9625
0.9645
0.9595
0.9605
0.958
0.9565
0.96
0.9555
0.949
0.96
0.9625
0.9625
0.9635
0.961
0.9555
0.9525
0.965
0.9685
0.968
0.964
0.955
0.9635
0.973
0.976
0.975
0.967
0.9695
0.977
0.98
0.984
0.986
0.9855
0.9865
0.988
0.9875
0.9885
0.9885
0.979
0.98
0.994
0.997
0.9985
1.001
1.0065
1.011
1.0055
1.01
1.017
1.0195
1.0265
1.0285
1.029
1.038
1.036
1.035
1.037
1.0345
1.038
1.044
1.047
1.048
1.053
1.057
1.057
1.0635
1.0665
1.064
1.0665
1.072
1.074
1.0755
1.0775
1.077
1.0785
1.0805
1.085
1.0875
1.087
1.089
1.091
1.094
1.096
1.0985
1.1
1.0985
1.103
1.107
1.105
1.0995
1.098
1.1005
1.0935
1.092
1.0965
1.092
1.0885
1.0965
1.114
1.1145
1.098
1.0915
1.099
1.1105
1.1085
1.1005
1.098
1.0895
1.0965
1.121
1.121
1.106
1.102
1.1015
1.099
1.095
1.0895
1.083
1.078
1.0805
1.0825
1.076
1.0665
1.0585
1.054
1.0525
1.05
1.0385
1.032
1.032
1.0255
1.0165
1.009
1.0085
1.007
1.005
1.0035
0.9935
0.974
0.9695
0.987
0.9895
0.9775
0.973
0.975
0.9735
0.967
0.962
0.957
0.9585
0.9575
0.9535
0.9515
0.943
0.939
0.939
0.9315
0.9225
0.924
0.922
0.919
0.929
0.9385
0.937
0.9325
0.928
0.9245
0.925
0.922
0.9215
0.9225
0.922
0.919
0.914
0.913
0.9105
0.909
0.913
0.9225
0.928
0.9225
0.9165
0.9155
0.9135
0.914
0.916
0.9095
0.904
0.9105
0.9185
0.916
0.9105
0.9135
0.9215
0.917
0.9055
0.9095
0.914
0.9145
0.926
0.9265
0.918
0.9195
0.917
0.913
0.912
0.9105
0.9135
0.913
0.912
0.9115
0.907
0.9095
0.909
0.9085
0.918
0.9245
0.9175
0.913
0.9155
0.9155
0.9145
0.9135
0.915
0.9175
0.921
0.925
0.9225
0.9185
0.915
0.913
0.9145
0.914
0.9135
0.911
0.9065
0.909
0.91
0.896
0.886
0.9085
0.93
0.924
0.92
0.9235
0.922
0.9215
0.925
0.924
0.923
0.9185
0.914
0.9135
0.9135
0.913
0.9095
0.9105
0.9095
0.909
0.9115
0.9115
0.912
0.9165
0.916
0.911
0.9105
0.915
0.919
0.9115
0.914
0.9155
0.9115
0.915
0.9095
0.9065
0.9085
0.9105
0.907
0.907
0.913
0.909
0.912
0.9195
0.916
0.913
0.9065
0.9065
0.9195
0.926
0.9285
0.9275
0.923
0.9165
0.918
0.925
0.9305
0.9335
0.93
0.9245
0.923
0.924
0.919
0.916
0.9145
0.912
0.9105
0.912
0.9135
0.911
0.911
0.9145
0.9175
0.9225
0.926
0.918
0.9115
0.915
0.917
0.914
0.915
0.9205
0.9235
0.9215
0.918
0.921
0.921
0.9175
0.9165
0.92
0.9185
0.914
0.9115
0.909
0.918
0.918
0.9125
0.91
0.9125
0.912
0.909
0.911
0.9185
0.934
0.935
0.924
0.9215
0.925
0.9235
0.921
0.9165
0.919
0.9255
0.9235
0.9205
0.9185
0.9235
0.9225
0.9185
0.9155
0.911
0.9085
0.9115
0.921
0.923
0.9225
0.9185
0.915
0.9115
0.904
0.9
0.9015
0.9075
0.908
0.9145
0.92
0.908
0.9035
0.9085
0.906
0.902
0.914
0.9245
0.92
0.9165
0.9185
0.9195
0.9215
0.927
0.923
0.919
0.9095
0.907
0.915
0.921
0.925
0.919
0.916
0.916
0.915
0.914
0.9135
0.913
0.9125
0.9135
0.9135
0.9145
0.911
0.9085
0.909
0.9035
0.898
0.9025
0.909
0.909
0.912
0.9125
0.9135
0.916
0.912
0.9105
0.914
0.9135
0.91
0.9085
0.9085
0.909
0.9085
0.907
0.9035
0.904
0.905
0.902
0.894
0.897
0.9045
0.9155
0.922
0.9165
0.9135
0.9045
0.9055
0.912
0.912
0.914
0.912
0.911
0.9045
0.8985
0.903
0.9085
0.91
0.9015
0.8935
0.8955
0.909
0.927
0.9275
0.921
0.917
0.9135
0.915
0.914
0.9155
0.9075
0.901
0.909
0.9105
0.9095
0.911
0.913
0.912
0.908
0.9035
0.9055
0.908
0.907
0.9105
0.91
0.9145
0.9125
0.907
0.9095
0.905
0.9015
0.9
0.901
0.905
0.902
0.8985
0.9035
0.909
0.905
0.905
0.912
0.919
0.9265
0.9255
0.915
0.9125
0.916
0.913
0.9105
0.9065
0.906
0.912
0.908
0.909
0.9115
0.91
0.9125
0.913
0.9155
0.912
0.9055
0.9035
0.902
0.903
0.9075
0.904
0.9035
0.9065
0.9065
0.9105
0.9125
0.913
0.911
0.9105
0.912
0.9065
0.904
0.9065
0.9025
0.9005
0.8995
0.8995
0.9045
0.9185
0.913
0.887
0.878
0.8925
0.909
0.9055
0.8985
0.897
0.8985
0.911
0.9235
0.919
0.912
0.9135
0.9115
0.908
0.912
0.907
0.9055
0.9215
0.927
0.921
0.918
0.923
0.9285
0.928
0.9185
0.9195
0.9295
0.929
0.9275
0.9305
0.935
0.928
0.924
0.929
0.9285
0.9265
0.928
0.9315
0.9305
0.934
0.941
0.9385
0.936
0.9405
0.943
0.9395
0.9455
0.952
0.952
0.9535
0.946
0.9425
0.9505
0.956
0.9585
0.958
0.954
0.951
0.953
0.9585
0.958
0.951
0.9475
0.945
0.9435
0.948
0.9515
0.9535
0.954
0.9485
0.948
0.953
0.9605
0.96
0.959
0.962
0.958
0.955
0.953
0.9515
0.955
0.9595
0.9575
0.9535
0.938
0.9205
0.915
0.9115
0.9185
0.916
0.902
0.894
0.891
0.9
0.9045
0.9125
0.9005
0.883
0.891
0.896
0.8955
0.8975
0.8955
0.9005
0.915
0.916
0.908
0.9035
0.9035
0.902
0.902
0.908
0.9085
0.904
0.901
0.9015
0.904
0.8985
0.8915
0.887
0.8885
0.8935
0.9015
0.9085
0.902
0.8965
0.8985
0.9005
0.9015
0.906
0.9095
0.907
0.8995
0.8965
0.891
0.8855
0.887
0.891
0.8925
0.8955
0.902
0.899
0.896
0.8945
0.901
0.9135
0.9075
0.8995
0.903
0.9015
0.898
0.896
0.893
0.8895
0.887
0.89
0.8855
0.8775
0.8855
0.8905
0.893
0.8955
0.893
0.905
0.9165
0.9315
0.9485
0.9615
0.9785
0.988
1.01
1.033
1.044
1.0715
1.1
1.1045
1.098
1.1295
1.1855
1.2215
1.2475
1.264
1.2755
1.299
1.327
1.3325
1.3435
1.3575
1.3505
1.349
1.3485
1.334
1.3015
1.26
1.211
1.177
1.16
1.1255
1.087
1.05
1.023
0.9955
0.9605
0.9395
0.9155
0.89
0.8635
0.8335
0.826
0.83
0.833
0.8365
0.8365
0.836
0.832
0.84
0.8585
0.874
0.8925
0.9075
0.9165
0.924
0.9345
0.9515
0.9635
0.9665
0.9705
0.9725
0.9695
0.968
0.965
0.958
0.9495
0.9485
0.9525
0.959
0.965
0.953
0.9445
0.9485
0.946
0.939
0.9365
0.94
0.9485
0.9475
0.94
0.9375
0.935
0.936
0.933
0.9295
0.932
0.931
0.9345
0.94
0.941
0.9375
0.9305
0.93
0.932
0.933
0.94
0.945
0.9415
0.937
0.9345
0.9385
0.938
0.937
0.933
0.9295
0.931
0.924
0.924
0.9355
0.949
0.9545
0.9445
0.9295
0.923
0.9395
0.9625
0.9535
0.944
0.9505
0.948
0.948
0.943
0.939
0.942
0.9445
0.947
0.9425
0.943
0.943
0.9375
0.9405
0.9455
0.947
0.947
0.947
0.947
0.9435
0.9495
0.955
0.948
0.947
0.9555
0.9595
0.958
0.96
0.963
0.9595
0.954
0.9535
0.956
0.9525
0.9485
0.9475
0.9455
0.9475
0.952
0.961
0.968
0.966
0.967
0.963
0.9605
0.973
0.973
0.9675
0.9695
0.976
0.9825
0.978
0.9735
0.976
0.9785
0.98
0.983
0.985
0.992
0.994
0.9865
0.983
0.9835
0.9845
0.988
0.99
0.9905
1.0
1.0075
1.012
1.018
1.009
0.9945
1.0045
1.0195
1.0235
1.023
1.027
1.031
1.0245
1.0245
1.031
1.0325
1.0315
1.0315
1.0345
1.0325
1.0315
1.034
1.033
1.0375
1.045
1.06
1.065
1.061
1.0605
1.0485
1.0545
1.078
1.08
1.076
1.0825
1.085
1.0815
1.083
1.0825
1.084
1.0855
1.083
1.085
1.096
1.101
1.096
1.1035
1.106
1.102
1.1045
1.106
1.1045
1.101
1.103
1.114
1.1195
1.1175
1.1225
1.1275
1.12
1.1145
1.1185
1.1215
1.117
1.116
1.117
1.114
1.1155
1.115
1.111
1.1125
1.1135
1.1105
1.1035
1.0955
1.1005
1.1115
1.1155
1.1155
1.107
1.1035
1.1015
1.092
1.0915
1.0905
1.0765
1.058
1.0625
1.0755
1.069
1.0605
1.055
1.0505
1.0435
1.0375
1.028
1.0285
1.032
1.0185
1.0115
1.012
1.021
1.0105
0.9965
1.0045
0.996
0.9865
0.983
0.976
0.974
0.9705
0.967
0.966
0.974
0.97
0.957
0.957
0.956
0.9515
0.948
0.9505
0.951
0.9435
0.9405
0.9395
0.936
0.9295
0.9195
0.927
0.9345
0.9265
0.924
0.923
0.9225
0.9295
0.936
0.9325
0.9245
0.9215
0.9225
0.922
0.9175
0.9155
0.913
0.9115
0.9185
0.9175
0.9165
0.9185
0.915
0.9145
0.9115
0.909
0.9035
0.901
0.9015
0.908
0.91
0.908
0.8955
0.8895
0.9125
0.914
0.9155
0.9175
0.917
0.9135
0.901
0.907
0.911
0.9175
0.9145
0.904
0.9085
0.908
0.908
0.9115
0.911
0.914
0.9295
0.931
0.9165
0.914
0.913
0.9085
0.904
0.9055
0.9045
0.902
0.9065
0.913
0.9265
0.922
0.91
0.911
0.9115
0.9105
0.907
0.9035
0.895
0.901
0.9185
0.92
0.916
0.913
0.914
0.9145
0.913
0.914
0.915
0.9145
0.9135
0.9165
0.914
0.911
0.9095
0.911
0.914
0.911
0.9125
0.9115
0.916
0.9195
0.916
0.9105
0.9085
0.9205
0.9225
0.922
0.9245
0.92
0.919
0.9195
0.919
0.916
0.9135
0.915
0.914
0.9135
0.9105
0.904
0.905
0.9145
0.912
0.908
0.921
0.926
0.9195
0.9155
0.916
0.9175
0.917
0.9215
0.921
0.915
0.9115
0.914
0.9165
0.9155
0.9155
0.912
0.904
0.9015
0.909
0.9165
0.9145
0.9085
0.906
0.899
0.8975
0.9075
0.9265
0.9335
0.919
0.911
0.914
0.924
0.928
0.9235
0.9165
0.911
0.9085
0.9075
0.9145
0.9215
0.925
0.9185
0.9025
0.9035
0.9235
0.93
0.9205
0.922
0.9225
0.918
0.915
0.912
0.9135
0.9155
0.9155
0.913
0.916
0.918
0.919
0.924
0.9175
0.913
0.9175
0.9135
0.911
0.9115
0.9105
0.912
0.912
0.913
0.908
0.907
0.913
0.9125
0.9135
0.9175
0.9195
0.9145
0.913
0.9115
0.909
0.9115
0.9115
0.9135
0.913
0.9105
0.902
0.8995
0.914
0.9165
0.91
0.9045
0.901
0.906
0.913
0.913
0.908
0.9055
0.9025
0.898
0.893
0.892
0.8855
0.8845
0.899
0.91
0.9255
0.9305
0.92
0.9155
0.9085
0.9095
0.913
0.912
0.912
0.9065
0.9035
0.9045
0.9025
0.8955
0.8945
0.905
0.919
0.918
0.911
0.912
0.907
0.9045
0.9045
0.9075
0.91
0.903
0.8945
0.896
0.9075
0.9075
0.902
0.8995
0.899
0.899
0.896
0.8935
0.8935
0.8935
0.8945
0.898
0.896
0.899
0.905
0.902
0.901
0.901
0.8965
0.8985
0.896
0.892
0.8955
0.893
0.8915
0.8955
0.8945
0.897
0.905
0.9035
0.898
0.8995
0.902
0.898
0.8925
0.888
0.8815
0.878
0.8805
0.887
0.892
0.8905
0.896
0.909
0.906
0.903
0.905
0.9015
0.9
0.8955
0.8935
0.8925
0.8895
0.889
0.887
0.886
0.8875
0.8915
0.898
0.9105
0.913
0.9015
0.8975
0.9015
0.902
0.9005
0.901
0.9005
0.898
0.895
0.8915
0.889
0.8925
0.892
0.8935
0.892
0.885
0.8855
0.891
0.9015
0.908
0.9035
0.896
0.89
0.8905
0.889
0.8875
0.8845
0.876
0.8805
0.8985
0.907
0.9
0.9045
0.905
0.898
0.8945
0.891
0.895
0.898
0.894
0.893
0.8985
0.902
0.8975
0.8965
0.8955
0.893
0.894
0.8995
0.9
0.877
0.874
0.8925
0.891
0.8925
0.898
0.892
0.8875
0.886
0.891
0.9065
0.9115
0.902
0.897
0.897
0.9
0.898
0.897
0.8985
0.894
0.8955
0.8965
0.897
0.898
0.8965
0.896
0.8955
0.895
0.8965
0.897
0.8935
0.8895
0.895
0.898
0.899
0.9015
0.894
0.8915
0.896
0.8975
0.894
0.889
0.8865
0.8825
0.888
0.8985
0.902
0.906
0.9135
0.913
0.9115
0.909
0.913
0.9255
0.927
0.925
0.916
0.9195
0.9245
0.92
0.9245
0.9215
0.918
0.9195
0.916
0.9115
0.917
0.9255
0.93
0.9325
0.9345
0.934
0.9225
0.9135
0.928
0.942
0.9285
0.9155
0.938
0.959
0.96
0.9525
0.9455
0.9445
0.936
0.9295
0.9325
0.9455
0.9475
0.943
0.942
0.94
0.942
0.939
0.938
0.94
0.9435
0.944
0.9415
0.945
0.9475
0.9465
0.943
0.9385
0.9355
0.9395
0.9435
0.9445
0.9525
0.951
0.9435
0.937
0.9305
0.93
0.93
0.9235
0.911
0.9005
0.889
0.883
0.887
0.8895
0.8805
0.878
0.889
0.8945
0.891
0.886
0.886
0.887
0.8885
0.8875
0.8855
0.8825
0.881
0.881
0.8765
0.882
0.8875
0.885
0.885
0.8815
0.882
0.8825
0.8795
0.881
0.879
0.8765
0.871
0.8715
0.872
0.8765
0.8865
0.879
0.874
0.872
0.864
0.865
0.876
0.888
0.89
0.888
0.8885
0.8865
0.8825
0.8825
0.875
0.865
0.872
0.879
0.886
0.891
0.884
0.8855
0.8885
0.881
0.879
0.8805
0.875
0.87
0.87
0.873
0.8665
0.8655
0.87
0.865
0.864
0.8605
0.863
0.8645
0.8665
0.8705
0.872
0.8805
0.899
0.9185
0.924
0.9405
0.961
0.979
1.0015
1.0195
1.0355
1.0545
1.0775
1.091
1.1055
1.1305
1.1725
1.21
1.2305
1.256
1.2775
1.297
1.308
1.318
1.348
1.367
1.3595
1.353
1.345
1.3255
1.296
1.252
1.205
1.178
1.1545
1.1145
1.071
1.031
1.0015
0.974
0.9405
0.914
0.885
0.8565
0.8345
0.8085
0.797
0.7975
0.8015
0.8085
0.805
0.7985
0.8035
0.8185
0.8325
0.848
0.8715
0.9015
0.909
0.9115
0.936
0.951
0.951
0.9485
0.95
0.942
0.938
0.9565
0.9625
0.9495
0.942
0.936
0.9285
0.9285
0.9265
0.918
0.917
0.9165
0.9175
0.9185
0.916
0.916
0.915
0.9185
0.9225
0.9165
0.9105
0.9105
0.9135
0.911
0.904
0.912
0.9175
0.9145
0.9105
0.9065
0.907
0.9065
0.9085
0.9115
0.91
0.9055
0.9085
0.911
0.9135
0.9155
0.9065
0.9095
0.9105
0.91
0.9125
0.919
0.934
0.929
0.922
0.9235
0.9225
0.923
0.921
0.9255
0.925
0.9175
0.918
0.9185
0.915
0.9045
0.8995
0.9065
0.915
0.9205
0.9235
0.9305
0.932
0.9315
0.9335
0.929
0.926
0.9285
0.926
0.9225
0.926
0.9285
0.9235
0.924
0.9285
0.9345
0.9415
0.9295
0.9235
0.943
0.945
0.9365
0.9345
0.933
0.9345
0.9415
0.949
0.946
0.945
0.946
0.9425
0.937
0.943
0.9475
0.94
0.944
0.948
0.9465
0.943
0.9305
0.9275
0.947
0.954
0.947
0.9545
0.9595
0.9575
0.9635
0.963
0.956
0.9565
0.961
0.9645
0.964
0.9575
0.957
0.9565
0.9575
0.9645
0.9615
0.9545
0.9605
0.98
0.991
0.9905
0.9915
0.992
0.9875
0.9865
0.9915
0.992
0.995
0.996
0.9965
0.999
1.0025
1.009
1.015
1.0215
1.0215
1.0175
1.02
1.0235
1.025
1.029
1.035
1.0375
1.0355
1.0365
1.0405
1.041
1.0405
1.0425
1.05
1.055
1.0505
1.0395
1.053
1.0705
1.0725
1.0755
1.0785
1.0855
1.0885
1.0875
1.085
1.086
1.085
1.084
1.0895
1.0915
1.09
1.0875
1.092
1.0905
1.0875
1.096
1.099
1.0985
1.094
1.0915
1.093
1.091
1.095
1.095
1.0915
1.0915
1.0825
1.079
1.0825
1.094
1.098
1.088
1.087
1.0865
1.0865
1.0815
1.071
1.0695
1.067
1.059
1.054
1.0495
1.0445
1.0495
1.06
1.0545
1.0435
1.037
1.0315
1.0265
1.0225
1.011
1.003
0.995
0.9895
0.992
0.987
0.983
0.985
0.9925
0.988
0.974
0.972
0.9695
0.96
0.955
0.957
0.9605
0.954
0.9495
0.9455
0.942
0.9445
0.934
0.9285
0.9255
0.9225
0.9305
0.9295
0.9235
0.92
0.913
0.906
0.9045
0.9045
0.9015
0.892
0.8875
0.8955
0.897
0.891
0.894
0.9
0.901
0.9045
0.91
0.909
0.9
0.9
0.9
0.899
0.903
0.8985
0.901
0.899
0.894
0.8935
0.893
0.894
0.891
0.8915
0.891
0.893
0.899
0.8945
0.89
0.891
0.898
0.8995
0.889
0.878
0.8775
0.8925
0.899
0.8875
0.885
0.8895
0.893
0.893
0.891
0.8915
0.892
0.891
0.8875
0.888
0.8905
0.8925
0.8905
0.8875
0.8875
0.883
0.8825
0.8795
0.873
0.874
0.874
0.871
0.8785
0.898
0.9005
0.889
0.891
0.8845
0.876
0.8825
0.8895
0.89
0.8815
0.883
0.8795
0.88
0.897
0.8995
0.894
0.89
0.8865
0.8905
0.9025
0.901
0.898
0.899
0.894
0.8925
0.891
0.886
0.882
0.8845
0.889
0.8875
0.8815
0.887
0.896
0.9
0.8975
0.891
0.893
0.8935
0.894
0.8945
0.893
0.889
0.887
0.8955
0.8915
0.89
0.8925
0.8865
0.8885
0.8875
0.883
0.8805
0.878
0.879
0.8855
0.894
0.891
0.878
0.884
0.9015
0.905
0.8985
0.899
0.8945
0.8875
0.891
0.89
0.891
0.8905
0.8885
0.886
0.882
0.8795
0.877
0.88
0.8855
0.895
0.9045
0.899
0.8905
0.8935
0.895
0.898
0.9045
0.898
0.8895
0.886
0.8875
0.8845
0.885
0.8945
0.8955
0.888
0.884
0.8855
0.888
0.8985
0.8915
0.885
0.8965
0.895
0.8855
0.882
0.8755
0.877
0.889
0.889
0.8965
0.899
0.8845
0.8835
0.891
0.8925
0.8925
0.8905
0.887
0.886
0.8875
0.888
0.8895
0.8915
0.891
0.8905
0.888
0.8855
0.8855
0.888
0.8895
0.887
0.885
0.8805
0.877
0.884
0.8905
0.892
0.89
0.887
0.8855
0.887
0.8905
0.887
0.8835
0.8815
0.8795
0.8775
0.8745
0.8715
0.876
0.882
0.8805
0.88
0.8795
0.882
0.8815
0.875
0.863
0.8595
0.8745
0.8785
0.8715
0.8665
0.8615
0.8705
0.892
0.8985
0.8855
0.8765
0.875
0.8745
0.874
0.874
0.88
0.883
0.8825
0.888
0.8885
0.8825
0.8795
0.8725
0.8625
0.8615
0.8765
0.8765
0.8715
0.8635
0.858
0.8715
0.8775
0.8855
0.886
0.879
0.871
0.867
0.864
0.8605
0.8685
0.8695
0.8675
0.8685
0.8695
0.872
0.877
0.8845
0.8905
0.887
0.8845
0.889
0.887
0.8775
0.873
0.8745
0.8745
0.878
0.879
0.8715
0.873
0.8735
0.8675
0.871
0.8755
0.873
0.867
0.8675
0.8675
0.8685
0.871
0.8645
0.868
0.875
0.8765
0.873
0.8705
0.874
0.877
0.8795
0.877
0.87
0.8715
0.8765
0.8655
0.8555
0.8655
0.8765
0.877
0.8725
0.868
0.87
0.873
0.875
0.8745
0.8715
0.873
0.8705
0.8715
0.8705
0.868
0.866
0.862
0.865
0.8595
0.857
0.8665
0.8775
0.8785
0.8725
0.8695
0.8665
0.881
0.8845
0.8715
0.8685
0.867
0.868
0.866
0.8705
0.8745
0.8715
0.8725
0.8785
0.8795
0.872
0.874
0.8705
0.859
0.859
0.8605
0.856
0.854
0.857
0.8715
0.8805
0.8815
0.8735
0.8645
0.873
0.875
0.8725
0.873
0.873
0.8765
0.874
0.8705
0.87
0.8725
0.8715
0.8665
0.864
0.866
0.8685
0.867
0.8625
0.8565
0.8585
0.8735
0.881
0.8705
0.872
0.8735
0.8675
0.8675
0.875
0.874
0.864
0.8625
0.8685
0.8785
0.8745
0.8735
0.8765
0.87
0.8635
0.864
0.8645
0.865
0.865
0.8595
0.8595
0.859
0.85
0.853
0.873
0.889
0.8895
0.8805
0.877
0.8755
0.882
0.886
0.885
0.885
0.8835
0.885
0.878
0.886
0.8995
0.9
0.901
0.8985
0.8925
0.8935
0.8935
0.8885
0.8885
0.889
0.889
0.885
0.8845
0.895
0.896
0.897
0.902
0.8895
0.885
0.895
0.907
0.912
0.9145
0.918
0.9065
0.907
0.915
0.9135
0.9215
0.9275
0.926
0.925
0.9155
0.908
0.916
0.9275
0.928
0.927
0.9245
0.9175
0.9135
0.914
0.917
0.918
0.918
0.9195
0.912
0.9115
0.917
0.916
0.92
0.9215
0.9165
0.914
0.909
0.9085
0.9165
0.9215
0.918
0.9115
0.901
0.8885
0.882
0.8725
0.8655
0.869
0.8685
0.8645
0.8675
0.8605
0.849
0.846
0.8425
0.837
0.835
0.8375
0.8545
0.874
0.8755
0.868
0.861
0.86
0.8615
0.859
0.859
0.8535
0.849
0.8595
0.8685
0.8665
0.864
0.866
0.8605
0.8575
0.8625
0.8615
0.861
0.8605
0.859
0.856
0.856
0.856
0.848
0.841
0.8365
0.8445
0.851
0.8495
0.8515
0.8495
0.851
0.8545
0.856
0.853
0.8505
0.8595
0.8625
0.862
0.8625
0.8605
0.8595
0.857
0.852
0.84
0.8425
0.851
0.8495
0.85
0.848
0.842
0.8395
0.839
0.837
0.84
0.839
0.839
0.8495
0.857
0.861
0.8625
0.854
0.8605
0.8995
0.925
0.9325
0.949
0.965
0.9805
0.994
1.0045
1.024
1.0535
1.077
1.097
1.1225
1.1555
1.18
1.198
1.2175
1.243
1.2765
1.2855
1.29
1.3015
1.3
1.294
1.2835
1.274
1.253
1.206
1.161
1.1305
1.1065
1.068
1.028
0.9915
0.9535
0.928
0.8975
0.873
0.8445
0.823
0.8055
0.782
0.7705
0.7675
0.7785
0.7855
0.7885
0.785
0.7815
0.787
0.7935
0.8095
0.83
0.8505
0.8675
0.8715
0.87
0.8815
0.895
0.8955
0.905
0.9155
0.922
0.933
0.9375
0.933
0.9215
0.9205
0.917
0.909
0.9065
0.899
0.9
0.8985
0.8955
0.8855
0.8845
0.8935
0.8935
0.8955
0.8925
0.8915
0.8875
0.8845
0.8875
0.8825
0.871
0.859
0.875
0.894
0.8855
0.877
0.8745
0.8885
0.898
0.8945
0.8945
0.891
0.8895
0.8875
0.8855
0.8845
0.8885
0.8885
0.8855
0.884
0.8845
0.89
0.895
0.892
0.8885
0.888
0.887
0.8885
0.8905
0.8935
0.8875
0.881
0.881
0.8755
0.8755
0.884
0.8925
0.8975
0.8895
0.8785
0.891
0.907
0.9045
0.8955
0.895
0.8925
0.893
0.8965
0.8915
0.896
0.9035
0.9095
0.915
0.914
0.909
0.9045
0.905
0.9
0.902
0.903
0.894
0.8965
0.899
0.8985
0.8995
0.9045
0.908
0.912
0.919
0.918
0.9185
0.914
0.908
0.9085
0.91
0.912
0.914
0.9115
0.9125
0.921
0.9225
0.917
0.9095
0.915
0.9245
0.9255
0.922
0.9185
0.9265
0.9355
0.934
0.926
0.9255
0.9335
0.9275
0.9205
0.9195
0.941
0.9615
0.953
0.948
0.9475
0.9525
0.9565
0.96
0.954
0.949
0.9585
0.9595
0.9555
0.9505
0.958
0.965
0.969
0.9725
0.9725
0.9755
0.978
0.9775
0.9785
0.9865
0.9885
0.9845
0.9855
0.9965
1.007
1.002
0.995
1.0105
1.0225
1.021
1.026
1.0205
1.017
1.018
1.02
1.0315
1.04
1.047
1.05
1.051
1.052
1.0435
1.038
1.046
1.058
1.06
1.054
1.051
1.0565
1.0565
1.054
1.0575
1.0595
1.0625
1.0615
1.067
1.064
1.056
1.0595
1.0615
1.0625
1.059
1.055
1.0525
1.05
1.0525
1.054
1.0545
1.06
1.0665
1.058
1.049
1.0565
1.061
1.056
1.046
1.036
1.028
1.0295
1.0255
1.0105
1.017
1.0385
1.042
1.029
1.014
1.0115
1.013
1.0115
1.005
0.999
0.999
0.9885
0.9815
0.976
0.972
0.97
0.9615
0.9585
0.952
0.943
0.941
0.9405
0.9345
0.9325
0.9315
0.928
0.9235
0.921
0.917
0.92
0.919
0.8965
0.887
0.892
0.8975
0.896
0.886
0.884
0.887
0.884
0.8845
0.8835
0.877
0.876
0.881
0.8795
0.869
0.87
0.8745
0.8865
0.8905
0.8815
0.8855
0.878
0.874
0.875
0.868
0.868
0.8705
0.874
0.8665
0.861
0.8655
0.864
0.861
0.859
0.861
0.857
0.849
0.8545
0.855
0.8545
0.8545
0.854
0.863
0.864
0.8725
0.8675
0.858
0.8635
0.8645
0.8615
0.854
0.8565
0.846
0.842
0.86
0.8605
0.8585
0.864
0.8625
0.854
0.849
0.8535
0.863
0.867
0.8615
0.8595
0.857
0.852
0.855
0.8575
0.8575
0.8585
0.855
0.8535
0.853
0.8545
0.855
0.8535
0.85
0.8435
0.8465
0.8485
0.849
0.8495
0.8475
0.8545
0.861
0.855
0.8615
0.8675
0.857
0.853
0.853
0.8515
0.85
0.857
0.8635
0.8585
0.8605
0.862
0.8595
0.8565
0.8555
0.861
0.8615
0.858
0.8565
0.857
0.853
0.852
0.8495
0.845
0.847
0.8425
0.8455
0.861
0.873
0.8745
0.862
0.8555
0.8525
0.8465
0.8445
0.8485
0.8585
0.8565
0.8535
0.868
0.8755
0.8625
0.8575
0.8635
0.8655
0.8705
0.863
0.856
0.859
0.8535
0.8565
0.8595
0.857
0.858
0.853
0.8485
0.854
0.86
0.855
0.853
0.856
0.855
0.8515
0.8545
0.859
0.8605
0.8615
0.8615
0.8625
0.86
0.8565
0.859
0.863
0.8635
0.86
0.85
0.8495
0.857
0.856
0.8485
0.848
0.8505
0.8525
0.8575
0.8525
0.8465
0.8445
0.841
0.8395
0.844
0.8525
0.851
0.8515
0.8525
0.852
0.857
0.8525
0.849
0.8485
0.851
0.859
0.8545
0.8485
0.8455
0.8445
0.845
0.8485
0.854
0.844
0.8365
0.8515
0.8525
0.838
0.84
0.85
0.86
0.8525
0.8425
0.842
0.8425
0.849
0.8475
0.8505
0.8445
0.84
0.8385
0.833
0.841
0.8375
0.833
0.825
0.824
0.8275
0.838
0.854
0.856
0.853
0.8455
0.8475
0.843
0.837
0.851
0.86
0.8555
0.8515
0.852
0.849
0.847
0.847
0.842
0.844
0.844
0.8415
0.842
0.8485
0.847
0.8365
0.832
0.827
0.842
0.85
0.8375
0.8425
0.8475
0.836
0.834
0.8335
0.834
0.8415
0.841
0.8415
0.844
0.8445
0.84
0.841
0.841
0.8325
0.8385
0.839
0.831
0.833
0.831
0.827
0.8295
0.8335
0.835
0.831
0.829
0.829
0.8315
0.834
0.8365
0.8325
0.8325
0.846
0.8475
0.844
0.842
0.8355
0.8315
0.8345
0.8375
0.839
0.8375
0.834
0.835
0.8365
0.835
0.831
0.832
0.8325
0.8335
0.839
0.8365
0.832
0.829
0.835
0.8445
0.8375
0.8335
0.832
0.83
0.83
0.8235
0.8235
0.819
0.813
0.8125
0.824
0.836
0.838
0.8415
0.843
0.843
0.8335
0.8355
0.842
0.8345
0.835
0.839
0.8395
0.844
0.837
0.8265
0.836
0.836
0.826
0.8285
0.834
0.842
0.839
0.8385
0.8355
0.8235
0.827
0.84
0.844
0.838
0.833
0.8275
0.823
0.819
0.8175
0.829
0.841
0.8455
0.8445
0.84
0.845
0.843
0.8395
0.839
0.837
0.84
0.8395
0.8395
0.8295
0.8325
0.845
0.8425
0.842
0.8445
0.8375
0.831
0.845
0.852
0.8495
0.85
0.852
0.8595
0.8625
0.8625
0.8585
0.853
0.856
0.8545
0.85
0.8495
0.8515
0.8535
0.855
0.858
0.862
0.864
0.862
0.864
0.863
0.8585
0.8575
0.86
0.8655
0.8805
0.8855
0.8805
0.877
0.87
0.872
0.8695
0.866
0.872
0.873
0.8795
0.8825
0.8735
0.877
0.877
0.881
0.8855
0.874
0.8705
0.8655
0.8695
0.8755
0.87
0.8705
0.8755
0.88
0.8815
0.8765
0.875
0.8835
0.883
0.8725
0.866
0.864
0.879
0.89
0.874
0.8615
0.851
0.8445
0.844
0.8405
0.8395
0.827
0.8165
0.8265
0.8315
0.8285
0.824
0.8175
0.8205
0.826
0.82
0.8115
0.8175
0.8255
0.823
0.82
0.8255
0.8275
0.8295
0.831
0.828
0.826
0.824
0.8225
0.813
0.817
0.8295
0.8215
0.813
0.814
0.822
0.8175
0.8075
0.8135
0.82
0.826
0.8285
0.8245
0.819
0.815
0.8195
0.823
0.815
0.815
0.8265
0.8335
0.8265
0.8195
0.8185
0.817
0.8125
0.818
0.826
0.824
0.8265
0.8265
0.824
0.823
0.815
0.8115
0.814
0.815
0.812
0.8135
0.8145
0.8005
0.7995
0.8065
0.8085
0.813
0.8095
0.8135
0.817
0.816
0.8255
0.833
0.8375
0.8365
0.843
0.872
0.9035
0.932
0.949
0.9595
0.971
0.991
1.02
1.035
1.05
1.0725
1.0975
1.125
1.145
1.1625
1.1745
1.1765
1.1825
1.1995
1.214
1.212
1.2075
1.1955
1.1705
1.1495
1.1185
1.0775
1.0395
1.013
0.9895
0.966
0.9325
0.8955
0.8685
0.8445
0.835
0.8195
0.7875
0.765
0.7595
0.739
0.727
0.7455
0.7535
0.7545
0.748
0.733
0.7355
0.7435
0.7515
0.7655
0.784
0.805
0.828
0.8555
0.8645
0.8575
0.8625
0.8775
0.8885
0.887
0.8805
0.879
0.8815
0.8805
0.8735
0.872
0.869
0.8635
0.858
0.8565
0.859
0.858
0.861
0.8595
0.8575
0.8535
0.8515
0.849
0.844
0.8475
0.846
0.8425
0.8445
0.8435
0.846
0.8505
0.8535
0.8555
0.8485
0.8465
0.8475
0.844
0.8435
0.8575
0.867
0.856
0.854
0.8555
0.857
0.855
0.8515
0.854
0.8565
0.8555
0.852
0.851
0.849
0.85
0.857
0.861
0.8585
0.8585
0.8555
0.8545
0.8545
0.8525
0.8585
0.8615
0.861
0.8595
0.859
0.859
0.8605
0.8605
0.856
0.8535
0.8535
0.8575
0.8635
0.8635
0.8635
0.8695
0.869
0.859
0.864
0.8695
0.853
0.851
0.8605
0.861
0.856
0.859
0.8635
0.8585
0.868
0.874
0.876
0.89
0.8885
0.8845
0.8795
0.8735
0.871
0.8605
0.859
0.876
0.8915
0.888
0.885
0.886
0.8875
0.89
0.888
0.8815
0.8785
0.888
0.8945
0.8925
0.8975
0.902
0.8945
0.8935
0.8975
0.8965
0.897
0.8995
0.9005
0.9005
0.902
0.904
0.9065
0.9075
0.907
0.912
0.9135
0.9105
0.9025
0.9
0.922
0.9365
0.9365
0.9305
0.9265
0.931
0.938
0.9465
0.9465
0.9455
0.945
0.952
0.955
0.955
0.959
0.958
0.96
0.958
0.962
0.974
0.9755
0.9725
0.9825
0.9885
0.981
0.9845
0.9885
0.9905
0.9925
0.9905
0.992
0.996
1.001
1.0025
1.007
1.0115
1.0095
1.0095
1.009
1.017
1.0255
1.0195
1.019
1.019
1.0185
1.033
1.0335
1.024
1.022
1.019
1.02
1.0155
1.013
1.0025
0.9945
1.011
1.032
1.042
1.036
1.023
1.0275
1.04
1.04
1.036
1.033
1.035
1.046
1.053
1.041
1.0295
1.0295
1.028
1.0225
1.0175
1.0135
1.01
1.003
1.0015
1.0025
0.996
0.9925
0.9915
0.9845
0.9765
0.97
0.965
0.9615
0.9515
0.946
0.943
0.9385
0.9355
0.9335
0.9275
0.9285
0.9275
0.9115
0.895
0.9005
0.916
0.909
0.9
0.895
0.8925
0.8895
0.884
0.881
0.8755
0.874
0.8725
0.8705
0.866
0.862
0.866
0.866
0.8605
0.8575
0.8575
0.8585
0.8525
0.8435
0.8415
0.837
0.8355
0.8325
0.834
0.833
0.828
0.8385
0.8495
0.85
0.8425
0.8385
0.839
0.838
0.837
0.836
0.8295
0.8275
0.8255
0.819
0.825
0.8375
0.8405
0.831
0.8255
0.8235
0.824
0.836
0.842
0.842
0.837
0.829
0.8325
0.833
0.832
0.834
0.8325
0.834
0.835
0.8345
0.835
0.8365
0.8365
0.8375
0.833
0.83
0.8335
0.8275
0.826
0.8335
0.838
0.8435
0.846
0.8415
0.8365
0.8325
0.831
0.831
0.83
0.829
0.8295
0.8295
0.83
0.8325
0.837
0.8355
0.8285
0.8335
0.8395
0.8355
0.832
0.831
0.8325
0.836
0.8425
0.8395
0.833
0.832
0.8335
0.829
0.818
0.8195
0.838
0.847
0.84
0.8365
0.834
0.837
0.8365
0.834
0.8285
0.8195
0.822
0.8185
0.816
0.8295
0.8445
0.842
0.8405
0.8435
0.839
0.843
0.843
0.8375
0.832
0.8295
0.8245
0.823
0.833
0.84
0.8405
0.8315
0.8315
0.842
0.8365
0.832
0.835
0.8285
0.829
0.835
0.8435
0.8465
0.8365
0.833
0.8325
0.836
0.8415
0.8375
0.838
0.8425
0.845
0.844
0.8375
0.8325
0.8345
0.8395
0.8375
0.835
0.84
0.8425
0.8395
0.8375
0.8375
0.8385
0.835
0.836
0.8415
0.84
0.8405
0.8355
0.833
0.836
0.8315
0.8335
0.836
0.832
0.8335
0.8375
0.8415
0.839
0.8385
0.8415
0.839
0.8375
0.835
0.8345
0.829
0.829
0.837
0.842
0.8435
0.843
0.8435
0.8415
0.841
0.84
0.845
0.8445
0.832
0.8185
0.822
0.8405
0.842
0.8395
0.84
0.845
0.8435
0.8315
0.8275
0.8275
0.8305
0.8355
0.837
0.8375
0.84
0.842
0.8425
0.834
0.833
0.834
0.8305
0.8325
0.8295
0.8305
0.825
0.822
0.832
0.833
0.8335
0.8375
0.8385
0.8385
0.8335
0.8295
0.8375
0.84
0.8345
0.827
0.82
0.818
0.829
0.8435
0.8395
0.841
0.8385
0.833
0.8365
0.838
0.836
0.833
0.8395
0.8415
0.8355
0.8315
0.827
0.822
0.825
0.8325
0.8285
0.8245
0.829
0.8315
0.824
0.824
0.831
0.833
0.838
0.835
0.8275
0.828
0.8275
0.8285
0.832
0.831
0.8295
0.824
0.8265
0.8355
0.8285
0.8255
0.831
0.824
0.818
0.8215
0.8245
0.8245
0.8255
0.8305
0.8275
0.822
0.8115
0.8105
0.833
0.8415
0.8325
0.833
0.834
0.828
0.833
0.8345
0.826
0.83
0.834
0.8345
0.834
0.8335
0.835
0.8285
0.8235
0.8245
0.8255
0.83
0.832
0.8275
0.827
0.826
0.8275
0.83
0.8255
0.8235
0.8265
0.8235
0.8085
0.8125
0.8265
0.8245
0.812
0.8095
0.817
0.8175
0.819
0.817
0.819
0.8245
0.8385
0.853
0.8385
0.8335
0.838
0.834
0.838
0.834
0.8325
0.8355
0.831
0.833
0.8355
0.831
0.8265
0.827
0.8315
0.827
0.8205
0.8245
0.8265
0.8255
0.8215
0.8195
0.827
0.8325
0.832
0.832
0.83
0.8345
0.843
0.845
0.8445
0.8405
0.8405
0.8455
0.8465
0.846
0.843
0.842
0.8475
0.85
0.847
0.8445
0.8435
0.8435
0.843
0.8455
0.8505
0.8515
0.8475
0.851
0.863
0.8615
0.857
0.862
0.8585
0.849
0.853
0.8755
0.884
0.8705
0.868
0.8695
0.8675
0.8635
0.863
0.8665
0.8635
0.8625
0.863
0.86
0.8515
0.8475
0.8545
0.8585
0.861
0.865
0.8665
0.8675
0.8665
0.8675
0.8705
0.8685
0.8665
0.8655
0.854
0.8295
0.8315
0.8465
0.8475
0.8515
0.86
0.8755
0.871
0.8505
0.8485
0.853
0.847
0.836
0.8295
0.826
0.823
0.823
0.8265
0.827
0.824
0.816
0.815
0.816
0.8145
0.8135
0.811
0.812
0.8145
0.818
0.816
0.813
0.814
0.818
0.82
0.8165
0.812
0.811
0.811
0.807
0.804
0.806
0.81
0.81
0.8105
0.8115
0.8115
0.8095
0.807
0.809
0.8125
0.811
0.811
0.8135
0.8135
0.811
0.801
0.7995
0.8105
0.811
0.806
0.8115
0.812
0.809
0.813
0.818
0.812
0.801
0.7995
0.813
0.818
0.805
0.799
0.7935
0.7895
0.788
0.7905
0.7965
0.7995
0.8025
0.801
0.8055
0.806
0.806
0.8105
0.811
0.8175
0.825
0.831
0.829
0.846
0.877
0.886
0.905
0.929
0.949
0.974
1.0015
1.022
1.0255
1.0385
1.0655
1.0995
1.1285
1.1555
1.183
1.2
1.2145
1.222
1.234
1.2485
1.2475
1.2475
1.243
1.228
1.21
1.177
1.132
1.0945
1.074
1.04
1.0005
0.964
0.929
0.9065
0.8755
0.8505
0.832
0.8055
0.7795
0.7535
0.7355
0.7305
0.735
0.745
0.7495
0.7455
0.7395
0.742
0.752
0.7705
0.794
0.8145
0.825
0.8255
0.8295
0.844
0.8605
0.8715
0.88
0.88
0.879
0.881
0.8735
0.868
0.875
0.8735
0.862
0.8585
0.8515
0.8475
0.837
0.8315
0.8395
0.8495
0.8565
0.8515
0.857
0.853
0.8495
0.85
0.8425
0.8395
0.8375
0.8415
0.8315
0.827
0.834
0.8325
0.8395
0.853
0.849
0.8505
0.8575
0.8545
0.8555
0.8475
0.8425
0.8445
0.8495
0.8515
0.849
0.8525
0.854
0.8515
0.85
0.851
0.851
0.8485
0.8445
0.8445
0.8465
0.8435
0.8425
0.842
0.8465
0.857
0.857
0.852
0.8485
0.846
0.846
0.8485
0.8545
0.8585
0.8585
0.861
0.8575
0.849
0.853
0.8605
0.864
0.865
0.862
0.8635
0.8695
0.8665
0.866
0.8675
0.863
0.8645
0.8635
0.864
0.8665
0.863
0.86
0.859
0.8585
0.862
0.8665
0.8665
0.869
0.8725
0.8735
0.869
0.867
0.8705
0.869
0.8675
0.868
0.866
0.8695
0.882
0.8785
0.8785
0.885
0.8795
0.873
0.8715
0.884
0.89
0.889
0.884
0.88
0.891
0.896
0.894
0.8955
0.896
0.8945
0.896
0.896
0.8965
0.8985
0.898
0.9045
0.909
0.9055
0.901
0.902
0.911
0.9175
0.9215
0.9295
0.9325
0.93
0.931
0.935
0.9405
0.942
0.9435
0.946
0.946
0.946
0.948
0.951
0.948
0.948
0.954
0.9525
0.953
0.9565
0.966
0.9785
0.981
0.983
0.982
0.9815
0.9815
0.9815
0.994
1.005
1.0045
1.005
1.005
1.003
1.005
1.007
1.006
1.005
1.0075
1.0145
1.012
1.013
1.0215
1.019
1.016
1.0185
1.021
1.0225
1.0235
1.0235
1.022
1.023
1.0245
1.029
1.0255
1.025
1.0305
1.026
1.0215
1.021
1.0265
1.032
1.0365
1.034
1.026
1.0235
1.021
1.016
1.011
1.009
1.0075
1.005
1.0015
1.003
1.0055
0.9975
0.9915
0.983
0.973
0.9695
0.9725
0.9725
0.964
0.9505
0.947
0.961
0.956
0.95
0.9465
0.932
0.927
0.925
0.9205
0.911
0.9025
0.9
0.8955
0.8875
0.8865
0.891
0.8905
0.897
0.8945
0.879
0.88
0.8785
0.875
0.8725
0.864
0.8575
0.8585
0.8635
0.853
0.847
0.853
0.854
0.8455
0.839
0.843
0.8395
0.83
0.8225
0.8305
0.8435
0.8415
0.844
0.841
0.8365
0.844
0.8455
0.8405
0.8355
0.8325
0.824
0.8255
0.832
0.838
0.843
0.838
0.8335
0.83
0.8305
0.832
0.8305
0.8275
0.8245
0.8255
0.829
0.8235
0.824
0.824
0.8195
0.8245
0.8265
0.829
0.8295
0.8225
0.817
0.813
0.809
0.82
0.8285
0.8315
0.833
0.83
0.8325
0.8295
0.827
0.8275
0.8275
0.829
0.8285
0.829
0.827
0.8165
0.811
0.8245
0.8295
0.822
0.82
0.8195
0.8235
0.823
0.8215
0.821
0.818
0.817
0.8175
0.8215
0.811
0.801
0.814
0.82
0.819
0.831
0.836
0.8325
0.8335
0.833
0.8325
0.8305
0.824
0.825
0.825
0.8225
0.8195
0.821
0.8235
0.8185
0.812
0.8105
0.8235
0.831
0.831
0.822
0.81
0.8055
0.815
0.828
0.8285
0.832
0.8295
0.828
0.8315
0.832
0.835
0.832
0.8265
0.8305
0.8295
0.8255
0.83
0.8315
0.828
0.825
0.822
0.8225
0.8305
0.8325
0.833
0.8365
0.8355
0.8325
0.832
0.8305
0.827
0.824
0.824
0.8255
0.831
0.8355
0.8325
0.8285
0.8285
0.8315
0.8305
0.8305
0.8295
0.8255
0.828
0.8265
0.8265
0.8355
0.836
0.838
0.8415
0.835
0.8345
0.838
0.831
0.827
0.826
0.8275
0.8375
0.8325
0.828
0.8315
0.826
0.825
0.828
0.828
0.826
0.83
0.829
0.8255
0.8265
0.818
0.8215
0.8345
0.838
0.835
0.8265
0.821
0.824
0.8255
0.8195
0.819
0.816
0.8125
0.8235
0.8315
0.8295
0.824
0.82
0.831
0.838
0.831
0.8285
0.8285
0.8275
0.831
0.832
0.827
0.8245
0.823
0.82
0.8175
0.812
0.8105
0.8135
0.8245
0.8275
0.821
0.8205
0.819
0.8235
0.823
0.82
0.8205
0.823
0.8235
0.8235
0.8265
0.8275
0.8215
0.815
0.8175
0.816
0.818
0.823
0.8275
0.832
0.8265
0.824
0.8255
0.8235
0.821
0.8215
0.8245
0.8235
0.8205
0.82
0.818
0.818
0.8185
0.8185
0.82
0.8195
0.82
0.823
0.8235
0.8245
0.823
0.822
0.8265
0.824
0.8195
0.8195
0.819
0.8195
0.814
0.812
0.8165
0.813
0.8185
0.823
0.81
0.81
0.8205
0.815
0.8185
0.828
0.821
0.818
0.818
0.8175
0.8185
0.82
0.8225
0.8245
0.8255
0.821
0.819
0.821
0.82
0.8235
0.8245
0.818
0.814
0.8095
0.8095
0.815
0.8165
0.821
0.832
0.83
0.8215
0.82
0.8215
0.8245
0.824
0.817
0.816
0.819
0.821
0.82
0.8155
0.8125
0.8145
0.815
0.806
0.8045
0.819
0.8335
0.8255
0.8155
0.8165
0.813
0.8125
0.8115
0.812
0.813
0.8135
0.8135
0.809
0.8065
0.8055
0.8075
0.8135
0.8205
0.823
0.8165
0.807
0.8035
0.8095
0.8135
0.81
0.814
0.811
0.8095
0.8105
0.807
0.8105
0.8095
0.8075
0.8115
0.814
0.8105
0.8085
0.808
0.808
0.808
0.807
0.811
0.8125
0.812
0.8125
0.8135
0.813
0.806
0.81
0.8205
0.8185
0.8095
0.7955
0.805
0.821
0.824
0.8235
0.8145
0.814
0.8165
0.8175
0.8185
0.8155
0.8175
0.815
0.8145
0.823
0.822
0.8175
0.8145
0.8095
0.8085
0.809
0.8185
0.82
0.8115
0.8155
0.824
0.8305
0.8305
0.8305
0.8355
0.834
0.835
0.834
0.8295
0.83
0.8235
0.8245
0.8225
0.819
0.8285
0.843
0.85
0.842
0.835
0.836
0.8515
0.851
0.844
0.844
0.8435
0.853
0.865
0.8705
0.863
0.858
0.857
0.8605
0.864
0.8575
0.855
0.8545
0.856
0.857
0.859
0.861
0.8575
0.858
0.8525
0.8495
0.847
0.847
0.851
0.8505
0.8515
0.853
0.8585
0.861
0.8625
0.862
0.8615
0.8625
0.858
0.86
0.8645
0.864
0.8645
0.8605
0.856
0.853
0.8495
0.8445
0.835
0.827
0.817
0.8015
0.787
0.7945
0.802
0.793
0.796
0.801
0.801
0.7995
0.7985
0.7965
0.796
0.7975
0.7975
0.7985
0.798
0.801
0.805
0.8065
0.81
0.806
0.7995
0.8015
0.8035
0.8015
0.801
0.802
0.8005
0.803
0.809
0.8035
0.7975
0.7985
0.8015
0.799
0.7965
0.7995
0.7975
0.7995
0.8015
0.7985
0.799
0.7995
0.8015
0.8
0.7955
0.795
0.7945
0.79
0.7855
0.786
0.793
0.7985
0.787
0.781
0.7885
0.7985
0.805
0.8
0.792
0.787
0.7875
0.7805
0.778
0.788
0.7925
0.793
0.792
0.7855
0.781
0.7855
0.797
0.805
0.804
0.808
0.8115
0.822
0.833
0.8375
0.8625
0.89
0.907
0.9275
0.942
0.955
0.977
0.9905
1.012
1.038
1.0665
1.0975
1.118
1.139
1.159
1.177
1.202
1.2255
1.2385
1.2455
1.244
1.2415
1.247
1.2375
1.2085
1.174
1.125
1.0775
1.046
1.023
1.0
0.9625
0.926
0.8985
0.8635
0.8345
0.8185
0.809
0.786
0.7515
0.7325
0.7255
0.721
0.725
0.73
0.7295
0.727
0.731
0.743
0.7585
0.7795
0.799
0.815
0.8215
0.8265
0.839
0.8475
0.849
0.8545
0.861
0.858
0.8585
0.857
0.856
0.8595
0.8515
0.8455
0.8405
0.8355
0.8315
0.822
0.818
0.8255
0.8425
0.844
0.8355
0.83
0.825
0.826
0.831
0.836
0.8345
0.834
0.8305
0.829
0.835
0.8305
0.8325
0.84
0.829
0.8265
0.84
0.84
0.828
0.825
0.8265
0.825
0.8225
0.8245
0.8305
0.8345
0.837
0.8345
0.832
0.831
0.832
0.8275
0.8265
0.829
0.8315
0.8335
0.8285
0.8245
0.8245
0.8345
0.839
0.8365
0.831
0.8175
0.819
0.8355
0.8375
0.83
0.826
0.826
0.829
0.834
0.84
0.8445
0.8485
0.846
0.8445
0.8455
0.8505
0.8515
0.8465
0.8445
0.845
0.843
0.838
0.8365
0.8355
0.835
0.829
0.8255
0.8275
0.839
0.849
0.849
0.8505
0.851
0.8495
0.847
0.849
0.853
0.8525
0.8505
0.849
0.8515
0.8545
0.853
0.8485
0.847
0.8495
0.8505
0.8495
0.846
0.846
0.858
0.863
0.862
0.8625
0.858
0.863
0.864
0.862
0.8585
0.858
0.8655
0.8635
0.8765
0.892
0.884
0.8835
0.887
0.885
0.888
0.9
0.9075
0.907
0.908
0.903
0.903
0.907
0.904
0.909
0.9135
0.9125
0.913
0.914
0.9155
0.921
0.9285
0.9265
0.9135
0.912
0.9315
0.9465
0.9445
0.9345
0.94
0.947
0.95
0.9555
0.9545
0.9635
0.9605
0.9575
0.9645
0.9745
0.9835
0.973
0.972
0.976
0.9785
0.9865
0.9915
0.994
0.993
0.9955
0.9965
0.996
0.997
0.995
0.992
0.996
1.0055
1.005
1.0005
0.992
0.9875
0.9905
0.99
0.9915
0.9935
0.9955
1.0005
1.0075
1.0275
1.0345
1.019
1.013
1.007
1.005
1.0085
1.005
1.001
1.001
0.997
0.9915
0.9845
0.9865
0.9955
0.991
0.986
0.9825
0.9745
0.969
0.9665
0.9555
0.951
0.954
0.9425
0.9345
0.9385
0.9385
0.9335
0.925
0.9195
0.9235
0.92
0.908
0.895
0.8875
0.883
0.8865
0.8965
0.894
0.8905
0.882
0.8705
0.8725
0.8685
0.8605
0.859
0.857
0.8585
0.854
0.846
0.8395
0.8385
0.8425
0.8375
0.827
0.8115
0.816
0.8405
0.844
0.8355
0.83
0.825
0.8185
0.817
0.8195
0.812
0.812
0.815
0.813
0.8135
0.808
0.805
0.8015
0.8055
0.8145
0.815
0.822
0.8215
0.8165
0.815
0.8095
0.8065
0.8035
0.8
0.7965
0.7965
0.7965
0.7975
0.8015
0.7985
0.789
0.7885
0.794
0.8155
0.825
0.8115
0.812
0.811
0.8125
0.8085
0.7985
0.7885
0.793
0.8045
0.7975
0.792
0.7935
0.805
0.812
0.8125
0.813
0.809
0.806
0.8015
0.796
0.7955
0.7985
0.8075
0.8125
0.806
0.799
0.794
0.79
0.791
0.796
0.7925
0.798
0.8045
0.7965
0.791
0.791
0.7925
0.795
0.8045
0.8095
0.806
0.805
0.8075
0.8025
0.7975
0.8035
0.7985
0.8015
0.804
0.792
0.7845
0.7875
0.806
0.809
0.803
0.802
0.7995
0.8065
0.809
0.8075
0.8045
0.801
0.8035
0.801
0.7975
0.8015
0.8025
0.799
0.7945
0.7965
0.7985
0.7975
0.805
0.811
0.81
0.7995
0.789
0.7915
0.797
0.795
0.803
0.8165
0.82
0.816
0.8115
0.815
0.8145
0.808
0.799
0.795
0.799
0.806
0.807
0.7985
0.7945
0.7985
0.8005
0.791
0.794
0.81
0.808
0.796
0.7895
0.787
0.7845
0.782
0.785
0.797
0.813
0.8195
0.8165
0.8125
0.8065
0.801
0.7975
0.7995
0.803
0.8095
0.8125
0.8125
0.81
0.8055
0.804
0.8015
0.8045
0.803
0.801
0.8075
0.8125
0.8105
0.8065
0.807
0.8035
0.801
0.7985
0.7975
0.806
0.8065
0.8025
0.7985
0.789
0.7905
0.7925
0.7985
0.8095
0.803
0.7855
0.779
0.796
0.8
0.794
0.7965
0.7935
0.796
0.7975
0.794
0.7945
0.7965
0.797
0.7935
0.79
0.7925
0.791
0.7865
0.7885
0.793
0.7925
0.7975
0.8075
0.803
0.796
0.7875
0.7875
0.791
0.783
0.785
0.7875
0.7945
0.797
0.789
0.792
0.788
0.7765
0.776
0.773
0.77
0.781
0.7985
0.8085
0.805
0.804
0.8
0.793
0.7985
0.805
0.8025
0.796
0.7945
0.793
0.79
0.794
0.796
0.7925
0.79
0.788
0.79
0.7895
0.7815
0.778
0.782
0.777
0.78
0.7895
0.7885
0.7855
0.7825
0.7845
0.786
0.78
0.782
0.792
0.7975
0.7965
0.797
0.7975
0.7935
0.793
0.7925
0.79
0.7895
0.8005
0.7995
0.785
0.779
0.784
0.7945
0.793
0.79
0.7925
0.7885
0.786
0.784
0.7825
0.782
0.7805
0.783
0.7845
0.78
0.782
0.7895
0.7885
0.7835
0.778
0.78
0.7825
0.7835
0.792
0.79
0.783
0.779
0.78
0.779
0.7745
0.777
0.7805
0.786
0.789
0.791
0.786
0.78
0.77
0.768
0.779
0.778
0.7795
0.7895
0.793
0.7785
0.7775
0.783
0.779
0.7805
0.781
0.786
0.791
0.7885
0.784
0.7845
0.7845
0.7795
0.78
0.782
0.7795
0.778
0.776
0.77
0.7725
0.7755
0.776
0.785
0.7865
0.7805
0.7775
0.783
0.788
0.786
0.777
0.778
0.784
0.7785
0.7785
0.7825
0.786
0.78
0.773
0.7735
0.776
0.7815
0.78
0.7835
0.799
0.8015
0.7955
0.7885
0.785
0.7845
0.783
0.789
0.7865
0.7765
0.7735
0.785
0.7915
0.7855
0.7845
0.787
0.7885
0.781
0.7775
0.7855
0.787
0.7855
0.787
0.7805
0.778
0.7835
0.784
0.7845
0.7895
0.795
0.789
0.7805
0.7785
0.7815
0.782
0.776
0.7775
0.777
0.7715
0.766
0.762
0.7725
0.7905
0.795
0.786
0.7855
0.7915
0.793
0.7875
0.7895
0.7915
0.7775
0.7845
0.799
0.812
0.821
0.8115
0.805
0.801
0.8025
0.808
0.8055
0.796
0.795
0.8025
0.8075
0.8065
0.812
0.818
0.8125
0.805
0.815
0.832
0.822
0.818
0.8245
0.821
0.817
0.817
0.8285
0.831
0.8245
0.8255
0.825
0.8235
0.8245
0.824
0.824
0.823
0.8215
0.819
0.808
0.8005
0.816
0.8285
0.821
0.816
0.8155
0.827
0.83
0.8235
0.8275
0.8265
0.8245
0.832
0.8375
0.8375
0.836
0.8315
0.828
0.822
0.81
0.8005
0.8005
0.803
0.794
0.7875
0.7825
0.776
0.773
0.773
0.776
0.776
0.768
0.759
0.7575
0.7605
0.7605
0.762
0.763
0.7665
0.7665
0.7675
0.779
0.777
0.768
0.766
0.7645
0.7655
0.771
0.7605
0.755
0.7625
0.7605
0.7645
0.7745
0.779
0.7755
0.77
0.771
0.769
0.7655
0.7675
0.7665
0.765
0.76
0.7565
0.76
0.7625
0.763
0.7675
0.7675
0.765
0.764
0.752
0.7595
0.7665
0.7645
0.7695
0.7655
0.7605
0.7535
0.756
0.759
0.7565
0.757
0.754
0.752
0.749
0.7485
0.745
0.7475
0.7505
0.7445
0.74
0.74
0.7455
0.747
0.756
0.7545
0.746
0.762
0.7825
0.785
0.7855
0.804
0.8275
0.848
0.884
0.908
0.9205
0.9405
0.95
0.9615
0.98
1.0005
1.0285
1.0585
1.079
1.0965
1.1205
1.1415
1.153
1.1585
1.169
1.1835
1.1795
1.1695
1.1605
1.152
1.1345
1.0975
1.0565
1.0105
0.988
0.968
0.928
0.8905
0.8675
0.843
0.808
0.7875
0.762
0.7305
0.7145
0.714
0.7085
0.694
0.693
0.7025
0.706
0.703
0.696
0.694
0.7015
0.72
0.748
0.7635
0.7645
0.77
0.785
0.7965
0.8075
0.8205
0.8265
0.824
0.8195
0.823
0.8265
0.8265
0.8155
0.807
0.808
0.808
0.8055
0.7975
0.798
0.8
0.8055
0.8045
0.796
0.79
0.791
0.802
0.7985
0.799
0.8025
0.792
0.795
0.796
0.791
0.8005
0.8005
0.79
0.7875
0.777
0.772
0.7895
0.8
0.7945
0.793
0.7975
0.7995
0.808
0.808
0.799
0.809
0.81
0.8005
0.805
0.8015
0.8005
0.801
0.794
0.8015
0.8065
0.804
0.8
0.799
0.8045
0.8065
0.804
0.8
0.8035
0.8035
0.795
0.792
0.7915
0.791
0.791
0.7915
0.793
0.797
0.8
0.795
0.801
0.8135
0.8115
0.7945
0.7835
0.795
0.804
0.8105
0.8205
0.8285
0.829
0.8205
0.8225
0.8265
0.821
0.8135
0.814
0.8155
0.824
0.832
0.819
0.8135
0.8175
0.8235
0.8255
0.823
0.824
0.823
0.822
0.826
0.828
0.827
0.8255
0.822
0.822
0.8225
0.827
0.8295
0.8305
0.836
0.836
0.8385
0.845
0.842
0.8375
0.8405
0.835
0.8425
0.8575
0.8535
0.84
0.833
0.83
0.834
0.8525
0.8525
0.8445
0.851
0.8505
0.859
0.8735
0.8745
0.872
0.868
0.874
0.877
0.877
0.8775
0.884
0.8965
0.8925
0.887
0.89
0.8965
0.9
0.9045
0.906
0.908
0.9135
0.913
0.912
0.9105
0.9135
0.9175
0.918
0.912
0.9135
0.9285
0.936
0.9375
0.9295
0.929
0.9295
0.927
0.928
0.9305
0.9405
0.955
0.972
0.971
0.9605
0.9585
0.9595
0.9635
0.9715
0.976
0.9695
0.961
0.968
0.976
0.9745
0.976
0.976
0.9695
0.9645
0.9655
0.9665
0.968
0.9675
0.965
0.96
0.96
0.966
0.972
0.978
0.976
0.97
0.9655
0.959
0.96
0.96
0.9565
0.959
0.955
0.9465
0.9395
0.9395
0.9395
0.9275
0.9135
0.91
0.9285
0.9305
0.912
0.9075
0.9025
0.899
0.899
0.897
0.893
0.8805
0.877
0.8735
0.8575
0.857
0.866
0.8625
0.8505
0.849
0.847
0.843
0.836
0.821
0.818
0.819
0.814
0.816
0.817
0.8205
0.815
0.7975
0.8005
0.8105
0.81
0.804
0.8055
0.8065
0.7985
0.7945
0.792
0.7935
0.792
0.7835
0.786
0.7845
0.7805
0.7805
0.7755
0.776
0.7705
0.7655
0.7635
0.7595
0.76
0.7795
0.798
0.7945
0.789
0.783
0.7815
0.7795
0.776
0.77
0.7675
0.7725
0.77
0.7675
0.7695
0.773
0.7765
0.77
0.768
0.7765
0.7795
0.7805
0.773
0.767
0.7695
0.772
0.7715
0.765
0.763
0.7745
0.778
0.771
0.766
0.7705
0.7815
0.7785
0.776
0.7805
0.778
0.768
0.765
0.7725
0.772
0.7695
0.7665
0.762
0.7635
0.7635
0.7605
0.7615
0.771
0.7725
0.768
0.7655
0.7655
0.758
0.7565
0.76
0.759
0.758
0.757
0.769
0.7615
0.754
0.7695
0.776
0.7795
0.778
0.771
0.7675
0.766
0.7685
0.766
0.765
0.775
0.7785
0.777
0.7755
0.7665
0.768
0.7695
0.7635
0.761
0.7655
0.7675
0.761
0.7585
0.7705
0.7775
0.769
0.7645
0.764
0.7655
0.764
0.7575
0.7645
0.773
0.774
0.7765
0.7655
0.756
0.757
0.7635
0.764
0.761
0.7605
0.763
0.77
0.773
0.7725
0.7685
0.768
0.7685
0.764
0.7665
0.77
0.7615
0.754
0.7605
0.7725
0.7735
0.765
0.769
0.767
0.761
0.7715
0.7655
0.752
0.761
0.784
0.781
0.768
0.766
0.7625
0.7645
0.769
0.7715
0.769
0.7685
0.7665
0.763
0.7595
0.7645
0.778
0.7775
0.7745
0.7705
0.768
0.7745
0.772
0.768
0.766
0.768
0.764
0.7585
0.7605
0.7615
0.7665
0.7605
0.7635
0.7655
0.758
0.7705
0.782
0.775
0.7635
0.756
0.7635
0.777
0.7665
0.7625
0.77
0.771
0.7705
0.769
0.7685
0.77
0.77
0.7645
0.766
0.768
0.771
0.762
0.7555
0.7615
0.7565
0.7545
0.7585
0.756
0.755
0.77
0.775
0.7665
0.7645
0.762
0.7685
0.7705
0.761
0.764
0.7625
0.758
0.762
0.7575
0.7545
0.7625
0.76
0.762
0.767
0.7605
0.76
0.756
0.7525
0.759
0.768
0.7695
0.7645
0.762
0.7475
0.7415
0.75
0.7605
0.764
0.759
0.76
0.752
0.7495
0.758
0.7685
0.7705
0.755
0.7535
0.7595
0.7605
0.7625
0.7635
0.7635
0.7645
0.7645
0.761
0.759
0.756
0.758
0.756
0.7565
0.7555
0.755
0.756
0.747
0.749
0.749
0.7475
0.7615
0.7655
0.753
0.752
0.753
0.748
0.7495
0.75
0.7525
0.7665
0.77
0.761
0.7605
0.7605
0.7645
0.7605
0.7535
0.7555
0.754
0.7505
0.7445
0.741
0.7405
0.742
0.7425
0.7425
0.7475
0.753
0.7555
0.752
0.75
0.7495
0.752
0.7505
0.7465
0.7525
0.756
0.7575
0.7545
0.7495
0.754
0.758
0.754
0.751
0.752
0.751
0.752
0.756
0.7555
0.749
0.7475
0.747
0.747
0.7465
0.744
0.746
0.7455
0.739
0.7395
0.743
0.7435
0.754
0.7505
0.7325
0.727
0.7495
0.771
0.7585
0.751
0.7555
0.754
0.752
0.752
0.7505
0.7495
0.7495
0.75
0.753
0.759
0.76
0.7515
0.747
0.744
0.7435
0.7405
0.7395
0.739
0.733
0.7355
0.736
0.7405
0.753
0.7525
0.7565
0.7555
0.7395
0.742
0.747
0.744
0.7475
0.746
0.744
0.7445
0.744
0.7465
0.746
0.747
0.7525
0.751
0.746
0.749
0.752
0.747
0.749
0.7555
0.753
0.7525
0.7535
0.752
0.751
0.753
0.753
0.7475
0.7435
0.7475
0.7525
0.7565
0.773
0.778
0.765
0.76
0.757
0.7595
0.7665
0.7695
0.77
0.77
0.769
0.7705
0.7725
0.779
0.7885
0.788
0.7805
0.7795
0.7865
0.7835
0.7855
0.792
0.785
0.7805
0.783
0.787
0.7835
0.78
0.78
0.778
0.783
0.784
0.7755
0.7685
0.7605
0.7615
0.778
0.7815
0.7775
0.777
0.7735
0.772
0.7725
0.777
0.795
0.8135
0.811
0.8025
0.7935
0.7845
0.7805
0.781
0.778
0.777
0.78
0.7715
0.7655
0.7675
0.759
0.753
0.759
0.7585
0.7465
0.735
0.7295
0.7255
0.7205
0.7205
0.718
0.718
0.73
0.736
0.733
0.729
0.7265
0.7215
0.721
0.72
0.726
0.7385
0.74
0.743
0.738
0.734
0.734
0.7255
0.727
0.7315
0.7295
0.7235
0.7255
0.7345
0.732
0.729
0.7305
0.729
0.7325
0.7365
0.7305
0.7265
0.722
0.716
0.7235
0.734
0.7335
0.7315
0.73
0.728
0.7315
0.728
0.723
0.7245
0.7245
0.724
0.723
0.7225
0.728
0.721
0.7065
0.721
0.738
0.7285
0.722
0.7245
0.7185
0.7125
0.712
0.7125
0.7145
0.7145
0.715
0.718
0.7265
0.7305
0.73
0.731
0.7335
0.742
0.7545
0.775
0.799
0.818
0.836
0.8505
0.862
0.8755
0.894
0.9095
0.9225
0.9425
0.9645
0.994
1.018
1.037
1.058
1.078
1.092
1.1005
1.1145
1.124
1.121
1.1225
1.115
1.0975
1.0825
1.055
1.0135
0.9715
0.946
0.9155
0.8905
0.867
0.8325
0.809
0.775
0.746
0.728
0.7045
0.6845
0.6635
0.6445
0.6435
0.6515
0.6545
0.6635
0.658
0.6445
0.6445
0.6395
0.6565
0.6905
0.7135
0.738
0.755
0.7605
0.77
0.781
0.779
0.778
0.786
0.79
0.789
0.7955
0.8015
0.793
0.785
0.782
0.777
0.7695
0.7705
0.776
0.771
0.7635
0.7605
0.7655
0.7645
0.758
0.751
0.7425
0.7495
0.769
0.766
0.7555
0.7555
0.7505
0.7465
0.7455
0.7525
0.761
0.7615
0.7595
0.757
0.7545
0.7525
0.758
0.7565
0.758
0.762
0.7575
0.7575
0.759
0.762
0.766
0.767
0.76
0.757
0.76
0.7655
0.7665
0.7595
0.7605
0.759
0.757
0.7595
0.7575
0.757
0.7595
0.7655
0.768
0.7645
0.7625
0.7575
0.7565
0.7705
0.7765
0.7735
0.769
0.765
0.769
0.7645
0.762
0.768
0.7615
0.7545
0.7585
0.764
0.769
0.768
0.7655
0.7665
0.775
0.7855
0.7835
0.78
0.777
0.7765
0.779
0.7795
0.7795
0.778
0.7745
0.768
0.7675
0.774
0.784
0.7905
0.785
0.7825
0.784
0.779
0.777
0.782
0.7935
0.792
0.7845
0.7935
0.795
0.793
0.791
0.7825
0.784
0.8015
0.8075
0.8005
0.7975
0.7965
0.8015
0.8
0.799
0.8
0.803
0.8135
0.8135
0.8085
0.8115
0.817
0.8165
0.819
0.824
0.822
0.8235
0.8245
0.826
0.8265
0.8265
0.8285
0.827
0.8275
0.839
0.8495
0.849
0.8515
0.857
0.855
0.8535
0.855
0.8595
0.863
0.865
0.8685
0.872
0.879
0.8805
0.882
0.8845
0.8875
0.8905
0.8905
0.893
0.8925
0.8915
0.8945
0.898
0.901
0.9005
0.9065
0.922
0.922
0.9235
0.9235
0.9165
0.912
0.908
0.921
0.9345
0.936
0.9345
0.931
0.928
0.9295
0.921
0.9135
0.9215
0.936
0.947
0.943
0.938
0.942
0.952
0.954
0.9445
0.935
0.935
0.936
0.93
0.922
0.9205
0.93
0.936
0.9305
0.9185
0.905
0.908
0.9235
0.928
0.922
0.9115
0.904
0.9005
0.891
0.8835
0.878
0.8735
0.87
0.8675
0.8705
0.865
0.8575
0.8515
0.8455
0.844
0.8335
0.8325
0.832
0.8245
0.8275
0.8205
0.81
0.8055
0.8055
0.8065
0.8
0.798
0.7955
0.788
0.784
0.7825
0.786
0.7835
0.774
0.7725
0.7715
0.769
0.7665
0.762
0.764
0.7625
0.7575
0.7535
0.751
0.753
0.7555
0.753
0.75
0.7515
0.7495
0.747
0.7435
0.746
0.7495
0.745
0.7415
0.736
0.7345
0.738
0.733
0.7275
0.732
0.736
0.7405
0.754
0.76
0.751
0.7455
0.7395
0.734
0.7345
0.7385
0.7425
0.736
0.732
0.729
0.733
0.741
0.74
0.7365
0.726
0.732
0.739
0.738
0.7365
0.731
0.736
0.742
0.746
0.743
0.7395
0.7375
0.7365
0.7405
0.744
0.746
0.7445
0.7445
0.734
0.7195
0.7315
0.756
0.752
0.7355
0.732
0.7395
0.7475
0.7405
0.7395
0.7425
0.7375
0.7365
0.7365
0.7355
0.732
0.734
0.7415
0.7385
0.7325
0.7315
0.733
0.735
0.7365
0.736
0.7335
0.733
0.733
0.736
0.737
0.7355
0.7345
0.736
0.738
0.737
0.737
0.7365
0.738
0.7365
0.732
0.7345
0.734
0.729
0.726
0.728
0.733
0.738
0.7415
0.7355
0.73
0.731
0.7285
0.7235
0.718
0.725
0.7385
0.7455
0.751
0.7435
0.7365
0.739
0.738
0.7355
0.7285
0.7275
0.727
0.724
0.7265
0.7165
0.719
0.7355
0.7515
0.7555
0.7465
0.742
0.739
0.742
0.7415
0.7375
0.7345
0.733
0.7285
0.726
0.732
0.7355
0.7365
0.7425
0.747
0.7405
0.734
0.732
0.738
0.7415
0.7385
0.741
0.735
0.7205
0.712
0.721
0.7405
0.739
0.732
0.7315
0.729
0.736
0.747
0.7475
0.745
0.7435
0.7365
0.7355
0.739
0.742
0.7425
0.7395
0.7335
0.729
0.7335
0.7335
0.733
0.733
0.7305
0.7305
0.7345
0.7385
0.7345
0.7315
0.7295
0.731
0.731
0.7305
0.7305
0.724
0.7235
0.726
0.7265
0.7285
0.7255
0.724
0.7235
0.722
0.7245
0.7255
0.7215
0.7195
0.723
0.7225
0.721
0.7245
0.7245
0.7245
0.7165
0.7115
0.728
0.7325
0.728
0.731
0.727
0.7205
0.7155
0.7145
0.715
0.714
0.725
0.7275
0.7315
0.736
0.728
0.723
0.7205
0.719
0.7195
0.722
0.719
0.7165
0.717
0.712
0.705
0.7075
0.716
0.715
0.7205
0.714
0.7185
0.727
0.7095
0.7075
0.7195
0.7255
0.724
0.7205
0.713
0.716
0.727
0.719
0.7045
0.705
0.725
0.732
0.726
0.7245
0.7195
0.721
0.721
0.718
0.717
0.7125
0.708
0.7105
0.7195
0.7215
0.7215
0.719
0.7135
0.7155
0.7205
0.722
0.7185
0.7145
0.718
0.721
0.7235
0.7225
0.717
0.719
0.725
0.7255
0.722
0.7185
0.7185
0.718
0.7185
0.718
0.715
0.72
0.724
0.724
0.722
0.7145
0.7175
0.7255
0.723
0.719
0.7185
0.7165
0.7165
0.712
0.7125
0.7235
0.728
0.727
0.724
0.726
0.724
0.721
0.723
0.718
0.7115
0.711
0.7115
0.7115
0.7205
0.7285
0.7245
0.72
0.7175
0.717
0.7235
0.7225
0.7195
0.719
0.7125
0.7125
0.7115
0.7055
0.709
0.725
0.7305
0.7215
0.7185
0.7235
0.728
0.725
0.7145
0.713
0.7145
0.707
0.6985
0.7085
0.724
0.7205
0.718
0.72
0.724
0.7225
0.7205
0.721
0.715
0.719
0.7205
0.712
0.7085
0.714
0.7145
0.7095
0.711
0.715
0.722
0.726
0.714
0.7035
0.7095
0.7145
0.7105
0.707
0.7075
0.7015
0.7015
0.7095
0.723
0.7345
0.7255
0.72
0.721
0.7195
0.718
0.7165
0.717
0.7155
0.7145
0.7195
0.724
0.7195
0.7165
0.7155
0.713
0.716
0.72
0.72
0.719
0.7135
0.711
0.707
0.706
0.7185
0.728
0.725
0.718
0.718
0.7175
0.715
0.7175
0.717
0.717
0.7195
0.715
0.717
0.72
0.7195
0.723
0.7265
0.7305
0.7345
0.734
0.7385
0.744
0.734
0.7245
0.7225
0.7345
0.742
0.7355
0.734
0.738
0.7415
0.74
0.7445
0.7505
0.754
0.751
0.747
0.75
0.745
0.744
0.754
0.7575
0.759
0.761
0.7585
0.7525
0.75
0.749
0.7435
0.744
0.7565
0.7635
0.76
0.759
0.758
0.7565
0.7585
0.7625
0.7625
0.76
0.7625
0.7655
0.76
0.7575
0.7595
0.76
0.77
0.7685
0.759
0.7575
0.763
0.7665
0.7655
0.767
0.7645
0.762
0.756
0.7465
0.7345
0.7285
0.727
0.7235
0.721
0.718
0.7175
0.7135
0.7075
0.7035
0.704
0.7015
0.7005
0.703
0.707
0.699
0.6885
0.7055
0.7085
0.702
0.704
0.7035
0.7
0.6995
0.7065
0.712
0.715
0.715
0.71
0.703
0.7015
0.706
0.707
0.703
0.701
0.701
0.7015
0.7045
0.705
0.7045
0.71
0.7075
0.706
0.712
0.71
0.706
0.707
0.705
0.7035
0.7015
0.6935
0.694
0.689
0.689
0.695
0.6935
0.699
0.6995
0.6975
0.6965
0.708
0.7145
0.701
0.701
0.7005
0.6955
0.6925
0.6855
0.6845
0.686
0.688
0.6835
0.6825
0.6885
0.6905
0.6985
0.705
0.7
0.693
0.6955
0.7245
0.754
0.7595
0.7765
0.796
0.816
0.8425
0.856
0.869
0.887
0.906
0.9215
0.9385
0.9705
1.001
1.0275
1.053
1.0685
1.091
1.111
1.1255
1.145
1.16
1.158
1.151
1.142
1.1325
1.1165
1.0615
1.013
0.9935
0.9795
0.9515
0.9045
0.8655
0.8315
0.802
0.7665
0.7305
0.7075
0.685
0.661
0.637
0.6255
0.6275
0.63
0.6335
0.6355
0.6315
0.629
0.6365
0.649
0.669
0.692
0.7105
0.7175
0.7275
0.74
0.7475
0.756
0.7605
0.767
0.766
0.7615
0.7645
0.76
0.7525
0.755
0.749
0.743
0.748
0.744
0.7345
0.7335
0.7365
0.733
0.738
0.7425
0.7375
0.738
0.7335
0.7225
0.7135
0.7045
0.7045
0.7065
0.709
0.7175
0.7285
0.7475
0.753
0.7435
0.7385
0.7365
0.737
0.742
0.744
0.7375
0.73
0.736
0.745
0.7435
0.7265
0.715
0.7345
0.749
0.744
0.739
0.7365
0.7395
0.736
0.729
0.724
0.728
0.7425
0.7445
0.7395
0.738
0.7425
0.745
0.743
0.7485
0.748
0.7395
0.7365
0.7395
0.742
0.74
0.741
0.7385
0.739
0.737
0.74
0.7535
0.7435
0.74
0.7495
0.7485
0.744
0.7425
0.743
0.7445
0.742
0.7375
0.737
0.7375
0.757
0.763
0.7515
0.747
0.7455
0.748
0.7505
0.754
0.754
0.7555
0.7535
0.7565
0.767
0.7615
0.754
0.7605
0.7655
0.7605
0.7555
0.7605
0.7655
0.7625
0.7695
0.769
0.762
0.7625
0.7615
0.7685
0.7785
0.785
0.78
0.7795
0.7805
0.7765
0.778
0.7765
0.7765
0.7755
0.7745
0.7775
0.7785
0.7835
0.7815
0.783
0.8025
0.8045
0.7925
0.788
0.7885
0.787
0.7875
0.7955
0.8085
0.8225
0.8255
0.825
0.829
0.8305
0.8335
0.8375
0.8355
0.83
0.823
0.836
0.852
0.8495
0.85
0.8515
0.8495
0.855
0.8555
0.8575
0.8625
0.859
0.8575
0.859
0.8575
0.8655
0.8755
0.873
0.8795
0.8875
0.8895
0.896
0.8955
0.894
0.8945
0.8875
0.89
0.8995
0.8965
0.9005
0.9015
0.897
0.9045
0.9055
0.91
0.9135
0.911
0.9085
0.9015
0.8995
0.903
0.9085
0.911
0.913
0.914
0.9035
0.8925
0.895
0.91
0.9145
0.906
0.905
0.909
0.905
0.902
0.9005
0.8935
0.8905
0.887
0.8845
0.8815
0.8825
0.88
0.8675
0.8565
0.8495
0.846
0.842
0.849
0.8535
0.847
0.8415
0.834
0.823
0.821
0.822
0.818
0.8085
0.8015
0.7995
0.7955
0.787
0.781
0.784
0.793
0.7955
0.784
0.779
0.7785
0.7715
0.7645
0.7595
0.7545
0.7505
0.75
0.752
0.7505
0.746
0.744
0.738
0.7345
0.7325
0.726
0.7215
0.7185
0.7115
0.709
0.7255
0.735
0.723
0.725
0.7245
0.717
0.7185
0.7125
0.7065
0.713
0.72
0.715
0.7095
0.7095
0.7075
0.7065
0.711
0.7035
0.6925
0.7015
0.7105
0.709
0.7025
0.696
0.6965
0.7095
0.717
0.7155
0.71
0.702
0.702
0.709
0.7105
0.709
0.7065
0.7005
0.703
0.7075
0.708
0.7055
0.7055
0.7015
0.6945
0.695
0.6965
0.7
0.698
0.6955
0.705
0.7145
0.718
0.7145
0.707
0.702
0.6985
0.702
0.7035
0.698
0.7015
0.705
0.7015
0.7015
0.7015
0.702
0.703
0.7025
0.7015
0.7025
0.704
0.701
0.6995
0.6975
0.699
0.7
0.694
0.6905
0.6905
0.684
0.6845
0.694
0.6955
0.6935
0.7
0.7095
0.7065
0.7
0.7005
0.7105
0.7125
0.706
0.706
0.712
0.7155
0.712
0.7115
0.71
0.7085
0.7095
0.7075
0.698
0.6835
0.6805
0.6995
0.7095
0.705
0.705
0.704
0.705
0.704
0.7055
0.705
0.702
0.701
0.701
0.6995
0.6975
0.701
0.699
0.698
0.6955
0.7
0.7065
0.7075
0.7135
0.7065
0.7035
0.7035
0.6985
0.701
0.7
0.6995
0.701
0.7005
0.697
0.696
0.698
0.6945
0.6925
0.688
0.691
0.6945
0.698
0.6965
0.688
0.6945
0.6965
0.699
0.699
0.704
0.7115
0.712
0.7085
0.697
0.7015
0.709
0.704
0.6985
0.698
0.6945
0.703
0.7155
0.7095
0.7055
0.7075
0.704
0.701
0.698
0.696
0.6955
0.6945
0.694
0.7045
0.7145
0.7085
0.699
0.6965
0.6975
0.6995
0.699
0.701
0.7015
0.701
0.708
0.7065
0.705
0.704
0.7075
0.713
0.7075
0.704
0.699
0.701
0.701
0.703
0.7075
0.697
0.688
0.692
0.7055
0.708
0.7025
0.7
0.6985
0.6985
0.702
0.6995
0.698
0.6995
0.6975
0.697
0.6975
0.6975
0.6985
0.698
0.6965
0.698
0.6975
0.6925
0.69
0.6905
0.6895
0.6885
0.688
0.684
0.673
0.6765
0.696
0.7005
0.7045
0.705
0.6935
0.688
0.688
0.693
0.696
0.695
0.7025
0.704
0.6975
0.6955
0.6945
0.696
0.698
0.695
0.692
0.6935
0.696
0.6975
0.694
0.6945
0.695
0.69
0.6935
0.692
0.685
0.687
0.687
0.6835
0.686
0.683
0.675
0.6765
0.673
0.6865
0.706
0.7005
0.695
0.6955
0.705
0.7055
0.7005
0.701
0.6995
0.7
0.6955
0.693
0.6915
0.6915
0.698
0.6985
0.693
0.691
0.691
0.6915
0.688
0.681
0.6815
0.691
0.695
0.695
0.6895
0.6745
0.671
0.684
0.693
0.6905
0.696
0.704
0.7025
0.6995
0.701
0.7
0.697
0.688
0.6835
0.697
0.6975
0.692
0.693
0.6905
0.687
0.685
0.688
0.691
0.691
0.6875
0.6845
0.6855
0.6845
0.6855
0.6845
0.6825
0.6835
0.6805
0.6805
0.679
0.684
0.6885
0.683
0.6855
0.6785
0.68
0.6865
0.6765
0.678
0.681
0.6775
0.6785
0.682
0.6815
0.681
0.687
0.689
0.687
0.687
0.6845
0.683
0.6815
0.6815
0.683
0.6745
0.669
0.674
0.6785
0.68
0.6825
0.685
0.675
0.673
0.6915
0.6965
0.6855
0.6785
0.6815
0.6895
0.697
0.698
0.6915
0.6915
0.6935
0.689
0.6885
0.6885
0.6855
0.682
0.682
0.685
0.6855
0.682
0.679
0.675
0.671
0.667
0.672
0.677
0.6805
0.691
0.698
0.701
0.685
0.668
0.676
0.6915
0.692
0.6895
0.687
0.68
0.683
0.6915
0.6965
0.6945
0.686
0.677
0.6845
0.6885
0.689
0.6915
0.69
0.6855
0.6825
0.688
0.685
0.6865
0.688
0.684
0.6825
0.681
0.6825
0.684
0.6845
0.6835
0.6845
0.685
0.6865
0.6895
0.6885
0.697
0.6955
0.685
0.6895
0.6915
0.694
0.694
0.6945
0.695
0.696
0.706
0.7055
0.7025
0.7035
0.7095
0.71
0.7045
0.7025
0.698
0.6965
0.695
0.6985
0.7035
0.7025
0.702
0.705
0.716
0.7235
0.7195
0.7175
0.7165
0.7155
0.7185
0.7225
0.7285
0.7335
0.7335
0.736
0.733
0.7235
0.723
0.7185
0.7115
0.719
0.723
0.721
0.7195
0.713
0.7085
0.7065
0.718
0.7235
0.718
0.7265
0.7365
0.7385
0.7345
0.73
0.7265
0.7285
0.7225
0.7175
0.7305
0.7325
0.722
0.723
0.7295
0.737
0.7345
0.728
0.727
0.709
0.692
0.699
0.699
0.6925
0.6885
0.679
0.675
0.678
0.6785
0.6745
0.6675
0.669
0.678
0.673
0.667
0.6705
0.674
0.678
0.6795
0.68
0.681
0.6795
0.6775
0.6725
0.6685
0.6745
0.6725
0.6655
0.6665
0.667
0.6635
0.663
0.673
0.6755
0.6685
0.6695
0.6675
0.6635
0.6635
0.6595
0.658
0.663
0.665
0.6625
0.6595
0.6605
0.6665
0.676
0.681
0.6765
0.675
0.6705
0.6665
0.671
0.6695
0.6665
0.6685
0.667
0.6705
0.6655
0.655
0.66
0.6625
0.66
0.6615
0.661
0.6595
0.6565
0.6485
0.6485
0.646
0.639
0.6365
0.6345
0.6355
0.649
0.677
0.6805
0.673
0.678
0.692
0.7075
0.7115
0.724
0.7555
0.788
0.8035
0.814
0.835
0.861
0.8735
0.886
0.9065
0.93
0.967
0.9905
1.0065
1.0295
1.052
1.075
1.0875
1.0945
1.1145
1.13
1.1265
1.125
1.1175
1.096
1.067
1.032
0.9945
0.9615
0.932
0.882
0.8365
0.8065
0.7755
0.7525
0.7215
0.687
0.66
0.6405
0.613
0.591
0.5905
0.5905
0.593
0.594
0.5975
0.5975
0.5975
0.6095
0.6245
0.643
0.659
0.676
0.6865
0.694
0.7075
0.717
0.724
0.737
0.752
0.7555
0.7485
0.746
0.7405
0.7295
0.7245
0.7185
0.712
0.713
0.7125
0.7095
0.701
0.7
0.7055
0.7015
0.7015
0.703
0.7005
0.697
0.6935
0.689
0.691
0.6925
0.6875
0.686
0.6825
0.6795
0.687
0.7035
0.7095
0.705
0.698
0.6935
0.694
0.694
0.6865
0.6715
0.6755
0.6875
0.685
0.688
0.693
0.6955
0.7035
0.702
0.7
0.706
0.706
0.702
0.7015
0.7015
0.6985
0.7005
0.6995
0.693
0.6995
0.6975
0.6935
0.6985
0.7005
0.6985
0.694
0.696
0.6985
0.7035
0.7025
0.6905
0.701
0.716
0.714
0.7035
0.6905
0.6985
0.704
0.703
0.703
0.7075
0.7135
0.7115
0.7175
0.7175
0.7125
0.7145
0.7145
0.7105
0.7065
0.708
0.715
0.714
0.709
0.713
0.721
0.7205
0.7185
0.72
0.7185
0.7165
0.716
0.7175
0.7235
0.7305
0.7285
0.723
0.722
0.721
0.723
0.7245
0.7245
0.7245
0.7185
0.7175
0.7225
0.724
0.735
0.744
0.7395
0.7395
0.744
0.7425
0.7405
0.743
0.7425
0.743
0.744
0.7405
0.744
0.7595
0.7705
0.769
0.765
0.765
0.7675
0.7655
0.754
0.758
0.7825
0.787
0.776
0.7795
0.782
0.7755
0.7805
0.79
0.7955
0.799
0.806
0.8055
0.8065
0.813
0.8125
0.8165
0.8165
0.819
0.823
0.8215
0.8275
0.8295
0.827
0.8285
0.8245
0.8295
0.8435
0.8465
0.8475
0.85
0.851
0.854
0.8525
0.8515
0.852
0.8555
0.8585
0.852
0.852
0.8565
0.8515
0.847
0.85
0.86
0.868
0.8795
0.8915
0.8895
0.891
0.8875
0.877
0.871
0.87
0.8755
0.875
0.87
0.8705
0.88
0.8755
0.8705
0.8755
0.8765
0.8755
0.8765
0.874
0.868
0.8695
0.866
0.857
0.8555
0.8535
0.8485
0.841
0.8385
0.8395
0.8335
0.832
0.828
0.822
0.8205
0.817
0.811
0.805
0.801
0.793
0.7835
0.774
0.7725
0.771
0.7565
0.7475
0.7475
0.764
0.773
0.7545
0.7455
0.7385
0.736
0.7365
0.7325
0.737
0.738
0.7285
0.7215
0.72
0.723
0.7165
0.7115
0.7145
0.711
0.707
0.705
0.7
0.692
0.6905
0.69
0.686
0.684
0.676
0.6735
0.683
0.6895
0.6885
0.6835
0.6835
0.684
0.682
0.6755
0.672
0.679
0.68
0.6755
0.672
0.6745
0.6775
0.68
0.68
0.672
0.671
0.675
0.6745
0.676
0.677
0.671
0.6665
0.67
0.668
0.666
0.669
0.6725
0.674
0.6715
0.677
0.6775
0.675
0.675
0.674
0.674
0.6715
0.6715
0.6745
0.678
0.675
0.673
0.67
0.6625
0.6595
0.6585
0.657
0.655
0.6645
0.676
0.6735
0.6715
0.671
0.669
0.6685
0.6735
0.675
0.67
0.6695
0.669
0.6675
0.67
0.669
0.669
0.6705
0.668
0.665
0.663
0.666
0.666
0.664
0.6645
0.669
0.668
0.661
0.6525
0.6435
0.6565
0.6675
0.674
0.682
0.675
0.667
0.6605
0.664
0.6695
0.6735
0.671
0.66
0.667
0.673
0.6735
0.672
0.663
0.6745
0.6865
0.6815
0.6765
0.6735
0.6725
0.667
0.668
0.6695
0.664
0.6635
0.6615
0.661
0.662
0.666
0.674
0.676
0.674
0.6705
0.6715
0.6755
0.672
0.671
0.6725
0.6765
0.6815
0.674
0.6675
0.6655
0.6695
0.6755
0.669
0.666
0.669
0.669
0.6675
0.6645
0.662
0.6565
0.6565
0.6615
0.658
0.6545
0.658
0.672
0.6835
0.684
0.6785
0.6755
0.6735
0.669
0.6705
0.675
0.6735
0.6735
0.674
0.67
0.671
0.6715
0.666
0.664
0.6675
0.67
0.6675
0.6695
0.6745
0.6755
0.6755
0.668
0.6645
0.6695
0.668
0.661
0.6595
0.663
0.6615
0.657
0.6575
0.6695
0.659
0.633
0.6375
0.666
0.677
0.665
0.6775
0.686
0.6835
0.6815
0.676
0.6745
0.67
0.6715
0.671
0.6655
0.657
0.6585
0.668
0.6725
0.6725
0.6665
0.6645
0.662
0.662
0.6645
0.6575
0.6605
0.672
0.671
0.661
0.658
0.6615
0.6575
0.659
0.664
0.6625
0.6615
0.66
0.6575
0.6605
0.663
0.6645
0.669
0.6645
0.6595
0.6595
0.663
0.658
0.649
0.6595
0.666
0.659
0.657
0.6575
0.654
0.656
0.6575
0.6545
0.6565
0.658
0.6585
0.657
0.6555
0.657
0.657
0.656
0.6555
0.6565
0.658
0.6555
0.654
0.658
0.659
0.657
0.6565
0.657
0.6585
0.654
0.6485
0.639
0.637
0.6555
0.6625
0.6555
0.6565
0.659
0.653
0.652
0.6505
0.637
0.627
0.626
0.6325
0.643
0.667
0.6795
0.663
0.6495
0.6515
0.663
0.661
0.6495
0.6485
0.662
0.671
0.664
0.6615
0.661
0.653
0.6445
0.6465
0.6585
0.664
0.659
0.6545
0.654
0.6545
0.6495
0.6515
0.6575
0.6615
0.663
0.657
0.654
0.6535
0.6505
0.648
0.648
0.6495
0.6515
0.6525
0.6425
0.6455
0.653
0.652
0.653
0.649
0.6505
0.6505
0.6485
0.6515
0.649
0.65
0.65
0.647
0.6475
0.645
0.651
0.655
0.65
0.647
0.646
0.644
0.643
0.641
0.64
0.6425
0.6435
0.649
0.6515
0.6445
0.639
0.639
0.645
0.6535
0.6635
0.6565
0.6455
0.646
0.6435
0.64
0.6475
0.6515
0.644
0.645
0.65
0.6555
0.649
0.6435
0.646
0.6425
0.6375
0.635
0.641
0.643
0.6365
0.631
0.6305
0.628
0.627
0.6255
0.6225
0.639
0.6655
0.6665
0.646
0.638
0.653
0.6605
0.6455
0.6355
0.6445
0.6495
0.6435
0.6415
0.639
0.6335
0.624
0.627
0.6295
0.6325
0.6465
0.65
0.6545
0.653
0.6485
0.646
0.6465
0.6475
0.6425
0.65
0.6495
0.6385
0.644
0.6495
0.646
0.643
0.638
0.637
0.641
0.6465
0.6475
0.6435
0.643
0.641
0.6345
0.6315
0.635
0.6365
0.635
0.637
0.6335
0.63
0.6355
0.6405
0.6435
0.643
0.64
0.6355
0.6355
0.6435
0.6435
0.638
0.6425
0.6525
0.6525
0.6455
0.6435
0.639
0.6355
0.645
0.6465
0.6455
0.6465
0.6435
0.642
0.6415
0.6475
0.6485
0.649
0.6515
0.6565
0.6585
0.6515
0.649
0.65
0.6595
0.6625
0.662
0.663
0.6595
0.662
0.6545
0.648
0.6545
0.6615
0.6675
0.6655
0.6675
0.673
0.677
0.6725
0.663
0.6605
0.669
0.681
0.6765
0.6725
0.6565
0.654
0.663
0.6665
0.6755
0.672
0.6875
0.697
0.6945
0.698
0.6965
0.6995
0.6995
0.6985
0.69
0.6805
0.6845
0.677
0.673
0.6765
0.6785
0.686
0.685
0.687
0.6815
0.681
0.6905
0.695
0.6945
0.6875
0.6895
0.6845
0.6785
0.677
0.6745
0.6725
0.6585
0.65
0.648
0.6425
0.648
0.652
0.6445
0.6335
0.6305
0.631
0.6325
0.6335
0.6285
0.6325
0.6255
0.6215
0.6315
0.637
0.6375
0.6295
0.6295
0.631
0.63
0.632
0.6325
0.6325
0.6345
0.6345
0.629
0.623
0.6205
0.6205
0.6195
0.617
0.6195
0.6245
0.6215
0.62
0.6225
0.623
0.619
0.619
0.6235
0.6285
0.631
0.6275
0.629
0.623
0.6225
0.6245
0.617
0.6215
0.622
0.619
0.625
0.6245
0.618
0.622
0.6285
0.628
0.626
0.6195
0.612
0.597
0.5975
0.6225
0.6245
0.6145
0.6055
0.599
0.601
0.6055
0.6055
0.602
0.6085
0.6075
0.5995
0.6
0.6125
0.63
0.632
0.629
0.634
0.655
0.6845
0.7095
0.723
0.736
0.7565
0.777
0.7905
0.8015
0.819
0.84
0.8695
0.8965
0.9285
0.9515
0.965
0.9875
1.005
1.0155
1.0235
1.036
1.0565
1.0625
1.056
1.047
1.042
1.0325
0.993
0.947
0.8995
0.8675
0.8435
0.808
0.778
0.748
0.7155
0.682
0.654
0.633
0.6085
0.579
0.556
0.54
0.5365
0.543
0.551
0.5595
0.564
0.562
0.5575
0.56
0.583
0.6045
0.6155
0.621
0.627
0.6555
0.6715
0.668
0.68
0.688
0.692
0.694
0.6915
0.6945
0.687
0.6725
0.6705
0.6695
0.6625
0.66
0.6645
0.667
0.6525
0.6545
0.6685
0.6715
0.6725
0.665
0.6575
0.6615
0.6685
0.6655
0.661
0.6625
0.6575
0.656
0.6605
0.6585
0.6585
0.657
0.6575
0.657
0.657
0.659
0.658
0.66
0.658
0.655
0.655
0.6545
0.6565
0.6555
0.654
0.6565
0.6575
0.661
0.661
0.6475
0.6435
0.648
0.6475
0.6495
0.656
0.67
0.677
0.666
0.6635
0.669
0.6615
0.658
0.6605
0.6565
0.6595
0.656
0.65
0.652
0.6485
0.649
0.6645
0.6835
0.675
0.668
0.674
0.6725
0.672
0.666
0.6645
0.6755
0.674
0.659
0.667
0.6825
0.678
0.6775
0.683
0.681
0.676
0.673
0.6745
0.679
0.676
0.675
0.6805
0.6835
0.679
0.6815
0.6855
0.674
0.6695
0.666
0.6695
0.6745
0.669
0.6705
0.6825
0.695
0.687
0.6815
0.69
0.7015
0.701
0.69
0.692
0.6935
0.695
0.6985
0.698
0.7005
0.7035
0.7025
0.703
0.71
0.711
0.7045
0.7105
0.709
0.7095
0.7145
0.709
0.7155
0.7205
0.7215
0.7195
0.719
0.7235
0.725
0.7295
0.7295
0.7275
0.7315
0.7395
0.744
0.746
0.7485
0.751
0.7585
0.758
0.7535
0.754
0.757
0.7665
0.7765
0.779
0.7795
0.7835
0.78
0.778
0.783
0.786
0.7865
0.7895
0.7925
0.794
0.7975
0.8035
0.809
0.8
0.7985
0.798
0.785
0.793
0.8115
0.8175
0.8045
0.802
0.8215
0.8275
0.837
0.838
0.8285
0.8285
0.826
0.825
0.824
0.8265
0.8325
0.8375
0.836
0.833
0.834
0.831
0.83
0.833
0.8335
0.8275
0.825
0.825
0.8225
0.817
0.812
0.8145
0.814
0.8145
0.811
0.82
0.825
0.815
0.81
0.798
0.793
0.7935
0.786
0.778
0.774
0.77
0.7655
0.759
0.755
0.7645
0.7625
0.754
0.7555
0.744
0.74
0.735
0.725
0.7275
0.719
0.711
0.7135
0.7125
0.7
0.688
0.6945
0.697
0.691
0.6865
0.68
0.6705
0.6675
0.664
0.6535
0.653
0.65
0.654
0.663
0.658
0.6555
0.6625
0.6625
0.657
0.6575
0.654
0.6475
0.6445
0.645
0.6485
0.649
0.645
0.643
0.6425
0.632
0.635
0.637
0.6165
0.612
0.622
0.6285
0.6325
0.637
0.643
0.643
0.636
0.6325
0.633
0.6295
0.6235
0.6225
0.631
0.6385
0.64
0.6345
0.6295
0.6315
0.6305
0.6255
0.6235
0.621
0.621
0.63
0.6345
0.634
0.6315
0.6215
0.615
0.6175
0.6195
0.616
0.6185
0.614
0.614
0.625
0.634
0.6335
0.6185
0.6175
0.6205
0.625
0.6355
0.6335
0.6295
0.62
0.6145
0.625
0.6335
0.63
0.6325
0.631
0.6265
0.6285
0.6265
0.6275
0.626
0.6265
0.625
0.6205
0.6245
0.6215
0.622
0.626
0.618
0.613
0.613
0.618
0.619
0.619
0.622
0.6225
0.6295
0.63
0.63
0.6355
0.64
0.641
0.635
0.628
0.6315
0.6315
0.621
0.6255
0.6425
0.637
0.6215
0.617
0.6165
0.6195
0.6195
0.6235
0.629
0.6255
0.616
0.61
0.6175
0.626
0.635
0.642
0.6415
0.642
0.6345
0.628
0.629
0.6295
0.626
0.6275
0.634
0.6315
0.632
0.6305
0.631
0.6345
0.633
0.634
0.634
0.6285
0.6215
0.6205
0.6265
0.6275
0.6195
0.6145
0.6135
0.6245
0.6325
0.6315
0.633
0.634
0.6395
0.6325
0.623
0.628
0.6265
0.6205
0.619
0.6165
0.612
0.611
0.6235
0.642
0.644
0.628
0.621
0.6215
0.613
0.6125
0.613
0.621
0.628
0.623
0.618
0.609
0.6225
0.65
0.6505
0.6295
0.624
0.6285
0.6235
0.628
0.631
0.628
0.6225
0.6165
0.6185
0.6215
0.622
0.618
0.611
0.6085
0.615
0.627
0.623
0.6125
0.617
0.6195
0.6225
0.6255
0.626
0.627
0.6205
0.6225
0.6235
0.622
0.621
0.6195
0.622
0.615
0.6085
0.6145
0.606
0.604
0.614
0.604
0.6085
0.616
0.609
0.61
0.6105
0.604
0.613
0.624
0.62
0.6145
0.6175
0.619
0.6205
0.627
0.6175
0.606
0.615
0.632
0.632
0.6255
0.62
0.617
0.6205
0.6205
0.6205
0.6195
0.6145
0.6175
0.622
0.6165
0.6135
0.614
0.6085
0.607
0.61
0.6045
0.6075
0.615
0.611
0.6145
0.605
0.596
0.596
0.5995
0.6005
0.586
0.591
0.6
0.604
0.605
0.5985
0.583
0.566
0.5585
0.5515
0.56
0.5715
0.5485
0.5285
0.532
0.523
0.4935
0.4745
0.4945
0.544
0.561
0.5645
0.562
0.5455
0.604
0.669
0.6785
0.67
0.657
0.6455
0.644
0.6595
0.652
0.6385
0.639
0.635
0.632
0.635
0.6335
0.626
0.6225
0.622
0.625
0.627
0.62
0.6095
0.608
0.612
0.6155
0.6165
0.615
0.615
0.615
0.608
0.6065
0.6115
0.607
0.6035
0.6015
0.602
0.604
0.5975
0.5925
0.5955
0.606
0.6145
0.6045
0.6015
0.6015
0.5915
0.5955
0.597
0.601
0.6035
0.595
0.605
0.617
0.622
0.6125
0.5995
0.6065
0.615
0.6165
0.6095
0.605
0.6095
0.607
0.602
0.6025
0.604
0.6075
0.6105
0.6075
0.6085
0.6065
0.595
0.594
0.607
0.622
0.6105
0.5995
0.6125
0.615
0.6165
0.615
0.605
0.604
0.606
0.606
0.6085
0.6065
0.599
0.5985
0.597
0.605
0.617
0.614
0.6125
0.606
0.6065
0.6085
0.604
0.604
0.6035
0.608
0.611
0.619
0.6335
0.632
0.6215
0.621
0.6245
0.6295
0.635
0.631
0.614
0.6135
0.6395
0.6475
0.634
0.6265
0.621
0.624
0.6325
0.6335
0.6365
0.6375
0.636
0.6385
0.639
0.6365
0.643
0.645
0.642
0.6495
0.6515
0.6515
0.654
0.6525
0.651
0.6475
0.643
0.639
0.6395
0.639
0.629
0.629
0.6365
0.634
0.636
0.654
0.661
0.66
0.6725
0.673
0.664
0.661
0.662
0.661
0.659
0.663
0.66
0.656
0.657
0.6595
0.6655
0.6635
0.6565
0.652
0.6525
0.6475
0.6405
0.6375
0.6345
0.633
0.6315
0.6365
0.6315
0.622
0.6185
0.614
0.605
0.603
0.607
0.599
0.5965
0.594
0.591
0.598
0.596
0.5935
0.59
0.59
0.592
0.586
0.5875
0.5975
0.6005
0.5995
0.6075
0.6035
0.597
0.5985
0.597
0.6
0.596
0.598
0.598
0.594
0.59
0.587
0.591
0.5905
0.5985
0.5935
0.594
0.6115
0.6035
0.596
0.596
0.5965
0.598
0.594
0.595
0.597
0.5955
0.5945
0.59
0.5895
0.59
0.59
0.594
0.5915
0.594
0.5955
0.5925
0.59
0.5865
0.5865
0.585
0.5885
0.589
0.584
0.5815
0.5855
0.5825
0.5745
0.573
0.578
0.585
0.5855
0.5885
0.591
0.598
0.598
0.6005
0.62
0.6315
0.6445
0.661
0.6855
0.7215
0.736
0.7385
0.7515
0.77
0.7935
0.8175
0.8415
0.863
0.8825
0.907
0.9195
0.9245
0.9365
0.956
0.981
0.992
0.991
0.9895
0.9775
0.9575
0.933
0.9015
0.865
0.823
0.7945
0.763
0.7345
0.6995
0.658
0.644
0.6285
0.6095
0.5885
0.5625
0.5475
0.534
0.5225
0.5205
0.521
0.515
0.5125
0.5175
0.516
0.5195
0.526
0.5405
0.5495
0.549
0.577
0.6055
0.612
0.6115
0.6205
0.633
0.638
0.6385
0.6425
0.6505
0.653
0.6495
0.648
0.65
0.6455
0.6385
0.637
0.6365
0.636
0.632
0.6225
0.6135
0.6145
0.6245
0.6285
0.627
0.6215
0.6145
0.617
0.6215
0.6255
0.618
0.614
0.608
0.6
0.6085
0.618
0.621
0.62
0.617
0.6115
0.6145
0.6125
0.6085
0.612
0.6095
0.609
0.6245
0.636
0.626
0.6205
0.6215
0.6245
0.625
0.6225
0.6195
0.6105
0.6125
0.616
0.62
0.6175
0.6135
0.616
0.613
0.613
0.618
0.626
0.624
0.6315
0.646
0.6345
0.6235
0.626
0.629
0.629
0.6235
0.619
0.626
0.6305
0.6195
0.623
0.6365
0.6355
0.6395
0.6375
0.6355
0.6365
0.6285
0.631
0.633
0.635
0.6405
0.6415
0.6405
0.6395
0.639
0.6325
0.634
0.6345
0.6385
0.6445
0.6345
0.626
0.6255
0.6465
0.661
0.6495
0.642
0.64
0.6465
0.6505
0.6445
0.646
0.649
0.6475
0.645
0.653
0.6575
0.6545
0.6555
0.662
0.667
0.665
0.667
0.6575
0.663
0.6785
0.6735
0.6695
0.668
0.6715
0.675
0.681
0.684
0.681
0.6805
0.6825
0.6865
0.693
0.688
0.688
0.6955
0.702
0.71
0.707
0.6985
0.6915
0.6905
0.7
0.707
0.703
0.705
0.715
0.7265
0.7375
0.732
0.725
0.73
0.7335
0.7295
0.7305
0.743
0.7485
0.7565
0.7635
0.756
0.7585
0.7665
0.759
0.755
0.7615
0.7685
0.7755
0.7765
0.7755
0.7665
0.7635
0.7765
0.787
0.793
0.79
0.789
0.788
0.781
0.779
0.7915
0.7985
0.795
0.7935
0.791
0.7935
0.794
0.795
0.7935
0.792
0.795
0.7945
0.794
0.792
0.7905
0.788
0.79
0.796
0.802
0.7955
0.7815
0.788
0.7925
0.789
0.7875
0.7805
0.7765
0.773
0.7695
0.769
0.7655
0.759
0.7555
0.7505
0.744
0.7405
0.735
0.7295
0.727
0.724
0.7165
0.712
0.713
0.707
0.6965
0.689
0.684
0.68
0.675
0.6755
0.674
0.664
0.663
0.662
0.6565
0.6565
0.6535
0.6485
0.644
0.642
0.638
0.6335
0.6265
0.62
0.6165
0.616
0.6125
0.601
0.6015
0.608
0.613
0.606
0.5995
0.609
0.6185
0.625
0.626
0.6245
0.616
0.6015
0.5975
0.6035
0.6065
0.6
0.5945
0.599
0.611
0.61
0.601
0.5945
0.5845
0.592
0.598
0.5995
0.6035
0.601
0.595
0.5745
0.5775
0.598
0.597
0.588
0.586
0.591
0.5975
0.602
0.598
0.595
0.594
0.592
0.593
0.5965
0.596
0.59
0.5845
0.575
0.5815
0.5885
0.5915
0.5995
0.591
0.59
0.5905
0.5905
0.592
0.586
0.5855
0.593
0.594
0.59
0.591
0.5845
0.5825
0.5855
0.5875
0.592
0.592
0.5895
0.5905
0.59
0.589
0.5875
0.5845
0.5905
0.592
0.589
0.589
0.5905
0.59
0.5905
0.592
0.5925
0.594
0.5895
0.5905
0.596
0.593
0.589
0.5895
0.5845
0.584
0.5905
0.593
0.5975
0.595
0.591
0.594
0.593
0.588
0.5825
0.5795
0.5725
0.5665
0.572
0.572
0.576
0.595
0.598
0.6005
0.6025
0.5905
0.5835
0.58
0.5785
0.582
0.582
0.5775
0.576
0.579
0.5925
0.603
0.606
0.6085
0.6035
0.598
0.589
0.593
0.605
0.6095
0.603
0.5815
0.5815
0.603
0.6095
0.601
0.5975
0.601
0.6
0.5985
0.5975
0.5935
0.596
0.596
0.5885
0.585
0.5865
0.594
0.5955
0.596
0.5925
0.5855
0.588
0.5895
0.5885
0.588
0.595
0.5995
0.598
0.5955
0.596
0.598
0.5915
0.59
0.5895
0.586
0.5865
0.5865
0.5925
0.5975
0.6005
0.598
0.592
0.59
0.5905
0.59
0.5845
0.5835
0.5875
0.5935
0.597
0.594
0.591
0.59
0.586
0.5785
0.5795
0.583
0.5855
0.5855
0.592
0.5965
0.5915
0.599
0.598
0.5885
0.5875
0.588
0.5855
0.5865
0.602
0.607
0.596
0.593
0.596
0.5955
0.5935
0.5895
0.589
0.592
0.5925
0.591
0.588
0.585
0.5845
0.587
0.5865
0.5885
0.588
0.587
0.585
0.5805
0.581
0.581
0.5775
0.5725
0.576
0.5875
0.592
0.5915
0.5875
0.5835
0.58
0.583
0.5895
0.5875
0.588
0.5885
0.5905
0.587
0.5825
0.5805
0.573
0.5795
0.5945
0.5955
0.5885
0.587
0.5775
0.564
0.573
0.5895
0.59
0.5875
0.588
0.583
0.584
0.583
0.5815
0.584
0.582
0.585
0.5845
0.578
0.5785
0.5815
0.578
0.579
0.584
0.588
0.596
0.5955
0.5885
0.5825
0.58
0.5825
0.584
0.5815
0.5775
0.5805
0.581
0.5705
0.573
0.5795
0.5755
0.5725
0.574
0.5765
0.5735
0.5725
0.573
0.575
0.585
0.596
0.5945
0.589
0.5865
0.586
0.5855
0.5855
0.5835
0.581
0.5785
0.5765
0.5765
0.575
0.5805
0.584
0.587
0.5845
0.5785
0.5825
0.5795
0.5775
0.581
0.5815
0.577
0.578
0.5825
0.579
0.5785
0.5835
0.58
0.5715
0.5665
0.565
0.572
0.5775
0.5835
0.582
0.572
0.5735
0.5835
0.5885
0.591
0.586
0.575
0.582
0.588
0.5855
0.5835
0.58
0.5715
0.5685
0.5815
0.5925
0.5925
0.586
0.5835
0.5785
0.5635
0.559
0.575
0.586
0.5845
0.584
0.583
0.5825
0.5825
0.5855
0.583
0.5775
0.574
0.573
0.571
0.568
0.572
0.5715
0.5775
0.582
0.577
0.5765
0.5785
0.5745
0.5705
0.5735
0.5715
0.5715
0.575
0.578
0.5825
0.581
0.577
0.576
0.57
0.572
0.582
0.5815
0.592
0.6035
0.6045
0.602
0.6005
0.6005
0.5955
0.5975
0.599
0.5965
0.596
0.592
0.5885
0.5855
0.5865
0.588
0.585
0.588
0.595
0.606
0.6115
0.611
0.608
0.605
0.609
0.613
0.6215
0.622
0.618
0.6205
0.621
0.6195
0.62
0.621
0.6185
0.6165
0.615
0.615
0.6155
0.6185
0.6165
0.6135
0.6215
0.6135
0.6095
0.6135
0.6065
0.608
0.615
0.6235
0.626
0.621
0.613
0.6185
0.6315
0.6345
0.625
0.6215
0.6265
0.627
0.6315
0.6275
0.619
0.6165
0.614
0.611
0.6005
0.5825
0.566
0.5695
0.5805
0.5735
0.5645
0.562
0.5685
0.5785
0.573
0.558
0.557
0.5615
0.5675
0.5775
0.5795
0.5715
0.566
0.568
0.572
0.5725
0.565
0.5615
0.563
0.563
0.57
0.571
0.5705
0.567
0.5615
0.5655
0.5665
0.571
0.5685
0.562
0.5605
0.56
0.56
0.5595
0.5605
0.564
0.5665
0.567
0.5725
0.5715
0.5685
0.571
0.566
0.566
0.5675
0.565
0.5675
0.5685
0.5605
0.5535
0.5525
0.552
0.549
0.547
0.5565
0.5615
0.5595
0.563
0.56
0.56
0.5545
0.5475
0.547
0.543
0.5435
0.538
0.5415
0.548
0.5465
0.557
0.559
0.565
0.577
0.5835
0.594
0.606
0.625
0.6415
0.6615
0.6805
0.6875
0.709
0.7435
0.764
0.776
0.794
0.8045
0.836
0.875
0.893
0.906
0.923
0.954
0.967
0.9755
0.9975
1.004
1.001
0.9935
0.9885
0.9765
0.943
0.9015
0.855
0.8265
0.8095
0.774
0.7345
0.6935
0.6645
0.642
0.613
0.5885
0.561
0.5355
0.509
0.4875
0.483
0.4835
0.4915
0.4985
0.5005
0.4985
0.498
0.506
0.519
0.542
0.563
0.577
0.5895
0.6
0.6085
0.613
0.616
0.624
0.6355
0.639
0.6325
0.6295
0.628
0.6205
0.6205
0.622
0.6165
0.611
0.608
0.604
0.6025
0.6065
0.606
0.6015
0.599
0.598
0.597
0.5925
0.5895
0.5885
0.587
0.588
0.591
0.5955
0.5945
0.591
0.5905
0.597
0.6035
0.602
0.597
0.595
0.6015
0.5985
0.5905
0.5915
0.5945
0.596
0.592
0.5905
0.586
0.5795
0.579
0.581
0.583
0.579
0.585
0.5975
0.6105
0.61
0.598
0.6005
0.6015
0.603
0.607
0.6105
0.6095
0.6055
0.6045
0.601
0.5985
0.61
0.618
0.6115
0.61
0.6135
0.618
0.6185
0.6135
0.6075
0.6095
0.6095
0.606
0.6095
0.61
0.6065
0.6085
0.6115
0.611
0.607
0.605
0.615
0.6185
0.6165
0.621
0.6185
0.6165
0.619
0.6125
0.6145
0.619
0.6155
0.625
0.6265
0.6205
0.621
0.616
0.612
0.613
0.6135
0.6155
0.617
0.618
0.6265
0.6335
0.6385
0.642
0.6405
0.6415
0.6435
0.6395
0.6375
0.648
0.6475
0.6405
0.6465
0.6475
0.645
0.6435
0.6445
0.646
0.648
0.6495
0.646
0.6505
0.6555
0.6565
0.6595
0.6615
0.663
0.6655
0.67
0.675
0.6745
0.676
0.6785
0.676
0.6805
0.682
0.684
0.688
0.682
0.6805
0.689
0.694
0.6905
0.6915
0.698
0.6995
0.7125
0.7275
0.726
0.724
0.725
0.729
0.7315
0.7285
0.7335
0.7395
0.738
0.742
0.741
0.7355
0.747
0.757
0.7515
0.7445
0.7375
0.7505
0.767
0.764
0.7555
0.754
0.7565
0.752
0.7555
0.766
0.777
0.7795
0.773
0.767
0.764
0.7645
0.7705
0.782
0.79
0.7885
0.779
0.7725
0.7655
0.76
0.771
0.7755
0.7705
0.772
0.7775
0.781
0.778
0.772
0.767
0.764
0.7585
0.75
0.741
0.74
0.7455
0.745
0.7425
0.736
0.725
0.719
0.716
0.712
0.709
0.7015
0.699
0.692
0.6845
0.685
0.686
0.6925
0.6855
0.6775
0.671
0.665
0.6615
0.6565
0.6525
0.644
0.6435
0.6435
0.6385
0.6355
0.6305
0.624
0.623
0.619
0.616
0.6125
0.604
0.6035
0.604
0.6005
0.603
0.6045
0.5965
0.5915
0.5925
0.589
0.5845
0.582
0.5765
0.5715
0.5745
0.586
0.589
0.584
0.5815
0.5795
0.5725
0.5675
0.5745
0.575
0.566
0.5575
0.571
0.5805
0.572
0.57
0.5695
0.575
0.573
0.561
0.5685
0.578
0.574
0.5865
0.5885
0.571
0.5625
0.5655
0.5675
0.566
0.5645
0.5625
0.564
0.566
0.5635
0.558
0.5565
0.556
0.5565
0.563
0.566
0.5665
0.567
0.571
0.5685
0.5675
0.566
0.561
0.5655
0.5685
0.5765
0.5785
0.5755
0.575
0.566
0.5525
0.558
0.571
0.5655
0.5605
0.5645
0.568
0.5735
0.5735
0.5715
0.5755
0.574
0.571
0.5715
0.569
0.5695
0.5695
0.5715
0.5715
0.5665
0.565
0.5655
0.5655
0.565
0.563
0.563
0.566
0.5675
0.564
0.563
0.5685
0.575
0.578
0.575
0.571
0.5665
0.5635
0.566
0.564
0.562
0.565
0.564
0.562
0.5625
0.5575
0.5565
0.5735
0.586
0.5785
0.5665
0.569
0.5855
0.588
0.5775
0.565
0.565
0.576
0.5805
0.575
0.5715
0.5745
0.576
0.576
0.5715
0.571
0.5715
0.5695
0.5695
0.5705
0.574
0.573
0.5665
0.5645
0.563
0.564
0.5695
0.5735
0.578
0.576
0.568
0.564
0.5665
0.57
0.5685
0.5695
0.568
0.567
0.5675
0.5645
0.562
0.5615
0.56
0.5535
0.553
0.559
0.572
0.578
0.5735
0.5715
0.5635
0.5615
0.5695
0.572
0.571
0.573
0.568
0.5595
0.563
0.5635
0.5635
0.5675
0.5695
0.5815
0.582
0.575
0.5715
0.5675
0.5665
0.5625
0.5635
0.5635
0.5645
0.565
0.564
0.565
0.5645
0.562
0.5615
0.5665
0.5615
0.5565
0.559
0.5555
0.5485
0.546
0.5445
0.548
0.5585
0.5505
0.5445
0.5565
0.566
0.5695
0.569
0.569
0.567
0.5635
0.5525
0.5495
0.566
0.571
0.5585
0.5575
0.5595
0.558
0.5605
0.551
0.548
0.5525
0.553
0.553
0.5615
0.5605
0.5525
0.5565
0.5525
0.5505
0.5495
0.547
0.5485
0.5495
0.55
0.549
0.548
0.5475
0.547
0.5495
0.5535
0.555
0.5585
0.553
0.5455
0.5415
0.546
0.554
0.548
0.553
0.5575
0.552
0.553
0.5535
0.551
0.548
0.548
0.549
0.5465
0.548
0.5495
0.5475
0.552
0.553
0.5535
0.5545
0.5505
0.554
0.5495
0.543
0.5405
0.5355
0.5345
0.5385
0.544
0.5395
0.536
0.54
0.5435
0.549
0.5585
0.566
0.571
0.5685
0.5595
0.555
0.5545
0.554
0.552
0.5525
0.55
0.5485
0.5515
0.5485
0.545
0.5435
0.542
0.5435
0.5465
0.5525
0.549
0.5455
0.5475
0.541
0.538
0.5485
0.563
0.562
0.555
0.559
0.557
0.555
0.561
0.5545
0.5445
0.5335
0.5385
0.554
0.545
0.5435
0.549
0.5415
0.5375
0.5475
0.5555
0.5575
0.559
0.553
0.5515
0.55
0.5505
0.5565
0.5525
0.5465
0.549
0.55
0.5465
0.545
0.547
0.547
0.547
0.543
0.537
0.5385
0.539
0.5355
0.538
0.547
0.5505
0.552
0.553
0.552
0.552
0.551
0.5545
0.553
0.5495
0.549
0.547
0.5465
0.546
0.5465
0.5435
0.54
0.5425
0.5435
0.543
0.545
0.5445
0.5435
0.538
0.542
0.5415
0.54
0.5495
0.546
0.544
0.547
0.5455
0.544
0.5465
0.551
0.553
0.5505
0.5435
0.5345
0.5425
0.551
0.5445
0.537
0.533
0.547
0.5555
0.5515
0.544
0.5355
0.543
0.545
0.5465
0.5535
0.551
0.5445
0.5485
0.558
0.554
0.549
0.55
0.55
0.5475
0.5455
0.5475
0.548
0.5455
0.545
0.5485
0.548
0.5475
0.5565
0.5575
0.5565
0.563
0.5655
0.5555
0.545
0.561
0.585
0.5795
0.5645
0.56
0.55
0.5485
0.552
0.5525
0.5575
0.564
0.573
0.5775
0.576
0.5775
0.584
0.584
0.583
0.589
0.5895
0.5885
0.588
0.588
0.5895
0.589
0.5905
0.586
0.5825
0.581
0.582
0.5905
0.594
0.5865
0.5845
0.5845
0.583
0.587
0.5825
0.577
0.575
0.579
0.584
0.5855
0.5865
0.587
0.591
0.596
0.5985
0.597
0.5925
0.59
0.59
0.5875
0.585
0.5885
0.5885
0.5875
0.5845
0.5755
0.5625
0.548
0.548
0.542
0.5405
0.5425
0.5375
0.5375
0.528
0.529
0.535
0.529
0.5285
0.5315
0.5305
0.53
0.526
0.528
0.535
0.533
0.5315
0.5255
0.5215
0.5235
0.524
0.526
0.5315
0.5445
0.5485
0.541
0.5395
0.5375
0.5365
0.534
0.535
0.536
0.5335
0.5335
0.527
0.5285
0.5405
0.5435
0.539
0.5375
0.534
0.5325
0.52
0.515
0.534
0.539
0.53
0.526
0.528
0.523
0.518
0.5215
0.5215
0.52
0.52
0.5175
0.5145
0.519
0.529
0.532
0.5255
0.521
0.5195
0.5165
0.5105
0.5085
0.514
0.5125
0.5085
0.51
0.512
0.521
0.525
0.524
0.536
0.544
0.561
0.578
0.5875
0.608
0.6295
0.647
0.6625
0.6745
0.6875
0.71
0.7275
0.742
0.77
0.809
0.841
0.8615
0.882
0.895
0.9155
0.9345
0.951
0.9755
0.9805
0.9825
0.984
0.971
0.954
0.926
0.8835
0.8405
0.806
0.786
0.7575
0.715
0.6775
0.6425
0.612
0.58
0.562
0.5435
0.516
0.4915
0.4635
0.4545
0.454
0.4555
0.462
0.46
0.4535
0.4565
0.4625
0.47
0.487
0.5045
0.519
0.531
0.545
0.5555
0.5715
0.5975
0.6075
0.6
0.583
0.582
0.602
0.603
0.5945
0.5885
0.581
0.579
0.5785
0.5715
0.563
0.562
0.5665
0.5675
0.559
0.5575
0.556
0.5495
0.551
0.5495
0.5565
0.5725
0.5675
0.56
0.559
0.559
0.559
0.5575
0.553
0.55
0.553
0.555
0.558
0.5585
0.5575
0.558
0.556
0.5565
0.554
0.5485
0.5555
0.5575
0.5545
0.556
0.5575
0.5625
0.563
0.558
0.559
0.565
0.5615
0.5575
0.559
0.5575
0.5565
0.56
0.563
0.5615
0.561
0.563
0.5605
0.5615
0.5625
0.5605
0.559
0.5565
0.558
0.5595
0.566
0.5725
0.5765
0.573
0.566
0.57
0.5745
0.573
0.5665
0.567
0.5615
0.5645
0.5805
0.576
0.563
0.555
0.566
0.5795
0.5745
0.574
0.5745
0.5725
0.5735
0.5725
0.576
0.572
0.5685
0.583
0.585
0.5745
0.5755
0.5805
0.5825
0.576
0.577
0.5815
0.5805
0.5815
0.5785
0.578
0.5845
0.5935
0.5905
0.587
0.596
0.6065
0.608
0.6035
0.6035
0.6035
0.6075
0.6075
0.605
0.6085
0.611
0.613
0.613
0.619
0.6215
0.6145
0.615
0.6165
0.6185
0.6215
0.6245
0.6275
0.628
0.629
0.632
0.634
0.6385
0.643
0.641
0.6405
0.6415
0.646
0.6505
0.655
0.662
0.6685
0.6705
0.671
0.6745
0.6755
0.675
0.6765
0.6795
0.682
0.683
0.6835
0.6865
0.691
0.6915
0.692
0.6945
0.6955
0.6955
0.703
0.711
0.7065
0.7025
0.7075
0.723
0.738
0.7315
0.7125
0.7055
0.7225
0.7365
0.7325
0.732
0.7355
0.7335
0.733
0.729
0.73
0.7345
0.73
0.734
0.7305
0.7275
0.742
0.7485
0.752
0.7435
0.733
0.7285
0.722
0.725
0.7285
0.7255
0.72
0.7285
0.7355
0.725
0.7185
0.713
0.709
0.707
0.704
0.7
0.694
0.6895
0.685
0.675
0.668
0.666
0.6595
0.6655
0.677
0.6695
0.6575
0.6495
0.6415
0.635
0.6275
0.6255
0.629
0.6305
0.6235
0.6145
0.6115
0.6065
0.599
0.594
0.5945
0.5905
0.586
0.5845
0.5765
0.5735
0.572
0.569
0.568
0.569
0.5645
0.5585
0.557
0.552
0.551
0.547
0.539
0.5375
0.539
0.538
0.534
0.538
0.548
0.5465
0.5395
0.539
0.5315
0.526
0.534
0.534
0.53
0.53
0.524
0.5235
0.528
0.537
0.535
0.524
0.5205
0.517
0.518
0.523
0.5275
0.53
0.5285
0.524
0.527
0.5305
0.5245
0.5215
0.523
0.5215
0.5185
0.5205
0.5255
0.5295
0.528
0.5245
0.5225
0.5235
0.525
0.521
0.5235
0.5225
0.519
0.519
0.5185
0.519
0.513
0.5125
0.5165
0.5185
0.5135
0.5035
0.5105
0.516
0.527
0.5335
0.5255
0.5235
0.524
0.5285
0.53
0.534
0.5365
0.532
0.528
0.528
0.529
0.526
0.5235
0.5275
0.5295
0.5275
0.527
0.5265
0.5235
0.5235
0.525
0.527
0.532
0.528
0.524
0.5205
0.524
0.5315
0.5315
0.5315
0.5285
0.5285
0.527
0.5225
0.5245
0.5275
0.5305
0.535
0.531
0.523
0.526
0.5305
0.532
0.529
0.5265
0.527
0.5255
0.5255
0.5275
0.5305
0.5275
0.523
0.5265
0.5265
0.5265
0.5145
0.516
0.5335
0.523
0.514
0.5235
0.539
0.5365
0.5275
0.5335
0.5295
0.528
0.5305
0.5275
0.53
0.5315
0.5345
0.5345
0.5315
0.531
0.531
0.5295
0.525
0.527
0.525
0.523
0.524
0.5215
0.522
0.531
0.5365
0.5295
0.526
0.5265
0.522
0.5205
0.521
0.522
0.5205
0.5165
0.5175
0.5185
0.5185
0.5135
0.5195
0.526
0.525
0.523
0.5175
0.521
0.524
0.5225
0.517
0.523
0.533
0.534
0.5335
0.5285
0.5245
0.521
0.5245
0.531
0.5285
0.5245
0.5225
0.518
0.515
0.5135
0.5105
0.5085
0.5135
0.523
0.519
0.509
0.505
0.515
0.53
0.528
0.521
0.5235
0.5205
0.5215
0.5225
0.5235
0.524
0.5235
0.523
0.5175
0.5175
0.5155
0.5165
0.517
0.516
0.5135
0.515
0.5225
0.519
0.5175
0.519
0.5165
0.515
0.5075
0.509
0.519
0.521
0.5175
0.514
0.51
0.5075
0.508
0.507
0.507
0.513
0.516
0.516
0.5205
0.515
0.5115
0.5115
0.503
0.4955
0.504
0.5165
0.511
0.509
0.516
0.512
0.507
0.5115
0.512
0.509
0.509
0.5195
0.523
0.515
0.5145
0.5195
0.519
0.5185
0.518
0.517
0.5155
0.511
0.5105
0.516
0.5175
0.5135
0.5125
0.513
0.514
0.512
0.513
0.516
0.519
0.5205
0.516
0.5165
0.518
0.5165
0.515
0.511
0.508
0.5095
0.506
0.502
0.5095
0.5105
0.5105
0.5135
0.5145
0.5155
0.5155
0.514
0.51
0.511
0.5085
0.508
0.5155
0.5185
0.515
0.516
0.5175
0.5075
0.509
0.513
0.5075
0.5015
0.4955
0.4975
0.4995
0.49
0.485
0.495
0.515
0.5255
0.5135
0.5035
0.503
0.515
0.517
0.508
0.521
0.53
0.527
0.52
0.517
0.5145
0.5095
0.518
0.52
0.513
0.5145
0.5155
0.5115
0.5115
0.5075
0.5055
0.5075
0.5085
0.5055
0.501
0.501
0.5065
0.5145
0.511
0.5035
0.489
0.481
0.5075
0.5345
0.5345
0.5255
0.5185
0.5195
0.5195
0.513
0.5105
0.515
0.523
0.52
0.5155
0.5125
0.512
0.5155
0.514
0.514
0.5155
0.5115
0.5095
0.511
0.514
0.5105
0.503
0.504
0.498
0.4975
0.503
0.503
0.5105
0.5225
0.52
0.509
0.5105
0.5135
0.5095
0.5015
0.5015
0.513
0.5185
0.516
0.5145
0.514
0.516
0.5155
0.512
0.51
0.5075
0.5075
0.5085
0.507
0.509
0.508
0.5075
0.509
0.502
0.5005
0.5055
0.506
0.4985
0.496
0.4945
0.492
0.5065
0.514
0.5175
0.5185
0.5145
0.514
0.511
0.51
0.5065
0.509
0.517
0.5185
0.518
0.521
0.522
0.5205
0.522
0.5195
0.518
0.5205
0.5195
0.5255
0.5285
0.5295
0.532
0.5315
0.5325
0.535
0.539
0.5335
0.524
0.5185
0.5155
0.5165
0.5235
0.52
0.5085
0.5195
0.544
0.5535
0.5555
0.555
0.5565
0.558
0.553
0.554
0.5545
0.5555
0.555
0.5545
0.5565
0.555
0.553
0.5515
0.5505
0.551
0.555
0.551
0.5525
0.5535
0.548
0.5485
0.5515
0.553
0.5455
0.544
0.5475
0.55
0.5565
0.5595
0.556
0.554
0.5545
0.558
0.5615
0.5595
0.558
0.5595
0.5585
0.558
0.5585
0.556
0.5575
0.5535
0.5465
0.5395
0.5245
0.519
0.519
0.5175
0.5115
0.5075
0.5035
0.5005
0.5015
0.503
0.503
0.496
0.491
0.4905
0.4945
0.496
0.493
0.4895
0.4855
0.488
0.4945
0.4875
0.4805
0.4785
0.474
0.4865
0.5005
0.5015
0.5005
0.506
0.4995
0.4875
0.492
0.498
0.5055
0.514
0.5115
0.5075
0.5015
0.495
0.4945
0.497
0.496
0.493
0.497
0.4975
0.4975
0.495
0.49
0.4895
0.4895
0.491
0.487
0.4845
0.489
0.4945
0.4935
0.4895
0.49
0.49
0.477
0.4725
0.4915
0.4915
0.48
0.477
0.4775
0.482
0.485
0.4835
0.4835
0.482
0.48
0.484
0.485
0.49
0.4975
0.5005
0.5065
0.5115
0.5225
0.5305
0.5375
0.558
0.5895
0.6195
0.639
0.656
0.6725
0.6915
0.709
0.721
0.737
0.77
0.8085
0.8385
0.861
0.8775
0.899
0.9145
0.926
0.9455
0.964
0.961
0.949
0.947
0.9375
0.9145
0.8715
0.8195
0.78
0.7565
0.7335
0.694
0.649
0.6135
0.5825
0.5425
0.519
0.5015
0.473
0.45
0.4245
0.4125
0.4115
0.408
0.409
0.4095
0.41
0.417
0.4335
0.446
0.458
0.4745
0.493
0.505
0.516
0.5395
0.544
0.547
0.554
0.5555
0.5615
0.5585
0.5545
0.5605
0.5735
0.5675
0.5545
0.5505
0.544
0.5425
0.5415
0.5395
0.5355
0.5335
0.5395
0.5355
0.5295
0.528
0.525
0.5245
0.522
0.5215
0.521
0.521
0.527
0.526
0.527
0.525
0.5155
0.5135
0.5275
0.5365
0.53
0.528
0.53
0.5325
0.537
0.5365
0.5325
0.5315
0.5335
0.536
0.536
0.533
0.5305
0.5285
0.5265
0.524
0.5205
0.521
0.529
0.539
0.5395
0.5345
0.5355
0.5365
0.533
0.5305
0.5315
0.535
0.5345
0.5285
0.53
0.534
0.535
0.5345
0.533
0.5325
0.5295
0.5295
0.534
0.542
0.5455
0.544
0.536
0.5355
0.5445
0.54
0.5365
0.546
0.557
0.5585
0.5535
0.5545
0.5535
0.5505
0.55
0.5485
0.553
0.552
0.55
0.554
0.5545
0.5515
0.5485
0.5495
0.5475
0.544
0.545
0.547
0.547
0.552
0.5595
0.5675
0.571
0.565
0.561
0.5625
0.569
0.571
0.567
0.5695
0.565
0.5555
0.553
0.568
0.5835
0.5855
0.588
0.584
0.5795
0.5795
0.589
0.594
0.5865
0.578
0.5735
0.59
0.606
0.5965
0.5885
0.5905
0.593
0.592
0.5895
0.596
0.6085
0.6135
0.6105
0.615
0.619
0.615
0.6115
0.619
0.632
0.6405
0.642
0.6435
0.646
0.6465
0.6475
0.6515
0.657
0.654
0.6505
0.6565
0.663
0.663
0.664
0.668
0.673
0.677
0.685
0.687
0.6815
0.692
0.697
0.691
0.696
0.6945
0.6915
0.693
0.6905
0.6905
0.693
0.6885
0.689
0.7015
0.7025
0.7025
0.708
0.7135
0.716
0.7115
0.7105
0.7095
0.709
0.7165
0.7205
0.7165
0.715
0.712
0.709
0.708
0.7085
0.709
0.711
0.7095
0.7025
0.702
0.708
0.708
0.696
0.6895
0.687
0.683
0.6785
0.672
0.6685
0.667
0.678
0.6805
0.669
0.66
0.6555
0.66
0.658
0.6565
0.653
0.642
0.633
0.62
0.608
0.6105
0.6215
0.6175
0.6035
0.5975
0.593
0.584
0.5775
0.577
0.58
0.5745
0.567
0.5675
0.5625
0.559
0.556
0.551
0.548
0.5445
0.5455
0.546
0.541
0.535
0.529
0.5285
0.5285
0.521
0.518
0.52
0.5175
0.5125
0.518
0.529
0.526
0.519
0.5205
0.521
0.5145
0.509
0.5095
0.51
0.5105
0.513
0.513
0.509
0.5035
0.503
0.503
0.5055
0.5095
0.509
0.507
0.5025
0.5005
0.494
0.4925
0.499
0.5045
0.504
0.5025
0.505
0.5015
0.501
0.4985
0.5
0.501
0.5
0.502
0.501
0.507
0.511
0.506
0.503
0.505
0.502
0.499
0.497
0.498
0.499
0.497
0.4985
0.5005
0.5
0.497
0.5
0.5015
0.5025
0.5055
0.503
0.5035
0.504
0.5015
0.5025
0.506
0.5005
0.4945
0.5015
0.506
0.5025
0.503
0.504
0.508
0.5085
0.5035
0.4985
0.4985
0.5035
0.502
0.503
0.5025
0.5015
0.4985
0.495
0.4975
0.498
0.502
0.5
0.4995
0.5025
0.5
0.501
0.503
0.501
0.497
0.499
0.4985
0.4965
0.5025
0.501
0.4975
0.504
0.5035
0.5015
0.505
0.504
0.5
0.5
0.5005
0.4965
0.4975
0.5015
0.503
0.5005
0.5055
0.509
0.5085
0.512
0.501
0.4945
0.4915
0.4885
0.4885
0.485
0.4835
0.491
0.495
0.4965
0.504
0.498
0.4825
0.4845
0.508
0.513
0.5005
0.4965
0.5035
0.516
0.5225
0.506
0.4895
0.507
0.5205
0.522
0.523
0.52
0.513
0.506
0.5105
0.5105
0.5045
0.502
0.503
0.505
0.507
0.507
0.5025
0.503
0.504
0.501
0.5015
0.4975
0.5
0.507
0.5055
0.502
0.501
0.5025
0.5025
0.506
0.507
0.502
0.498
0.502
0.506
0.4985
0.495
0.4935
0.496
0.5025
0.502
0.5005
0.501
0.505
0.507
0.5025
0.5015
0.4985
0.495
0.4955
0.495
0.496
0.4965
0.4925
0.492
0.4995
0.498
0.4955
0.4965
0.493
0.493
0.4965
0.4935
0.492
0.496
0.4935
0.491
0.491
0.493
0.4935
0.491
0.493
0.489
0.487
0.485
0.481
0.4825
0.4745
0.47
0.4755
0.4745
0.4725
0.4805
0.475
0.468
0.485
0.5085
0.5045
0.4835
0.4965
0.5155
0.518
0.5165
0.503
0.499
0.5015
0.496
0.4935
0.497
0.5015
0.5055
0.5065
0.5005
0.498
0.4965
0.497
0.5005
0.499
0.499
0.4915
0.49
0.497
0.4935
0.49
0.487
0.487
0.491
0.492
0.49
0.4905
0.49
0.4915
0.491
0.49
0.4875
0.4845
0.489
0.4865
0.485
0.4875
0.4915
0.4895
0.4865
0.4905
0.4925
0.491
0.487
0.486
0.4875
0.49
0.4875
0.482
0.479
0.485
0.485
0.4805
0.489
0.494
0.4865
0.485
0.491
0.4895
0.4885
0.4865
0.489
0.4905
0.484
0.4835
0.4905
0.493
0.4885
0.488
0.49
0.486
0.4875
0.4915
0.49
0.492
0.489
0.4915
0.4895
0.484
0.4895
0.4855
0.482
0.4855
0.486
0.488
0.486
0.4805
0.4805
0.476
0.477
0.4825
0.4865
0.4855
0.4745
0.471
0.463
0.4625
0.4735
0.4855
0.485
0.4755
0.4845
0.494
0.491
0.497
0.502
0.4905
0.4825
0.482
0.4795
0.4705
0.4685
0.483
0.496
0.49
0.4845
0.4975
0.503
0.4995
0.497
0.489
0.4865
0.4815
0.4765
0.481
0.4865
0.4925
0.4925
0.485
0.4905
0.499
0.4965
0.489
0.4835
0.4815
0.48
0.4805
0.478
0.482
0.489
0.4865
0.485
0.485
0.4805
0.488
0.489
0.483
0.487
0.4875
0.483
0.481
0.4865
0.487
0.484
0.484
0.4875
0.486
0.489
0.4955
0.487
0.481
0.4775
0.475
0.4805
0.4845
0.483
0.485
0.4825
0.48
0.4815
0.4785
0.481
0.4845
0.4845
0.4785
0.483
0.494
0.4905
0.4865
0.493
0.495
0.4915
0.498
0.4975
0.498
0.501
0.4955
0.496
0.4975
0.4965
0.4975
0.5025
0.4925
0.484
0.492
0.498
0.502
0.4975
0.4925
0.489
0.4895
0.497
0.507
0.515
0.5355
0.5425
0.5185
0.5225
0.5375
0.5305
0.527
0.533
0.535
0.533
0.5365
0.5325
0.524
0.5225
0.527
0.5315
0.5275
0.5255
0.5295
0.5355
0.536
0.5245
0.523
0.5245
0.523
0.5235
0.5225
0.5305
0.542
0.541
0.534
0.5315
0.532
0.5305
0.5305
0.529
0.5235
0.527
0.5255
0.5185
0.5155
0.5135
0.5055
0.4975
0.492
0.487
0.4885
0.482
0.477
0.4775
0.474
0.4675
0.466
0.4675
0.4675
0.4705
0.466
0.463
0.466
0.4685
0.473
0.4725
0.47
0.469
0.471
0.477
0.4745
0.466
0.464
0.469
0.4745
0.4735
0.47
0.471
0.476
0.4735
0.4705
0.4665
0.467
0.47
0.4665
0.4665
0.466
0.4645
0.466
0.4705
0.4665
0.4575
0.4595
0.4665
0.4675
0.462
0.4605
0.4625
0.4665
0.468
0.4615
0.4555
0.4525
0.4575
0.4705
0.47
0.463
0.46
0.466
0.4675
0.4615
0.4575
0.455
0.457
0.449
0.4355
0.434
0.455
0.474
0.474
0.47
0.467
0.4685
0.4745
0.4745
0.484
0.4955
0.5025
0.521
0.5395
0.5605
0.586
0.6045
0.6195
0.6315
0.6325
0.648
0.6805
0.718
0.752
0.781
0.808
0.8205
0.8345
0.849
0.8675
0.874
0.8835
0.891
0.8865
0.888
0.8775
0.8655
0.833
0.795
0.7565
0.7225
0.6965
0.653
0.615
0.5745
0.547
0.5225
0.492
0.47
0.4465
0.4305
0.411
0.395
0.3835
0.3835
0.396
0.401
0.3995
0.3905
0.389
0.391
0.4
0.4245
0.4465
0.4565
0.4705
0.483
0.4875
0.4965
0.5075
0.5215
0.529
0.529
0.5235
0.521
0.529
0.5315
0.5265
0.5205
0.514
0.5085
0.507
0.502
0.4975
0.4975
0.4905
0.487
0.4885
0.4895
0.499
0.508
0.503
0.496
0.499
0.5
0.496
0.4835
0.4645
0.4655
0.4825
0.496
0.502
0.505
0.5095
0.509
0.503
0.4975
0.4975
0.499
0.4955
0.4975
0.5
0.496
0.491
0.483
0.491
0.4995
0.5005
0.504
0.507
0.5135
0.5055
0.5015
0.5035
0.509
0.518
0.514
0.5105
0.509
0.5105
0.5075
0.505
0.5065
0.5115
0.5105
0.5035
0.5065
0.5085
0.5065
0.507
0.513
0.5075
0.5035
0.5095
0.5025
0.5045
0.5115
0.506
0.501
0.4995
0.4985
0.4975
0.4995
0.5085
0.522
0.5155
0.5105
0.5155
0.5125
0.51
0.5075
0.511
0.5115
0.512
0.518
0.5165
0.5115
0.5145
0.522
0.517
0.5125
0.512
0.511
0.515
0.5225
0.5285
0.523
0.5175
0.524
0.5265
0.535
0.5425
0.539
0.5365
0.531
0.5345
0.5345
0.5335
0.5385
0.5345
0.535
0.544
0.5485
0.545
0.5395
0.5375
0.5395
0.5395
0.5475
0.561
0.564
0.566
0.567
0.5655
0.5625
0.561
0.564
0.5705
0.584
0.583
0.5775
0.585
0.591
0.594
0.5925
0.5935
0.6005
0.602
0.5985
0.6045
0.6055
0.6065
0.607
0.6
0.5965
0.5975
0.612
0.621
0.6275
0.6345
0.633
0.6305
0.625
0.633
0.6545
0.6605
0.6535
0.655
0.6535
0.65
0.6545
0.6535
0.653
0.655
0.6525
0.658
0.6675
0.6705
0.669
0.6675
0.6655
0.6635
0.669
0.673
0.6675
0.668
0.664
0.6595
0.6685
0.677
0.6775
0.6765
0.6735
0.6685
0.6615
0.662
0.6695
0.67
0.666
0.6645
0.6625
0.6635
0.6665
0.661
0.6595
0.655
0.6535
0.653
0.645
0.6415
0.638
0.6325
0.6295
0.625
0.612
0.6095
0.604
0.595
0.583
0.5735
0.5855
0.585
0.573
0.5785
0.585
0.576
0.568
0.5625
0.557
0.5525
0.5465
0.5415
0.5365
0.53
0.525
0.527
0.521
0.522
0.5315
0.519
0.5075
0.504
0.509
0.5065
0.4945
0.4925
0.5025
0.5075
0.4935
0.49
0.4925
0.49
0.479
0.474
0.4805
0.474
0.4695
0.4715
0.4785
0.4865
0.489
0.485
0.4825
0.48
0.477
0.4815
0.481
0.476
0.471
0.47
0.465
0.4615
0.4675
0.465
0.4665
0.47
0.4665
0.4665
0.4705
0.465
0.4575
0.4615
0.467
0.467
0.4585
0.457
0.464
0.467
0.465
0.46
0.4585
0.462
0.461
0.46
0.4635
0.4625
0.4615
0.461
0.457
0.455
0.4545
0.456
0.453
0.46
0.4605
0.4545
0.456
0.449
0.447
0.4505
0.446
0.438
0.436
0.4455
0.464
0.479
0.4785
0.4645
0.4615
0.468
0.465
0.457
0.446
0.4565
0.4665
0.4655
0.464
0.4535
0.4635
0.4725
0.463
0.4585
0.461
0.463
0.4555
0.452
0.455
0.4605
0.465
0.459
0.4585
0.462
0.4625
0.457
0.4495
0.4525
0.4535
0.455
0.456
0.4625
0.467
0.4645
0.468
0.461
0.4495
0.449
0.4475
0.449
0.456
0.458
0.462
0.4735
0.475
0.47
0.4635
0.458
0.468
0.467
0.4645
0.468
0.464
0.464
0.462
0.457
0.4605
0.4605
0.4625
0.4655
0.459
0.458
0.454
0.4545
0.465
0.465
0.4625
0.465
0.4615
0.4645
0.467
0.4605
0.4585
0.4585
0.462
0.467
0.4685
0.471
0.465
0.4595
0.465
0.4605
0.459
0.4575
0.4465
0.441
0.44
0.452
0.4715
0.474
0.472
0.473
0.468
0.4595
0.4545
0.4555
0.4485
0.4555
0.462
0.4605
0.4695
0.467
0.4595
0.453
0.458
0.4685
0.4695
0.471
0.471
0.4685
0.465
0.4625
0.463
0.463
0.4595
0.457
0.456
0.4595
0.465
0.46
0.46
0.4595
0.458
0.4625
0.46
0.4605
0.461
0.4585
0.46
0.46
0.454
0.455
0.4535
0.45
0.4545
0.4455
0.4405
0.445
0.453
0.467
0.468
0.466
0.465
0.458
0.4565
0.4585
0.4525
0.452
0.4555
0.4535
0.453
0.4525
0.448
0.456
0.4595
0.45
0.4405
0.437
0.4435
0.4445
0.445
0.4425
0.444
0.454
0.4515
0.454
0.457
0.4545
0.4565
0.462
0.4715
0.466
0.456
0.4505
0.4535
0.4605
0.454
0.4495
0.448
0.4465
0.45
0.449
0.445
0.4445
0.4435
0.4495
0.4495
0.4445
0.4405
0.4365
0.443
0.445
0.4515
0.4425
0.44
0.4555
0.4615
0.456
0.4475
0.4485
0.45
0.4515
0.4445
0.444
0.4485
0.4485
0.449
0.4535
0.4455
0.4285
0.434
0.4485
0.45
0.451
0.454
0.4445
0.439
0.438
0.438
0.445
0.445
0.4405
0.4345
0.431
0.437
0.435
0.4385
0.4385
0.425
0.4265
0.4385
0.451
0.4495
0.437
0.438
0.444
0.446
0.445
0.443
0.442
0.441
0.44
0.4395
0.4375
0.434
0.4395
0.446
0.4415
0.435
0.433
0.4375
0.4405
0.442
0.441
0.434
0.427
0.431
0.435
0.4415
0.449
0.4445
0.4425
0.4335
0.4285
0.4305
0.4355
0.442
0.4385
0.437
0.4385
0.441
0.445
0.442
0.444
0.451
0.449
0.443
0.441
0.438
0.4345
0.4365
0.441
0.44
0.44
0.4415
0.4405
0.4345
0.418
0.425
0.4495
0.449
0.443
0.44
0.438
0.438
0.4375
0.4345
0.4295
0.43
0.4345
0.4425
0.4495
0.4645
0.473
0.46
0.4595
0.464
0.4665
0.472
0.465
0.463
0.464
0.4565
0.449
0.45
0.455
0.451
0.4475
0.4535
0.4715
0.4765
0.468
0.4675
0.4725
0.4785
0.48
0.4855
0.4855
0.4795
0.4785
0.4805
0.488
0.4895
0.4815
0.4795
0.4815
0.483
0.486
0.483
0.4815
0.478
0.4745
0.4725
0.4675
0.467
0.4705
0.47
0.463
0.462
0.475
0.4945
0.5005
0.4945
0.4985
0.501
0.4935
0.491
0.4895
0.4875
0.487
0.4805
0.472
0.473
0.4825
0.4765
0.4625
0.458
0.445
0.43
0.425
0.4185
0.4185
0.4225
0.425
0.4305
0.418
0.4195
0.4345
0.433
0.4325
0.428
0.429
0.4335
0.428
0.429
0.432
0.4285
0.429
0.4305
0.4275
0.425
0.4245
0.429
0.429
0.426
0.4255
0.421
0.423
0.4225
0.42
0.4185
0.418
0.419
0.422
0.4265
0.4235
0.4175
0.418
0.4315
0.4335
0.4255
0.419
0.429
0.443
0.432
0.424
0.4265
0.423
0.4215
0.429
0.43
0.424
0.42
0.4215
0.4235
0.4275
0.4245
0.4185
0.42
0.417
0.415
0.412
0.407
0.4045
0.399
0.405
0.415
0.413
0.4135
0.4065
0.3995
0.415
0.4325
0.439
0.445
0.453
0.465
0.4795
0.498
0.5145
0.5285
0.549
0.563
0.5795
0.6
0.6095
0.6235
0.6465
0.668
0.696
0.723
0.7425
0.7565
0.767
0.7815
0.79
0.8055
0.819
0.817
0.82
0.8115
0.799
0.769
0.7315
0.7075
0.6645
0.6295
0.6
0.5695
0.5415
0.5085
0.4815
0.457
0.441
0.4275
0.407
0.389
0.369
0.3505
0.343
0.345
0.3505
0.3545
0.3565
0.3505
0.3465
0.3575
0.375
0.3905
0.4025
0.419
0.4295
0.444
0.4555
0.463
0.4725
0.4715
0.4755
0.4805
0.486
0.4825
0.479
0.4725
0.467
0.4775
0.472
0.4665
0.471
0.47
0.4665
0.4645
0.4675
0.465
0.4615
0.4585
0.4525
0.4475
0.4475
0.4515
0.4465
0.4485
0.452
0.4465
0.4525
0.456
0.4465
0.4445
0.4525
0.4495
0.448
0.453
0.461
0.4655
0.4585
0.456
0.4565
0.453
0.446
0.444
0.4455
0.4495
0.4625
0.4695
0.4625
0.4595
0.46
0.4595
0.4545
0.4485
0.451
0.4515
0.4515
0.4595
0.4715
0.466
0.457
0.46
0.4645
0.4705
0.4675
0.464
0.4685
0.471
0.47
0.4685
0.4675
0.4645
0.4565
0.4615
0.473
0.4715
0.4705
0.4715
0.4705
0.467
0.4655
0.4635
0.467
0.4765
0.4685
0.465
0.469
0.4665
0.467
0.466
0.4675
0.473
0.471
0.477
0.484
0.486
0.486
0.479
0.4795
0.482
0.4835
0.485
0.482
0.4835
0.4855
0.487
0.4855
0.4785
0.482
0.484
0.48
0.483
0.485
0.4845
0.4885
0.495
0.502
0.5045
0.5015
0.497
0.4935
0.4945
0.494
0.509
0.5225
0.516
0.5165
0.515
0.5115
0.518
0.5205
0.519
0.5245
0.5235
0.521
0.5245
0.5265
0.532
0.5355
0.539
0.538
0.5385
0.542
0.5415
0.5495
0.551
0.5485
0.5465
0.5415
0.546
0.557
0.5725
0.585
0.5855
0.587
0.59
0.592
0.592
0.5905
0.597
0.6035
0.6075
0.602
0.602
0.6065
0.6055
0.613
0.6115
0.6095
0.611
0.608
0.6095
0.612
0.62
0.6275
0.6255
0.6285
0.634
0.6325
0.632
0.629
0.633
0.633
0.627
0.6255
0.6175
0.621
0.629
0.633
0.6395
0.6425
0.6385
0.6345
0.6355
0.6385
0.6415
0.6375
0.634
0.636
0.638
0.638
0.633
0.625
0.622
0.622
0.619
0.6175
0.6115
0.606
0.6015
0.595
0.596
0.5955
0.5855
0.583
0.581
0.57
0.5635
0.5615
0.558
0.551
0.5475
0.541
0.5375
0.5385
0.527
0.5145
0.5135
0.5135
0.5115
0.5095
0.5095
0.508
0.498
0.4805
0.46
0.4785
0.4975
0.4885
0.4855
0.4805
0.4815
0.479
0.472
0.4665
0.459
0.4605
0.4645
0.463
0.459
0.4535
0.451
0.4495
0.447
0.4485
0.4445
0.445
0.448
0.4455
0.446
0.4465
0.4435
0.443
0.442
0.4365
0.441
0.4395
0.434
0.4295
0.427
0.433
0.4315
0.432
0.429
0.4235
0.4275
0.4355
0.435
0.4315
0.4275
0.4185
0.418
0.4115
0.404
0.4085
0.4175
0.4225
0.44
0.4505
0.436
0.4355
0.438
0.4355
0.4335
0.4305
0.426
0.426
0.431
0.4295
0.429
0.43
0.4305
0.4295
0.4245
0.4155
0.4155
0.4235
0.426
0.4275
0.4255
0.4235
0.4295
0.4335
0.4305
0.425
0.421
0.4235
0.4245
0.426
0.4265
0.4215
0.4205
0.4225
0.423
0.4215
0.421
0.42
0.423
0.4305
0.431
0.4235
0.42
0.423
0.4255
0.428
0.4275
0.4275
0.432
0.434
0.4315
0.431
0.432
0.43
0.429
0.4275
0.419
0.4135
0.4255
0.4345
0.432
0.4285
0.422
0.4205
0.4255
0.432
0.4315
0.4245
0.4235
0.423
0.4235
0.4295
0.4315
0.4245
0.4205
0.417
0.4105
0.4235
0.437
0.4395
0.435
0.4255
0.4285
0.436
0.442
0.44
0.434
0.4305
0.4245
0.426
0.4295
0.43
0.425
0.418
0.428
0.4385
0.4355
0.428
0.4215
0.4175
0.4175
0.423
0.445
0.451
0.441
0.4415
0.442
0.4415
0.4385
0.4375
0.439
0.4385
0.431
0.4255
0.4265
0.422
0.4245
0.4275
0.4305
0.433
0.435
0.435
0.4335
0.4295
0.427
0.436
0.4395
0.435
0.431
0.43
0.4255
0.4235
0.4275
0.4275
0.425
0.428
0.4305
0.426
0.4225
0.424
0.423
0.4205
0.4185
0.4175
0.429
0.433
0.4305
0.426
0.414
0.4155
0.4275
0.4315
0.4255
0.4235
0.425
0.427
0.424
0.42
0.421
0.4235
0.4235
0.42
0.42
0.42
0.4225
0.42
0.419
0.4205
0.4295
0.432
0.4215
0.4195
0.419
0.416
0.4235
0.4305
0.423
0.4235
0.427
0.4215
0.421
0.4255
0.427
0.427
0.424
0.4255
0.4305
0.42
0.4125
0.422
0.4295
0.426
0.4215
0.4155
0.414
0.4125
0.411
0.418
0.42
0.4125
0.405
0.409
0.413
0.412
0.4055
0.409
0.418
0.4175
0.413
0.4155
0.428
0.4305
0.4285
0.4255
0.422
0.421
0.415
0.4115
0.4145
0.4165
0.4215
0.42
0.412
0.4135
0.4105
0.4075
0.4125
0.4225
0.4205
0.4145
0.4175
0.4175
0.4135
0.41
0.4115
0.413
0.416
0.4155
0.412
0.4095
0.407
0.4085
0.4085
0.411
0.408
0.409
0.4185
0.4195
0.42
0.411
0.3975
0.398
0.416
0.419
0.411
0.412
0.4135
0.4175
0.414
0.4115
0.4115
0.4135
0.4185
0.4135
0.406
0.409
0.4125
0.412
0.4135
0.4145
0.413
0.4095
0.41
0.41
0.407
0.406
0.4145
0.4085
0.398
0.41
0.417
0.416
0.419
0.4215
0.419
0.416
0.4165
0.414
0.413
0.412
0.4135
0.4145
0.412
0.4145
0.4145
0.41
0.408
0.4075
0.406
0.399
0.391
0.3825
0.3835
0.382
0.377
0.3895
0.417
0.4375
0.439
0.436
0.427
0.422
0.4225
0.4135
0.41
0.4135
0.417
0.4245
0.421
0.4145
0.414
0.4095
0.4135
0.4145
0.4115
0.416
0.414
0.411
0.4105
0.409
0.406
0.41
0.412
0.412
0.414
0.409
0.406
0.406
0.4125
0.4095
0.406
0.4055
0.4055
0.407
0.4075
0.401
0.388
0.411
0.438
0.4315
0.433
0.4355
0.4305
0.43
0.429
0.432
0.43
0.431
0.43
0.426
0.4255
0.418
0.417
0.4225
0.426
0.429
0.4335
0.44
0.443
0.4385
0.442
0.4465
0.4465
0.4425
0.44
0.446
0.4435
0.4425
0.4385
0.4335
0.4405
0.438
0.4445
0.4595
0.458
0.4555
0.4545
0.4515
0.452
0.4525
0.45
0.4465
0.448
0.445
0.4445
0.4475
0.452
0.46
0.4585
0.4565
0.4545
0.453
0.454
0.4525
0.455
0.4545
0.447
0.4445
0.445
0.4535
0.4615
0.453
0.4475
0.4445
0.434
0.4315
0.43
0.424
0.421
0.4135
0.406
0.402
0.396
0.3925
0.389
0.382
0.3775
0.3785
0.381
0.393
0.403
0.3985
0.399
0.408
0.4155
0.4125
0.4065
0.4075
0.401
0.387
0.3925
0.4105
0.4075
0.4015
0.407
0.4025
0.3945
0.392
0.39
0.3855
0.3775
0.391
0.4095
0.404
0.3995
0.4
0.4
0.402
0.4045
0.4045
0.4
0.401
0.3985
0.392
0.3925
0.396
0.399
0.3975
0.397
0.39
0.389
0.4025
0.403
0.398
0.3935
0.3875
0.3885
0.3845
0.377
0.373
0.372
0.3745
0.3815
0.3875
0.3845
0.3855
0.387
0.386
0.391
0.389
0.3915
0.4055
0.413
0.421
0.43
0.444
0.4705
0.4935
0.5125
0.5315
0.5435
0.5645
0.5935
0.609
0.6195
0.638
0.669
0.691
0.7205
0.759
0.769
0.782
0.8015
0.808
0.826
0.8405
0.8365
0.8305
0.8245
0.813
0.789
0.76
0.7125
0.677
0.6565
0.615
0.572
0.532
0.5075
0.4815
0.445
0.418
0.3955
0.3765
0.342
0.3085
0.3125
0.334
0.337
0.3365
0.3325
0.3235
0.326
0.3315
0.3455
0.363
0.3845
0.4075
0.416
0.4225
0.429
0.434
0.4475
0.4545
0.4565
0.4615
0.4625
0.4605
0.448
0.445
0.4495
0.446
0.4405
0.434
0.4395
0.439
0.434
0.4365
0.4325
0.426
0.4265
0.427
0.4235
0.4205
0.423
0.43
0.426
0.419
0.419
0.4215
0.4235
0.424
0.43
0.4305
0.4225
0.4215
0.4245
0.42
0.4195
0.4195
0.419
0.4215
0.426
0.425
0.4185
0.4175
0.413
0.416
0.418
0.4205
0.4255
0.4285
0.4305
0.428
0.4355
0.4345
0.432
0.4315
0.425
0.4275
0.429
0.4285
0.4265
0.4255
0.428
0.4265
0.421
0.414
0.4185
0.4265
0.428
0.4285
0.426
0.4215
0.4175
0.425
0.4305
0.427
0.428
0.4275
0.4235
0.42
0.426
0.435
0.4295
0.44
0.454
0.4455
0.4395
0.4355
0.4275
0.4295
0.4315
0.4325
0.4395
0.428
0.4285
0.451
0.453
0.4505
0.4545
0.451
0.449
0.445
0.4465
0.4545
0.454
0.4535
0.4495
0.4505
0.4525
0.451
0.4485
0.4425
0.453
0.458
0.46
0.468
0.4615
0.46
0.463
0.465
0.4675
0.4685
0.4685
0.469
0.471
0.466
0.466
0.4685
0.469
0.476
0.4855
0.4875
0.4865
0.4915
0.49
0.4895
0.49
0.4905
0.4915
0.488
0.49
0.4935
0.4955
0.501
0.51
0.5145
0.518
0.522
0.5195
0.5225
0.531
0.5325
0.533
0.5355
0.536
0.5365
0.54
0.5455
0.5425
0.5425
0.544
0.5405
0.539
0.5385
0.545
0.5475
0.554
0.5745
0.582
0.5665
0.558
0.5645
0.586
0.599
0.5945
0.59
0.5875
0.5895
0.5765
0.579
0.5995
0.6045
0.5985
0.594
0.596
0.596
0.598
0.6035
0.6025
0.6015
0.5995
0.6005
0.6025
0.5965
0.5975
0.594
0.589
0.5905
0.588
0.583
0.58
0.5795
0.5785
0.5835
0.5895
0.588
0.582
0.58
0.5765
0.575
0.5745
0.5695
0.567
0.5585
0.549
0.546
0.5425
0.54
0.5365
0.5325
0.5265
0.5215
0.517
0.513
0.509
0.506
0.5
0.4925
0.49
0.484
0.4785
0.471
0.468
0.4635
0.457
0.4605
0.46
0.4565
0.4505
0.445
0.441
0.4365
0.434
0.4335
0.4315
0.4255
0.4235
0.4275
0.43
0.4235
0.416
0.4125
0.41
0.41
0.412
0.4095
0.4055
0.3945
0.3945
0.401
0.396
0.393
0.3915
0.394
0.394
0.3925
0.395
0.4015
0.391
0.385
0.4015
0.389
0.3715
0.3795
0.405
0.4075
0.392
0.3925
0.391
0.3865
0.3875
0.391
0.393
0.404
0.4005
0.39
0.39
0.3915
0.39
0.3895
0.3925
0.3885
0.388
0.386
0.3875
0.391
0.3915
0.3915
0.3915
0.3875
0.3815
0.3875
0.3885
0.384
0.3855
0.384
0.3845
0.3855
0.3825
0.38
0.3825
0.383
0.3775
0.377
0.3845
0.386
0.3805
0.3745
0.3745
0.387
0.392
0.386
0.379
0.385
0.3945
0.3935
0.3885
0.386
0.382
0.3795
0.385
0.3875
0.39
0.3885
0.3915
0.393
0.3855
0.385
0.3845
0.3825
0.3815
0.3805
0.3855
0.3865
0.383
0.381
0.38
0.3815
0.386
0.392
0.397
0.3875
0.377
0.384
0.383
0.377
0.3745
0.379
0.3815
0.3765
0.3835
0.395
0.3905
0.379
0.378
0.3865
0.3865
0.379
0.381
0.379
0.3675
0.3665
0.3865
0.403
0.399
0.394
0.392
0.3915
0.391
0.393
0.3925
0.3885
0.388
0.3855
0.3825
0.3885
0.3905
0.387
0.387
0.3895
0.3915
0.3915
0.3915
0.3875
0.387
0.391
0.3875
0.385
0.386
0.3895
0.398
0.398
0.3905
0.3815
0.3825
0.3875
0.384
0.3905
0.395
0.393
0.39
0.386
0.3925
0.3955
0.391
0.3895
0.388
0.389
0.395
0.3955
0.3905
0.3875
0.386
0.3845
0.382
0.382
0.3765
0.376
0.3805
0.378
0.3755
0.3785
0.383
0.388
0.3935
0.396
0.392
0.393
0.3925
0.385
0.391
0.3895
0.387
0.3835
0.382
0.398
0.3975
0.392
0.392
0.3895
0.3895
0.3795
0.3705
0.383
0.393
0.3845
0.384
0.3865
0.386
0.386
0.383
0.3775
0.3775
0.3795
0.376
0.3815
0.3775
0.3695
0.3735
0.373
0.3755
0.375
0.375
0.3805
0.373
0.3695
0.3695
0.366
0.368
0.3735
0.384
0.385
0.379
0.3795
0.382
0.377
0.374
0.3785
0.377
0.3805
0.38
0.37
0.3695
0.377
0.377
0.3745
0.3735
0.371
0.3685
0.3695
0.3755
0.3805
0.3865
0.3805
0.3725
0.375
0.3715
0.37
0.371
0.365
0.3665
0.377
0.3775
0.377
0.3765
0.3665
0.3635
0.3655
0.3665
0.3595
0.361
0.371
0.3635
0.361
0.3595
0.3645
0.3675
0.37
0.385
0.38
0.3745
0.375
0.375
0.368
0.363
0.373
0.3735
0.3745
0.3775
0.3745
0.3715
0.369
0.3675
0.3605
0.356
0.3675
0.3725
0.371
0.3675
0.364
0.363
0.3615
0.363
0.359
0.3615
0.3665
0.367
0.3655
0.3625
0.364
0.3675
0.368
0.3645
0.361
0.3625
0.3645
0.36
0.359
0.3615
0.364
0.3675
0.3665
0.366
0.3685
0.368
0.365
0.363
0.352
0.352
0.369
0.367
0.3605
0.36
0.359
0.3605
0.355
0.3495
0.352
0.3625
0.375
0.372
0.366
0.3655
0.37
0.373
0.3625
0.3635
0.366
0.3635
0.367
0.372
0.373
0.3645
0.362
0.3625
0.3615
0.3625
0.3605
0.356
0.3535
0.36
0.372
0.3765
0.3685
0.3645
0.3655
0.359
0.357
0.363
0.367
0.3655
0.365
0.3645
0.3645
0.364
0.36
0.36
0.3585
0.356
0.356
0.3535
0.3475
0.3425
0.342
0.3505
0.362
0.3595
0.349
0.355
0.3735
0.3755
0.3705
0.36
0.3475
0.3535
0.3725
0.3745
0.3715
0.3735
0.3725
0.3795
0.386
0.389
0.3885
0.388
0.3855
0.3865
0.39
0.3885
0.3895
0.387
0.3845
0.3845
0.3825
0.3785
0.381
0.384
0.385
0.389
0.3855
0.3825
0.384
0.389
0.387
0.3785
0.3775
0.388
0.406
0.4065
0.4055
0.405
0.394
0.3935
0.4095
0.4185
0.4115
0.4045
0.4065
0.412
0.4095
0.4055
0.405
0.4045
0.4055
0.401
0.399
0.4035
0.405
0.405
0.4045
0.4095
0.411
0.4075
0.4095
0.411
0.4125
0.4115
0.4065
0.405
0.4075
0.4075
0.405
0.403
0.404
0.4005
0.391
0.384
0.376
0.3725
0.3705
0.3645
0.363
0.36
0.352
0.3485
0.3475
0.3535
0.3525
0.347
0.35
0.343
0.3405
0.342
0.341
0.351
0.3555
0.3455
0.329
0.331
0.3515
0.3465
0.331
0.3315
0.343
0.3705
0.3795
0.3635
0.354
0.351
0.3495
0.3545
0.352
0.3425
0.344
0.342
0.3425
0.3435
0.341
0.3455
0.3515
0.3515
0.3495
0.349
0.351
0.35
0.3435
0.3445
0.3415
0.3355
0.333
0.3335
0.334
0.333
0.3325
0.332
0.338
0.3385
0.335
0.3365
0.3315
0.333
0.331
0.327
0.328
0.3195
0.318
0.3155
0.3095
0.3165
0.3255
0.3325
0.337
0.348
0.351
0.3465
0.3535
0.3625
0.3715
0.3775
0.3975
0.423
0.4435
0.464
0.472
0.4875
0.526
0.5605
0.571
0.582
0.6045
0.637
0.6635
0.6855
0.712
0.734
0.7625
0.773
0.7845
0.8025
0.8055
0.803
0.7925
0.785
0.7685
0.7355
0.692
0.646
0.616
0.5895
0.5525
0.5115
0.477
0.45
0.4165
0.386
0.3635
0.3265
0.2945
0.276
0.2675
0.2715
0.2665
0.2635
0.263
0.2705
0.2775
0.2785
0.2875
0.3005
0.3215
0.338
0.346
0.354
0.362
0.383
0.405
0.4115
0.4115
0.4095
0.408
0.4135
0.4155
0.4065
0.4
0.4015
0.4035
0.395
0.3895
0.389
0.3875
0.3845
0.3815
0.3755
0.3665
0.363
0.3605
0.3625
0.365
0.3685
0.3725
0.3725
0.37
0.3705
0.373
0.371
0.3705
0.369
0.3725
0.3765
0.3735
0.373
0.371
0.3685
0.3675
0.367
0.3635
0.3625
0.3685
0.3825
0.389
0.3805
0.3805
0.3775
0.371
0.376
0.3835
0.384
0.3755
0.369
0.373
0.375
0.3735
0.3695
0.373
0.3785
0.3775
0.379
0.375
0.3735
0.376
0.3775
0.38
0.38
0.378
0.3775
0.377
0.363
0.365
0.379
0.378
0.3665
0.3575
0.3635
0.3815
0.3945
0.3885
0.3805
0.39
0.4015
0.3935
0.3875
0.387
0.394
0.4025
0.4005
0.396
0.3905
0.3955
0.397
0.3945
0.4
0.397
0.394
0.3955
0.3885
0.384
0.3825
0.394
0.412
0.4115
0.4035
0.4025
0.4025
0.401
0.4005
0.4
0.4075
0.412
0.4125
0.411
0.4015
0.402
0.41
0.4175
0.427
0.427
0.4215
0.423
0.4225
0.422
0.423
0.4265
0.4255
0.4255
0.425
0.4225
0.4235
0.4215
0.4215
0.4195
0.425
0.4415
0.4555
0.457
0.455
0.4565
0.459
0.4585
0.458
0.4695
0.4755
0.472
0.47
0.4745
0.477
0.4785
0.488
0.491
0.49
0.495
0.4965
0.495
0.495
0.497
0.501
0.5045
0.505
0.511
0.521
0.5225
0.519
0.517
0.525
0.531
0.5305
0.531
0.5345
0.537
0.534
0.537
0.5365
0.5385
0.539
0.53
0.525
0.5275
0.5455
0.5525
0.55
0.5665
0.57
0.563
0.5555
0.5545
0.5625
0.5615
0.563
0.558
0.5565
0.562
0.5625
0.5605
0.555
0.552
0.553
0.55
0.547
0.548
0.547
0.544
0.542
0.5435
0.5405
0.536
0.537
0.5355
0.5275
0.52
0.5225
0.516
0.5115
0.511
0.5005
0.4935
0.492
0.491
0.4845
0.479
0.47
0.461
0.4705
0.4735
0.465
0.4575
0.4515
0.4475
0.437
0.4315
0.422
0.422
0.421
0.4045
0.401
0.415
0.425
0.411
0.4025
0.3985
0.395
0.3955
0.3865
0.381
0.385
0.387
0.383
0.3795
0.3755
0.3755
0.3745
0.3695
0.3605
0.3555
0.3585
0.3665
0.362
0.3575
0.366
0.3725
0.3725
0.3675
0.3625
0.3615
0.361
0.3615
0.359
0.355
0.358
0.3585
0.359
0.356
0.354
0.3565
0.3565
0.3555
0.3515
0.351
0.346
0.3465
0.3545
0.342
0.3365
0.352
0.3565
0.35
0.352
0.345
0.342
0.3545
0.3575
0.359
0.3525
0.343
0.347
0.3495
0.348
0.3545
0.3595
0.352
0.352
0.3485
0.3425
0.3445
0.341
0.3435
0.3455
0.3465
0.347
0.3485
0.3545
0.3555
0.351
0.348
0.3495
0.35
0.351
0.349
0.347
0.347
0.345
0.338
0.3385
0.347
0.3495
0.3575
0.3595
0.3565
0.3575
0.3545
0.3505
0.352
0.3585
0.3545
0.3475
0.346
0.3475
0.3475
0.341
0.344
0.35
0.351
0.353
0.3515
0.347
0.344
0.343
0.34
0.3385
0.3375
0.3315
0.3355
0.3525
0.37
0.37
0.36
0.357
0.358
0.356
0.353
0.35
0.3495
0.3485
0.3515
0.349
0.348
0.36
0.3595
0.352
0.35
0.3525
0.3575
0.356
0.349
0.352
0.3495
0.3465
0.3545
0.3535
0.3495
0.35
0.354
0.3515
0.351
0.348
0.3465
0.352
0.347
0.337
0.3315
0.349
0.375
0.373
0.363
0.3595
0.357
0.3555
0.3525
0.352
0.352
0.354
0.3575
0.3565
0.355
0.3525
0.3475
0.35
0.3485
0.348
0.3515
0.3505
0.349
0.3535
0.354
0.3475
0.347
0.348
0.3465
0.345
0.344
0.3465
0.349
0.3455
0.341
0.3405
0.3455
0.3535
0.355
0.3465
0.3445
0.348
0.3535
0.358
0.3535
0.349
0.3475
0.3495
0.3465
0.3455
0.3475
0.349
0.3495
0.347
0.351
0.3485
0.3415
0.3425
0.346
0.352
0.3485
0.3435
0.3415
0.3375
0.346
0.3515
0.3475
0.348
0.347
0.3455
0.3475
0.348
0.3485
0.35
0.3495
0.346
0.344
0.348
0.3495
0.349
0.3485
0.3485
0.3475
0.3475
0.347
0.344
0.3425
0.3405
0.3365
0.333
0.3235
0.3095
0.3315
0.3575
0.347
0.336
0.3385
0.3505
0.363
0.3595
0.349
0.352
0.3555
0.349
0.3445
0.3465
0.3475
0.347
0.3435
0.3375
0.3315
0.343
0.36
0.3575
0.351
0.349
0.3445
0.3395
0.338
0.3315
0.3295
0.335
0.338
0.344
0.3475
0.3465
0.3465
0.3435
0.344
0.3425
0.339
0.342
0.339
0.3355
0.3375
0.3345
0.333
0.3345
0.341
0.342
0.3385
0.3375
0.3345
0.3335
0.3295
0.325
0.322
0.3215
0.329
0.3455
0.354
0.349
0.346
0.3435
0.34
0.3395
0.3385
0.337
0.341
0.345
0.3415
0.331
0.3395
0.3475
0.341
0.343
0.344
0.345
0.346
0.3435
0.3415
0.3405
0.3385
0.333
0.335
0.341
0.337
0.332
0.335
0.3455
0.348
0.3395
0.3345
0.3335
0.334
0.3345
0.3295
0.325
0.33
0.3445
0.3495
0.3415
0.34
0.346
0.3505
0.3525
0.3525
0.3465
0.3365
0.3355
0.3355
0.3335
0.3355
0.3405
0.3475
0.345
0.3305
0.3355
0.3545
0.3525
0.3505
0.3515
0.347
0.3485
0.3455
0.3425
0.3415
0.34
0.3435
0.35
0.3455
0.3485
0.3495
0.3445
0.3445
0.335
0.3305
0.3355
0.34
0.3445
0.346
0.3405
0.337
0.339
0.342
0.345
0.346
0.345
0.3455
0.341
0.3365
0.3375
0.3355
0.337
0.3355
0.338
0.342
0.3425
0.344
0.34
0.341
0.339
0.338
0.3385
0.335
0.3365
0.334
0.3345
0.336
0.333
0.334
0.3445
0.342
0.3325
0.3335
0.3315
0.329
0.3345
0.3375
0.3375
0.3385
0.3365
0.33
0.3235
0.339
0.354
0.345
0.332
0.34
0.3465
0.341
0.339
0.333
0.3315
0.3325
0.3325
0.3385
0.333
0.3255
0.3305
0.3425
0.3505
0.345
0.342
0.341
0.335
0.335
0.358
0.3775
0.3705
0.365
0.3665
0.37
0.37
0.3705
0.371
0.3685
0.3655
0.36
0.3585
0.359
0.3595
0.359
0.36
0.36
0.3595
0.3635
0.364
0.365
0.3705
0.3725
0.3815
0.3875
0.386
0.388
0.387
0.3845
0.386
0.391
0.387
0.3805
0.3825
0.3835
0.383
0.382
0.388
0.3905
0.384
0.3835
0.381
0.3775
0.3765
0.379
0.3825
0.383
