ECG
-0.2265
-0.2295
-0.2235
-0.2225
-0.2165
-0.2165
-0.225
-0.2235
-0.2235
-0.224
-0.2215
-0.2305
-0.214
-0.1985
-0.2015
-0.2
-0.202
-0.193
-0.1935
-0.1945
-0.192
-0.1925
-0.1925
-0.1935
-0.1995
-0.2055
-0.1995
-0.1935
-0.1775
-0.167
-0.172
-0.1645
-0.167
-0.1715
-0.1765
-0.1795
-0.1715
-0.1655
-0.1475
-0.138
-0.1475
-0.1565
-0.1465
-0.139
-0.137
-0.1355
-0.1425
-0.13
-0.1285
-0.1355
-0.1295
-0.124
-0.119
-0.1265
-0.1295
-0.1205
-0.104
-0.0995
-0.1065
-0.1035
-0.1025
-0.1
-0.0895
-0.0725
-0.0695
-0.0785
-0.077
-0.081
-0.09
-0.0825
-0.063
-0.0415
-0.043
-0.0495
-0.0465
-0.0435
-0.0355
-0.036
-0.0305
-0.0145
-0.0135
-0.0165
-0.015
-0.024
-0.02
-0.013
-0.0075
-0.0015
-0.008
-0.0115
-0.0145
-0.0135
-0.0085
-0.012
-0.0205
-0.002
0.0215
0.016
0.0135
0.01
0.005
0.01
0.0095
0.002
0.003
0.0005
-0.001
0.002
-0.005
0.0065
0.0065
-0.001
0.0055
0.012
0.012
-0.0015
-0.0115
-0.0255
-0.0325
-0.0275
-0.027
-0.0315
-0.043
-0.0515
-0.0515
-0.0615
-0.067
-0.0595
-0.071
-0.087
-0.0865
-0.0935
-0.106
-0.1065
-0.1005
-0.0975
-0.112
-0.1305
-0.135
-0.1365
-0.144
-0.1415
-0.1375
-0.143
-0.1545
-0.16
-0.1665
-0.172
-0.163
-0.173
-0.1885
-0.1955
-0.1915
-0.1845
-0.195
-0.2085
-0.2085
-0.202
-0.2185
-0.232
-0.227
-0.2305
-0.2405
-0.2345
-0.224
-0.233
-0.2415
-0.2435
-0.241
-0.236
-0.2405
-0.249
-0.2495
-0.2385
-0.244
-0.256
-0.247
-0.246
-0.247
-0.2385
-0.2455
-0.2495
-0.247
-0.2495
-0.2515
-0.254
-0.255
-0.258
-0.2525
-0.2555
-0.259
-0.252
-0.2585
-0.2685
-0.2705
-0.269
-0.262
-0.25
-0.2565
-0.2495
-0.2415
-0.2555
-0.262
-0.263
-0.261
-0.255
-0.2535
-0.261
-0.256
-0.254
-0.26
-0.266
-0.264
-0.26
-0.273
-0.271
-0.267
-0.2705
-0.2605
-0.252
-0.2535
-0.261
-0.2675
-0.2585
-0.258
-0.261
-0.259
-0.267
-0.264
-0.268
-0.278
-0.2645
-0.25
-0.2505
-0.2565
-0.2605
-0.263
-0.2635
-0.2605
-0.2615
-0.2605
-0.2565
-0.2635
-0.2725
-0.263
-0.2545
-0.262
-0.2695
-0.263
-0.254
-0.2535
-0.257
-0.27
-0.273
-0.2675
-0.269
-0.268
-0.266
-0.2685
-0.258
-0.247
-0.2625
-0.2595
-0.246
-0.252
-0.2545
-0.2595
-0.263
-0.2585
-0.255
-0.2615
-0.266
-0.2585
-0.258
-0.263
-0.263
-0.2595
-0.2625
-0.2675
-0.2605
-0.256
-0.2515
-0.2545
-0.2635
-0.253
-0.249
-0.2585
-0.2645
-0.2575
-0.2385
-0.241
-0.252
-0.2465
-0.2495
-0.263
-0.26
-0.2545
-0.263
-0.271
-0.269
-0.267
-0.2655
-0.267
-0.2635
-0.257
-0.26
-0.2635
-0.259
-0.255
-0.26
-0.2615
-0.254
-0.2455
-0.242
-0.2445
-0.2485
-0.255
-0.258
-0.2575
-0.2505
-0.253
-0.259
-0.2575
-0.265
-0.2635
-0.266
-0.2715
-0.267
-0.2675
-0.2685
-0.2655
-0.263
-0.2555
-0.2495
-0.2635
-0.2755
-0.2675
-0.2655
-0.2635
-0.2635
-0.269
-0.2715
-0.279
-0.265
-0.255
-0.2665
-0.261
-0.2565
-0.27
-0.268
-0.2635
-0.271
-0.2705
-0.2715
-0.2785
-0.2775
-0.2715
-0.2625
-0.2595
-0.2645
-0.2555
-0.256
-0.268
-0.267
-0.252
-0.25
-0.2645
-0.2685
-0.2745
-0.269
-0.269
-0.2715
-0.266
-0.2645
-0.2635
-0.2795
-0.2855
-0.2775
-0.2645
-0.254
-0.2515
-0.257
-0.2655
-0.2635
-0.2665
-0.2665
-0.2555
-0.2505
-0.259
-0.262
-0.2545
-0.2515
-0.2515
-0.244
-0.244
-0.25
-0.2425
-0.2395
-0.233
-0.232
-0.24
-0.2325
-0.226
-0.235
-0.2295
-0.2245
-0.218
-0.2005
-0.203
-0.208
-0.2125
-0.207
-0.2015
-0.2055
-0.2095
-0.211
-0.2055
-0.203
-0.21
-0.217
-0.214
-0.218
-0.224
-0.2225
-0.2345
-0.239
-0.2315
-0.223
-0.203
-0.1905
-0.1985
-0.206
-0.2015
-0.207
-0.213
-0.209
-0.212
-0.215
-0.217
-0.2235
-0.219
-0.2155
-0.2185
-0.211
-0.212
-0.2235
-0.2105
-0.196
-0.1985
-0.203
-0.2175
-0.2135
-0.21
-0.2205
-0.216
-0.2115
-0.2105
-0.2145
-0.2075
-0.198
-0.2035
-0.2055
-0.2155
-0.225
-0.2245
-0.2265
-0.2245
-0.2245
-0.2255
-0.22
-0.212
-0.212
-0.22
-0.226
-0.2425
-0.255
-0.2475
-0.24
-0.251
-0.2715
-0.2715
-0.2615
-0.267
-0.2665
-0.264
-0.2735
-0.2675
-0.2725
-0.2825
-0.2805
-0.2835
-0.285
-0.2805
-0.282
-0.2905
-0.2945
-0.2905
-0.2775
-0.2785
-0.2925
-0.308
-0.3015
-0.299
-0.3
-0.2905
-0.2825
-0.271
-0.283
-0.2905
-0.2875
-0.2945
-0.2925
-0.2975
-0.2945
-0.273
-0.265
-0.268
-0.2785
-0.284
-0.286
-0.289
-0.2795
-0.282
-0.281
-0.2765
-0.2885
-0.302
-0.3095
-0.289
-0.276
-0.286
-0.289
-0.2925
-0.2885
-0.2965
-0.3135
-0.312
-0.3075
-0.3065
-0.3035
-0.3025
-0.2995
-0.293
-0.285
-0.2725
-0.258
-0.2665
-0.2855
-0.295
-0.295
-0.301
-0.312
-0.3125
-0.3225
-0.325
-0.34
-0.362
-0.363
-0.3705
-0.376
-0.3755
-0.376
-0.378
-0.374
-0.3795
-0.379
-0.3655
-0.357
-0.3395
-0.327
-0.3005
-0.263
-0.231
-0.196
-0.152
-0.0935
-0.0525
-0.011
0.0425
0.089
0.1305
0.186
0.233
0.276
0.317
0.336
0.3735
0.41
0.413
0.4175
0.424
0.4135
0.4005
0.3805
0.3705
0.366
0.363
0.363
0.3215
0.2645
0.216
0.1525
0.092
0.032
-0.0385
-0.1115
-0.1765
-0.221
-0.25
-0.253
-0.2555
-0.281
-0.296
-0.2985
-0.3055
-0.308
-0.3055
-0.3085
-0.304
-0.2975
-0.2975
-0.2985
-0.2975
-0.2995
-0.298
-0.2905
-0.291
-0.295
-0.292
-0.2855
-0.2805
-0.2765
-0.2785
-0.2725
-0.273
-0.283
-0.2835
-0.279
-0.283
-0.2855
-0.2755
-0.2765
-0.276
-0.272
-0.262
-0.257
-0.2635
-0.269
-0.277
-0.2855
-0.293
-0.2975
-0.297
-0.2835
-0.271
-0.269
-0.272
-0.2635
-0.2665
-0.2845
-0.287
-0.2905
-0.2905
-0.2905
-0.2895
-0.2845
-0.2795
-0.2715
-0.272
-0.2765
-0.282
-0.277
-0.2705
-0.27
-0.261
-0.264
-0.271
-0.2685
-0.2605
-0.258
-0.267
-0.2695
-0.271
-0.274
-0.2675
-0.268
-0.281
-0.279
-0.2755
-0.2755
-0.27
-0.2665
-0.256
-0.245
-0.2395
-0.248
-0.2565
-0.2495
-0.2455
-0.2575
-0.266
-0.265
-0.2645
-0.264
-0.2635
-0.258
-0.257
-0.2605
-0.269
-0.2655
-0.2465
-0.233
-0.237
-0.253
-0.2645
-0.268
-0.26
-0.247
-0.244
-0.2485
-0.2485
-0.2495
-0.257
-0.2655
-0.2675
-0.266
-0.2615
-0.2485
-0.236
-0.226
-0.2115
-0.2115
-0.2135
-0.2095
-0.224
-0.245
-0.2555
-0.254
-0.241
-0.2385
-0.239
-0.225
-0.223
-0.223
-0.2185
-0.2235
-0.233
-0.2395
-0.2445
-0.2385
-0.2265
-0.2195
-0.2155
-0.221
-0.2195
-0.2185
-0.22
-0.2135
-0.2135
-0.214
-0.2155
-0.206
-0.198
-0.195
-0.1835
-0.186
-0.191
-0.1895
-0.19
-0.1895
-0.1845
-0.182
-0.1765
-0.1695
-0.171
-0.1715
-0.1625
-0.1585
-0.164
-0.166
-0.1665
-0.1755
-0.1745
-0.1655
-0.1695
-0.163
-0.158
-0.1565
-0.1395
-0.1245
-0.128
-0.127
-0.1265
-0.125
-0.1065
-0.102
-0.0905
-0.0995
-0.1165
-0.101
-0.1005
-0.102
-0.096
-0.09
-0.09
-0.0925
-0.0825
-0.085
-0.083
-0.0745
-0.071
-0.0625
-0.0555
-0.0515
-0.0595
-0.066
-0.053
-0.0475
-0.0505
-0.045
-0.0435
-0.044
-0.0265
-0.013
-0.012
-0.021
-0.0365
-0.037
-0.0365
-0.0295
-0.0245
-0.0275
-0.0235
-0.0225
-0.0215
-0.0195
-0.022
-0.0155
-0.006
-0.013
-0.015
-0.0195
-0.0205
-0.013
-0.017
-0.019
-0.012
-0.0055
-0.0105
-0.0225
-0.023
-0.034
-0.0485
-0.044
-0.033
-0.022
-0.025
-0.032
-0.044
-0.054
-0.0515
-0.049
-0.0485
-0.059
-0.0675
-0.066
-0.0735
-0.087
-0.0965
-0.0995
-0.098
-0.0945
-0.1
-0.1025
-0.105
-0.117
-0.1285
-0.1355
-0.129
-0.136
-0.135
-0.135
-0.1545
-0.1575
-0.162
-0.1665
-0.171
-0.176
-0.1865
-0.199
-0.208
-0.213
-0.2065
-0.205
-0.2055
-0.2085
-0.2095
-0.208
-0.2195
-0.227
-0.23
-0.226
-0.2255
-0.235
-0.243
-0.243
-0.2265
-0.2135
-0.2155
-0.226
-0.2445
-0.259
-0.2495
-0.2375
-0.234
-0.2435
-0.249
-0.247
-0.261
-0.264
-0.2565
-0.2465
-0.241
-0.2565
-0.2625
-0.257
-0.2615
-0.255
-0.2535
-0.257
-0.258
-0.263
-0.2685
-0.2785
-0.2775
-0.269
-0.2615
-0.257
-0.2525
-0.26
-0.261
-0.259
-0.267
-0.271
-0.2735
-0.273
-0.2665
-0.258
-0.258
-0.254
-0.261
-0.267
-0.2625
-0.26
-0.257
-0.2635
-0.2605
-0.267
-0.277
-0.279
-0.286
-0.2835
-0.285
-0.2735
-0.2585
-0.2595
-0.262
-0.274
-0.2695
-0.271
-0.2825
-0.2835
-0.2775
-0.252
-0.244
-0.2485
-0.255
-0.26
-0.2655
-0.269
-0.264
-0.267
-0.2645
-0.263
-0.256
-0.263
-0.28
-0.2735
-0.2665
-0.273
-0.2825
-0.2715
-0.2575
-0.265
-0.2705
-0.268
-0.27
-0.269
-0.262
-0.259
-0.258
-0.2595
-0.2575
-0.2565
-0.2595
-0.2615
-0.265
-0.259
-0.253
-0.2495
-0.2505
-0.2535
-0.262
-0.276
-0.27
-0.2665
-0.2625
-0.261
-0.269
-0.2555
-0.2485
-0.2545
-0.2545
-0.2615
-0.2665
-0.2605
-0.2595
-0.2655
-0.267
-0.268
-0.2685
-0.2555
-0.2515
-0.2535
-0.252
-0.2575
-0.2605
-0.262
-0.2615
-0.256
-0.257
-0.265
-0.268
-0.2555
-0.25
-0.261
-0.2615
-0.267
-0.271
-0.2625
-0.259
-0.2525
-0.259
-0.2665
-0.26
-0.258
-0.2545
-0.252
-0.2555
-0.263
-0.267
-0.2615
-0.268
-0.275
-0.2785
-0.285
-0.274
-0.262
-0.2585
-0.262
-0.265
-0.2655
-0.263
-0.266
-0.273
-0.264
-0.2615
-0.264
-0.2665
-0.2685
-0.268
-0.2695
-0.258
-0.2555
-0.263
-0.2655
-0.267
-0.27
-0.274
-0.274
-0.2755
-0.276
-0.266
-0.2555
-0.2635
-0.263
-0.2675
-0.2765
-0.2625
-0.2565
-0.2575
-0.257
-0.2515
-0.2485
-0.2525
-0.254
-0.2455
-0.2385
-0.2445
-0.2375
-0.2255
-0.229
-0.23
-0.218
-0.2125
-0.22
-0.219
-0.219
-0.2325
-0.234
-0.23
-0.2235
-0.2185
-0.21
-0.201
-0.203
-0.197
-0.195
-0.208
-0.215
-0.21
-0.21
-0.2085
-0.216
-0.222
-0.222
-0.2275
-0.219
-0.2125
-0.212
-0.2135
-0.2065
-0.203
-0.211
-0.218
-0.22
-0.219
-0.22
-0.2125
-0.206
-0.2005
-0.1945
-0.201
-0.213
-0.2145
-0.2055
-0.211
-0.219
-0.2195
-0.22
-0.2195
-0.2185
-0.208
-0.1975
-0.19
-0.184
-0.187
-0.19
-0.1875
-0.192
-0.1965
-0.204
-0.2105
-0.211
-0.2185
-0.2235
-0.231
-0.2365
-0.234
-0.232
-0.219
-0.2115
-0.202
-0.205
-0.222
-0.2235
-0.2205
-0.2165
-0.2275
-0.2315
-0.2305
-0.241
-0.247
-0.2545
-0.2625
-0.269
-0.2775
-0.282
-0.278
-0.2775
-0.283
-0.277
-0.2665
-0.268
-0.2745
-0.2825
-0.285
-0.294
-0.297
-0.284
-0.2935
-0.2885
-0.2675
-0.2705
-0.2745
-0.2795
-0.2865
-0.2955
-0.2945
-0.292
-0.2905
-0.2885
-0.2885
-0.29
-0.292
-0.2755
-0.2785
-0.2935
-0.2875
-0.271
-0.2745
-0.291
-0.2955
-0.2885
-0.287
-0.2915
-0.2875
-0.2885
-0.2875
-0.282
-0.279
-0.282
-0.2895
-0.2905
-0.2885
-0.288
-0.289
-0.291
-0.293
-0.2955
-0.3015
-0.297
-0.291
-0.2935
-0.2925
-0.289
-0.283
-0.2835
-0.2825
-0.2915
-0.2945
-0.2875
-0.305
-0.3115
-0.305
-0.304
-0.308
-0.3095
-0.3185
-0.3355
-0.3495
-0.3675
-0.379
-0.3765
-0.371
-0.3715
-0.3745
-0.3705
-0.3615
-0.364
-0.367
-0.364
-0.354
-0.3355
-0.325
-0.302
-0.2645
-0.2365
-0.1955
-0.148
-0.1055
-0.054
-0.003
0.046
0.089
0.1275
0.1785
0.23
0.2845
0.334
0.351
0.377
0.406
0.4155
0.4195
0.4155
0.4205
0.4215
0.4125
0.4135
0.406
0.3965
0.3805
0.3295
0.275
0.233
0.179
0.116
0.048
-0.0355
-0.106
-0.1605
-0.2125
-0.244
-0.237
-0.2335
-0.26
-0.268
-0.2745
-0.284
-0.2855
-0.2895
-0.288
-0.2885
-0.285
-0.2845
-0.2935
-0.2865
-0.2795
-0.281
-0.288
-0.2805
-0.2645
-0.2625
-0.258
-0.261
-0.2625
-0.268
-0.2705
-0.267
-0.271
-0.267
-0.2665
-0.266
-0.275
-0.2835
-0.282
-0.278
-0.281
-0.287
-0.2785
-0.2775
-0.276
-0.2735
-0.2735
-0.2755
-0.2845
-0.28
-0.2815
-0.287
-0.2865
-0.2855
-0.2795
-0.277
-0.2775
-0.2765
-0.2755
-0.28
-0.2775
-0.276
-0.2795
-0.2755
-0.2785
-0.284
-0.284
-0.2785
-0.2735
-0.275
-0.2705
-0.2745
-0.2765
-0.271
-0.2765
-0.28
-0.277
-0.275
-0.282
-0.282
-0.2755
-0.2715
-0.267
-0.265
-0.254
-0.2475
-0.2535
-0.261
-0.262
-0.264
-0.2695
-0.268
-0.265
-0.261
-0.257
-0.2585
-0.2555
-0.247
-0.254
-0.2575
-0.2645
-0.276
-0.273
-0.2695
-0.2605
-0.2545
-0.261
-0.2655
-0.2635
-0.263
-0.2615
-0.253
-0.2465
-0.244
-0.251
-0.255
-0.2445
-0.246
-0.2455
-0.238
-0.2485
-0.247
-0.2255
-0.218
-0.2195
-0.229
-0.2385
-0.2395
-0.241
-0.24
-0.245
-0.2475
-0.2435
-0.24
-0.245
-0.2475
-0.24
-0.228
-0.22
-0.2195
-0.2245
-0.2285
-0.225
-0.2225
-0.2235
-0.2265
-0.224
-0.2205
-0.216
-0.2225
-0.229
-0.22
-0.214
-0.219
-0.2225
-0.216
-0.209
-0.2085
-0.2095
-0.2035
-0.1995
-0.195
-0.1985
-0.2015
-0.2005
-0.2015
-0.192
-0.183
-0.173
-0.1705
-0.169
-0.1675
-0.169
-0.1655
-0.167
-0.1605
-0.1565
-0.16
-0.163
-0.1645
-0.1605
-0.1605
-0.153
-0.1425
-0.134
-0.1315
-0.1355
-0.137
-0.1385
-0.1305
-0.121
-0.115
-0.112
-0.108
-0.106
-0.1095
-0.104
-0.0975
-0.0955
-0.085
-0.0755
-0.082
-0.0855
-0.081
-0.0945
-0.098
-0.0805
-0.076
-0.076
-0.071
-0.065
-0.0565
-0.043
-0.0395
-0.0395
-0.036
-0.045
-0.0465
-0.038
-0.0345
-0.0315
-0.0255
-0.0255
-0.024
-0.023
-0.0175
-0.0145
-0.02
-0.0225
-0.0185
-0.0165
-0.017
-0.004
-0.007
-0.0055
-0.0055
-0.018
-0.0115
-0.001
0.004
0.003
-0.002
-0.0095
-0.013
-0.0125
-0.0125
-0.016
-0.0185
-0.018
-0.023
-0.029
-0.033
-0.0365
-0.044
-0.042
-0.0365
-0.043
-0.049
-0.0525
-0.058
-0.059
-0.0625
-0.0705
-0.0685
-0.075
-0.084
-0.086
-0.097
-0.1005
-0.1025
-0.1085
-0.1165
-0.122
-0.125
-0.1305
-0.134
-0.144
-0.142
-0.144
-0.159
-0.161
-0.162
-0.1685
-0.1775
-0.1855
-0.1875
-0.1915
-0.198
-0.203
-0.21
-0.211
-0.2065
-0.2095
-0.2165
-0.22
-0.222
-0.227
-0.223
-0.2205
-0.2255
-0.228
-0.2335
-0.237
-0.234
-0.227
-0.2255
-0.2315
-0.2345
-0.2405
-0.2505
-0.2415
-0.238
-0.254
-0.25
-0.251
-0.26
-0.264
-0.2755
-0.2705
-0.2605
-0.2505
-0.239
-0.2375
-0.2435
-0.256
-0.259
-0.2575
-0.2595
-0.2685
-0.2725
-0.2615
-0.2605
-0.2615
-0.2535
-0.257
-0.2635
-0.263
-0.271
-0.2745
-0.272
-0.273
-0.272
-0.2645
-0.2645
-0.263
-0.257
-0.259
-0.258
-0.2665
-0.275
-0.273
-0.275
-0.2695
-0.2555
-0.2515
-0.256
-0.257
-0.2545
-0.2585
-0.2635
-0.266
-0.2695
-0.262
-0.2535
-0.2555
-0.256
-0.2565
-0.2635
-0.2705
-0.273
-0.2725
-0.2645
-0.2605
-0.261
-0.259
-0.2605
-0.2595
-0.261
-0.257
-0.2575
-0.257
-0.255
-0.26
-0.2565
-0.262
-0.2645
-0.263
-0.2665
-0.262
-0.251
-0.254
-0.262
-0.2565
-0.256
-0.2565
-0.257
-0.2595
-0.264
-0.27
-0.2705
-0.269
-0.2655
-0.258
-0.2575
-0.266
-0.264
-0.264
-0.262
-0.2475
-0.2455
-0.252
-0.2625
-0.2715
-0.2675
-0.2615
-0.267
-0.273
-0.267
-0.267
-0.271
-0.2675
-0.2655
-0.2615
-0.263
-0.264
-0.2575
-0.255
-0.256
-0.257
-0.2575
-0.261
-0.2605
-0.26
-0.2575
-0.254
-0.2575
-0.2545
-0.2525
-0.2575
-0.261
-0.2555
-0.245
-0.2485
-0.259
-0.2615
-0.2675
-0.265
-0.2575
-0.261
-0.2665
-0.2675
-0.2575
-0.252
-0.2585
-0.2635
-0.264
-0.266
-0.27
-0.265
-0.261
-0.2625
-0.2655
-0.2645
-0.2655
-0.2615
-0.2495
-0.2495
-0.253
-0.2585
-0.266
-0.265
-0.2675
-0.271
-0.261
-0.254
-0.2615
-0.26
-0.256
-0.262
-0.259
-0.255
-0.249
-0.248
-0.256
-0.2585
-0.26
-0.262
-0.2705
-0.2755
-0.28
-0.274
-0.261
-0.2565
-0.2605
-0.271
-0.273
-0.273
-0.27
-0.2665
-0.2695
-0.2675
-0.265
-0.27
-0.265
-0.256
-0.251
-0.2515
-0.2565
-0.2615
-0.277
-0.283
-0.277
-0.269
-0.2635
-0.266
-0.267
-0.2625
-0.256
-0.249
-0.2435
-0.24
-0.237
-0.242
-0.255
-0.2455
-0.23
-0.234
-0.235
-0.2305
-0.2305
-0.2295
-0.228
-0.2235
-0.2195
-0.2145
-0.2025
-0.2145
-0.217
-0.2065
-0.21
-0.2115
-0.2095
-0.2085
-0.21
-0.203
-0.203
-0.209
-0.211
-0.212
-0.208
-0.2045
-0.2055
-0.2105
-0.218
-0.2235
-0.227
-0.219
-0.2125
-0.214
-0.2105
-0.211
-0.208
-0.207
-0.215
-0.21
-0.197
-0.194
-0.192
-0.193
-0.1905
-0.1905
-0.205
-0.218
-0.217
-0.205
-0.2
-0.2025
-0.204
-0.2005
-0.1985
-0.2
-0.2015
-0.2
-0.198
-0.1965
-0.189
-0.1895
-0.199
-0.2035
-0.203
-0.209
-0.2095
-0.2105
-0.2195
-0.217
-0.213
-0.214
-0.208
-0.1985
-0.202
-0.2105
-0.2155
-0.2225
-0.231
-0.24
-0.2375
-0.2275
-0.232
-0.2345
-0.2275
-0.237
-0.249
-0.2555
-0.2615
-0.2605
-0.262
-0.2635
-0.263
-0.2695
-0.272
-0.2745
-0.2885
-0.2905
-0.282
-0.277
-0.276
-0.2795
-0.2825
-0.2815
-0.2785
-0.28
-0.2825
-0.2875
-0.2925
-0.293
-0.2955
-0.298
-0.2955
-0.2895
-0.287
-0.2795
-0.272
-0.276
-0.2815
-0.278
-0.2745
-0.272
-0.2675
-0.2745
-0.282
-0.2805
-0.2835
-0.283
-0.2795
-0.283
-0.288
-0.2935
-0.295
-0.2885
-0.288
-0.2915
-0.287
-0.2835
-0.283
-0.2865
-0.286
-0.2835
-0.2825
-0.283
-0.287
-0.2865
-0.2835
-0.2865
-0.2885
-0.2885
-0.29
-0.2915
-0.296
-0.305
-0.31
-0.3045
-0.304
-0.2995
-0.301
-0.3155
-0.3295
-0.339
-0.349
-0.3695
-0.3715
-0.3755
-0.383
-0.3785
-0.3675
-0.3525
-0.365
-0.3715
-0.3605
-0.355
-0.343
-0.327
-0.2915
-0.2465
-0.2155
-0.1685
-0.1165
-0.067
-0.012
0.0355
0.0835
0.133
0.1765
0.2255
0.282
0.3325
0.3775
0.4185
0.4565
0.476
0.483
0.491
0.489
0.481
0.473
0.466
0.4615
0.448
0.4365
0.4085
0.356
0.3185
0.278
0.2125
0.144
0.0765
0.004
-0.069
-0.141
-0.188
-0.2095
-0.229
-0.246
-0.2585
-0.261
-0.2595
-0.26
-0.265
-0.267
-0.263
-0.2615
-0.257
-0.2575
-0.262
-0.2575
-0.255
-0.26
-0.2645
-0.265
-0.265
-0.27
-0.267
-0.257
-0.258
-0.2595
-0.2625
-0.2695
-0.275
-0.2795
-0.272
-0.2675
-0.2715
-0.277
-0.281
-0.2725
-0.267
-0.272
-0.273
-0.2755
-0.2815
-0.281
-0.282
-0.2775
-0.273
-0.275
-0.269
-0.268
-0.2695
-0.271
-0.2805
-0.2815
-0.268
-0.2635
-0.272
-0.276
-0.272
-0.2685
-0.2695
-0.2655
-0.26
-0.263
-0.2705
-0.2695
-0.262
-0.258
-0.257
-0.2585
-0.262
-0.2665
-0.2655
-0.265
-0.2635
-0.262
-0.265
-0.265
-0.268
-0.2705
-0.268
-0.2605
-0.2465
-0.2475
-0.257
-0.2615
-0.267
-0.267
-0.27
-0.2665
-0.251
-0.2455
-0.246
-0.2555
-0.2655
-0.265
-0.262
-0.2485
-0.241
-0.2515
-0.258
-0.254
-0.2465
-0.245
-0.2485
-0.2455
-0.2435
-0.2495
-0.2575
-0.2625
-0.257
-0.246
-0.242
-0.244
-0.241
-0.2415
-0.2485
-0.251
-0.2505
-0.25
-0.251
-0.2365
-0.2255
-0.227
-0.2255
-0.2315
-0.236
-0.229
-0.2255
-0.231
-0.234
-0.232
-0.232
-0.233
-0.2375
-0.2335
-0.227
-0.2345
-0.236
-0.228
-0.2255
-0.2235
-0.2205
-0.217
-0.2145
-0.217
-0.216
-0.212
-0.2145
-0.2135
-0.206
-0.2015
-0.1995
-0.1925
-0.1935
-0.1915
-0.19
-0.195
-0.191
-0.1855
-0.1825
-0.183
-0.1835
-0.177
-0.171
-0.171
-0.1695
-0.165
-0.1635
-0.165
-0.1585
-0.152
-0.158
-0.159
-0.1535
-0.1525
-0.152
-0.1515
-0.145
-0.133
-0.129
-0.125
-0.1285
-0.1335
-0.1275
-0.1295
-0.125
-0.1155
-0.119
-0.1195
-0.109
-0.102
-0.103
-0.0875
-0.0765
-0.078
-0.074
-0.0715
-0.0725
-0.0755
-0.075
-0.0755
-0.0685
-0.062
-0.061
-0.0535
-0.0485
-0.042
-0.038
-0.036
-0.03
-0.0295
-0.033
-0.037
-0.0395
-0.031
-0.0245
-0.0235
-0.0195
-0.0205
-0.023
-0.017
-0.0085
-0.005
-0.0045
-0.005
-0.007
-0.01
-0.0085
-0.007
-0.0055
-0.0015
-0.002
0.0
0.0055
0.0055
0.0035
0.0065
0.0165
0.025
0.0195
0.002
-0.01
-0.018
-0.0175
-0.0005
0.0055
-0.0055
-0.008
0.0025
0.0165
0.0155
0.0
-0.0055
-0.0155
-0.025
-0.027
-0.0365
-0.044
-0.05
-0.0555
-0.0625
-0.0675
-0.074
-0.076
-0.0755
-0.0815
-0.0905
-0.095
-0.0955
-0.1035
-0.107
-0.112
-0.1225
-0.1265
-0.125
-0.13
-0.1375
-0.1385
-0.1445
-0.145
-0.1495
-0.1635
-0.172
-0.1775
-0.187
-0.192
-0.19
-0.1905
-0.1965
-0.203
-0.203
-0.2015
-0.2015
-0.208
-0.2115
-0.2105
-0.217
-0.224
-0.2225
-0.2215
-0.2255
-0.2235
-0.2245
-0.218
-0.2135
-0.221
-0.223
-0.2215
-0.226
-0.238
-0.2425
-0.2425
-0.2445
-0.245
-0.2455
-0.2425
-0.2405
-0.2415
-0.242
-0.245
-0.244
-0.239
-0.242
-0.237
-0.235
-0.244
-0.248
-0.253
-0.2515
-0.248
-0.246
-0.241
-0.2425
-0.2465
-0.2445
-0.2425
-0.2415
-0.2435
-0.247
-0.246
-0.2465
-0.2475
-0.25
-0.246
-0.245
-0.254
-0.257
-0.2575
-0.2455
-0.233
-0.233
-0.242
-0.248
-0.245
-0.247
-0.249
-0.245
-0.2485
-0.255
-0.2585
-0.264
-0.2625
-0.2645
-0.2605
-0.253
-0.2425
-0.2315
-0.2345
-0.235
-0.2455
-0.2545
-0.2495
-0.246
-0.25
-0.2465
-0.2365
-0.2365
-0.234
-0.2355
-0.2455
-0.2415
-0.242
-0.2455
-0.2425
-0.2405
-0.2395
-0.243
-0.245
-0.246
-0.2495
-0.2585
-0.2605
-0.258
-0.2575
-0.2575
-0.2535
-0.251
-0.256
-0.2535
-0.2475
-0.241
-0.24
-0.24
-0.2415
-0.2505
-0.252
-0.253
-0.2545
-0.258
-0.256
-0.2525
-0.2565
-0.257
-0.2585
-0.252
-0.246
-0.248
-0.2445
-0.238
-0.2305
-0.226
-0.2325
-0.2385
-0.2395
-0.2425
-0.2455
-0.244
-0.249
-0.2485
-0.244
-0.242
-0.249
-0.2585
-0.254
-0.251
-0.244
-0.24
-0.242
-0.243
-0.243
-0.2375
-0.2395
-0.244
-0.2455
-0.2485
-0.2435
-0.2385
-0.243
-0.2485
-0.253
-0.257
-0.256
-0.2515
-0.245
-0.2375
-0.237
-0.2335
-0.237
-0.247
-0.247
-0.2475
-0.249
-0.2505
-0.2525
-0.255
-0.2535
-0.249
-0.2455
-0.241
-0.2435
-0.253
-0.257
-0.2525
-0.252
-0.249
-0.244
-0.2485
-0.253
-0.258
-0.266
-0.263
-0.2515
-0.2465
-0.2455
-0.248
-0.2535
-0.2525
-0.2495
-0.253
-0.255
-0.254
-0.2615
-0.2645
-0.2605
-0.256
-0.252
-0.2555
-0.2615
-0.264
-0.264
-0.2585
-0.255
-0.258
-0.2495
-0.2465
-0.2535
-0.261
-0.2675
-0.2725
-0.2775
-0.2735
-0.2625
-0.263
-0.271
-0.2595
-0.253
-0.254
-0.2415
-0.237
-0.242
-0.245
-0.248
-0.252
-0.2535
-0.254
-0.2475
-0.242
-0.2515
-0.2645
-0.2655
-0.264
-0.265
-0.2575
-0.258
-0.259
-0.2535
-0.26
-0.269
-0.274
-0.276
-0.2765
-0.269
-0.2505
-0.233
-0.2325
-0.2405
-0.24
-0.242
-0.239
-0.2345
-0.23
-0.2325
-0.2355
-0.227
-0.227
-0.2275
-0.2235
-0.223
-0.2175
-0.2115
-0.217
-0.2165
-0.21
-0.21
-0.212
-0.2165
-0.222
-0.2195
-0.2175
-0.2195
-0.2085
-0.202
-0.2035
-0.197
-0.1925
-0.19
-0.189
-0.1925
-0.1975
-0.2065
-0.2075
-0.2025
-0.206
-0.2025
-0.196
-0.1925
-0.187
-0.1865
-0.189
-0.192
-0.195
-0.1935
-0.1895
-0.1865
-0.184
-0.183
-0.182
-0.181
-0.1835
-0.183
-0.185
-0.193
-0.1915
-0.184
-0.1855
-0.198
-0.2
-0.195
-0.2
-0.1965
-0.1875
-0.1835
-0.185
-0.1905
-0.188
-0.189
-0.195
-0.2005
-0.2025
-0.1965
-0.1935
-0.195
-0.196
-0.197
-0.1945
-0.195
-0.2
-0.206
-0.2105
-0.2115
-0.211
-0.213
-0.214
-0.221
-0.2265
-0.216
-0.213
-0.2285
-0.244
-0.2425
-0.2425
-0.2505
-0.2525
-0.2535
-0.252
-0.25
-0.2545
-0.2625
-0.2625
-0.2625
-0.2675
-0.276
-0.275
-0.271
-0.2715
-0.2685
-0.269
-0.2685
-0.2685
-0.277
-0.281
-0.2775
-0.2825
-0.285
-0.2855
-0.294
-0.296
-0.288
-0.2775
-0.2625
-0.246
-0.248
-0.261
-0.2645
-0.27
-0.27
-0.2685
-0.268
-0.263
-0.266
-0.2635
-0.264
-0.2675
-0.27
-0.2715
-0.266
-0.271
-0.268
-0.2685
-0.2785
-0.2885
-0.292
-0.283
-0.288
-0.2895
-0.286
-0.281
-0.276
-0.2785
-0.283
-0.2875
-0.2895
-0.2895
-0.2845
-0.2815
-0.266
-0.2545
-0.2615
-0.2695
-0.275
-0.277
-0.279
-0.2755
-0.275
-0.286
-0.2945
-0.3035
-0.316
-0.33
-0.347
-0.364
-0.374
-0.3715
-0.3785
-0.3795
-0.3595
-0.3565
-0.3585
-0.36
-0.362
-0.349
-0.3375
-0.33
-0.3025
-0.253
-0.2205
-0.1855
-0.1275
-0.0775
-0.0175
0.042
0.091
0.1425
0.188
0.2395
0.295
0.3495
0.405
0.4445
0.475
0.512
0.533
0.5345
0.5405
0.5405
0.53
0.516
0.51
0.501
0.489
0.472
0.428
0.384
0.342
0.281
0.2095
0.144
0.071
-0.011
-0.0835
-0.1475
-0.189
-0.2155
-0.2315
-0.239
-0.2495
-0.259
-0.256
-0.248
-0.2545
-0.255
-0.252
-0.2535
-0.2505
-0.2485
-0.2485
-0.242
-0.2365
-0.247
-0.248
-0.2475
-0.2515
-0.2505
-0.25
-0.2495
-0.2525
-0.259
-0.267
-0.2695
-0.269
-0.2685
-0.2665
-0.2695
-0.2655
-0.2585
-0.2615
-0.2575
-0.25
-0.2475
-0.255
-0.2645
-0.266
-0.266
-0.264
-0.2595
-0.2585
-0.265
-0.2685
-0.2665
-0.266
-0.2635
-0.259
-0.262
-0.2675
-0.268
-0.269
-0.271
-0.271
-0.2655
-0.2605
-0.258
-0.253
-0.249
-0.2545
-0.26
-0.2645
-0.2655
-0.2615
-0.262
-0.255
-0.2505
-0.25
-0.2515
-0.267
-0.273
-0.267
-0.269
-0.268
-0.2645
-0.2615
-0.2525
-0.247
-0.249
-0.2545
-0.258
-0.26
-0.2555
-0.247
-0.2495
-0.247
-0.241
-0.24
-0.242
-0.2375
-0.23
-0.233
-0.2365
-0.2435
-0.247
-0.25
-0.2585
-0.261
-0.261
-0.2585
-0.2615
-0.2565
-0.234
-0.228
-0.229
-0.2285
-0.233
-0.235
-0.241
-0.2415
-0.2285
-0.2245
-0.231
-0.2385
-0.2345
-0.2145
-0.21
-0.2145
-0.216
-0.2135
-0.215
-0.229
-0.231
-0.22
-0.218
-0.223
-0.2215
-0.2195
-0.224
-0.219
-0.2155
-0.216
-0.2095
-0.208
-0.21
-0.2085
-0.208
-0.203
-0.2015
-0.207
-0.2125
-0.2075
-0.198
-0.1965
-0.1905
-0.188
-0.1855
-0.189
-0.192
-0.192
-0.198
-0.193
-0.1905
-0.19
-0.189
-0.1775
-0.1615
-0.1625
-0.168
-0.172
-0.166
-0.162
-0.1615
-0.1635
-0.162
-0.15
-0.1495
-0.151
-0.148
-0.148
-0.1495
-0.1465
-0.135
-0.1275
-0.128
-0.123
-0.1205
-0.1155
-0.109
-0.11
-0.11
-0.108
-0.108
-0.104
-0.0975
-0.1005
-0.099
-0.0955
-0.0895
-0.0805
-0.079
-0.069
-0.055
-0.048
-0.046
-0.0435
-0.033
-0.0305
-0.0355
-0.037
-0.0385
-0.037
-0.0405
-0.0375
-0.032
-0.0325
-0.029
-0.026
-0.0085
0.001
-0.005
-0.0015
0.001
0.002
0.005
0.003
-0.0005
0.0035
0.005
0.007
0.012
0.013
0.0155
0.02
0.0245
0.028
0.026
0.0195
0.019
0.0235
0.0305
0.0335
0.032
0.0225
0.0205
0.021
0.0135
0.0105
0.01
0.016
0.016
0.014
0.0145
0.014
0.0115
0.012
0.0215
0.017
0.006
-0.0015
-0.012
-0.0185
-0.0215
-0.029
-0.0315
-0.0385
-0.053
-0.0555
-0.057
-0.065
-0.078
-0.0815
-0.0785
-0.0885
-0.095
-0.1005
-0.1045
-0.1035
-0.1125
-0.1185
-0.122
-0.1295
-0.1295
-0.1305
-0.135
-0.147
-0.159
-0.163
-0.1635
-0.166
-0.174
-0.178
-0.183
-0.189
-0.1865
-0.1825
-0.1865
-0.1875
-0.1865
-0.1915
-0.1965
-0.2105
-0.2145
-0.21
-0.213
-0.214
-0.223
-0.2255
-0.2135
-0.219
-0.2245
-0.223
-0.227
-0.2255
-0.218
-0.2245
-0.2465
-0.2445
-0.239
-0.242
-0.236
-0.2305
-0.2265
-0.2265
-0.232
-0.2355
-0.2385
-0.2375
-0.2325
-0.239
-0.2405
-0.2425
-0.2485
-0.2485
-0.249
-0.2465
-0.246
-0.2505
-0.249
-0.2435
-0.24
-0.231
-0.231
-0.2325
-0.234
-0.234
-0.237
-0.248
-0.244
-0.2395
-0.2425
-0.243
-0.2425
-0.248
-0.2505
-0.251
-0.2505
-0.244
-0.2365
-0.2365
-0.247
-0.2505
-0.25
-0.246
-0.245
-0.2495
-0.247
-0.25
-0.257
-0.262
-0.2625
-0.259
-0.2575
-0.2505
-0.244
-0.2425
-0.238
-0.2425
-0.253
-0.253
-0.2505
-0.2485
-0.2445
-0.241
-0.2355
-0.2405
-0.2475
-0.251
-0.2575
-0.2595
-0.256
-0.246
-0.2375
-0.2365
-0.239
-0.242
-0.2445
-0.247
-0.2465
-0.244
-0.245
-0.25
-0.2475
-0.237
-0.2335
-0.236
-0.242
-0.2525
-0.2555
-0.258
-0.2585
-0.2565
-0.256
-0.256
-0.257
-0.2455
-0.242
-0.2495
-0.253
-0.245
-0.2365
-0.2395
-0.242
-0.2435
-0.2405
-0.2405
-0.244
-0.2445
-0.242
-0.2455
-0.2495
-0.2425
-0.237
-0.2355
-0.2385
-0.238
-0.2345
-0.245
-0.252
-0.2515
-0.252
-0.2425
-0.2435
-0.244
-0.2365
-0.2395
-0.2435
-0.247
-0.248
-0.2495
-0.2405
-0.232
-0.236
-0.2415
-0.2435
-0.2385
-0.2375
-0.2375
-0.234
-0.233
-0.237
-0.241
-0.243
-0.2485
-0.258
-0.262
-0.254
-0.2555
-0.26
-0.259
-0.2575
-0.2545
-0.2505
-0.2475
-0.2485
-0.2495
-0.2415
-0.2335
-0.238
-0.24
-0.246
-0.2515
-0.2545
-0.255
-0.257
-0.2595
-0.257
-0.259
-0.2595
-0.2575
-0.2555
-0.252
-0.2485
-0.2515
-0.2485
-0.243
-0.24
-0.239
-0.242
-0.246
-0.2485
-0.243
-0.245
-0.257
-0.262
-0.2615
-0.261
-0.255
-0.2525
-0.2565
-0.2635
-0.2665
-0.2655
-0.2665
-0.264
-0.2665
-0.262
-0.2565
-0.261
-0.257
-0.257
-0.264
-0.26
-0.2615
-0.267
-0.258
-0.2485
-0.2495
-0.256
-0.262
-0.262
-0.2535
-0.2515
-0.2555
-0.2525
-0.246
-0.241
-0.2415
-0.2485
-0.2585
-0.2605
-0.26
-0.262
-0.258
-0.2545
-0.257
-0.26
-0.263
-0.2625
-0.2565
-0.258
-0.264
-0.2645
-0.256
-0.247
-0.2465
-0.2505
-0.251
-0.251
-0.253
-0.2565
-0.256
-0.259
-0.2595
-0.259
-0.262
-0.265
-0.2665
-0.261
-0.259
-0.258
-0.2595
-0.26
-0.251
-0.2505
-0.253
-0.2525
-0.256
-0.257
-0.2575
-0.248
-0.2305
-0.2245
-0.232
-0.2385
-0.2395
-0.2395
-0.234
-0.23
-0.231
-0.2235
-0.2095
-0.2045
-0.1995
-0.195
-0.202
-0.201
-0.193
-0.1975
-0.1985
-0.198
-0.1945
-0.191
-0.196
-0.1945
-0.1965
-0.201
-0.2
-0.197
-0.1885
-0.1865
-0.188
-0.1825
-0.1745
-0.1745
-0.18
-0.182
-0.186
-0.182
-0.175
-0.1745
-0.1695
-0.1705
-0.179
-0.187
-0.189
-0.1775
-0.1845
-0.197
-0.192
-0.1885
-0.177
-0.1745
-0.182
-0.179
-0.1745
-0.1735
-0.1805
-0.189
-0.1865
-0.1715
-0.175
-0.184
-0.183
-0.184
-0.183
-0.186
-0.19
-0.195
-0.198
-0.2075
-0.2105
-0.202
-0.206
-0.2015
-0.195
-0.1955
-0.1975
-0.199
-0.202
-0.2
-0.2005
-0.201
-0.2005
-0.2055
-0.2075
-0.2135
-0.2185
-0.2295
-0.2405
-0.2415
-0.2385
-0.2335
-0.238
-0.248
-0.2485
-0.2555
-0.266
-0.2635
-0.2565
-0.254
-0.258
-0.2605
-0.2595
-0.2565
-0.264
-0.27
-0.273
-0.2825
-0.2905
-0.2855
-0.2795
-0.2665
-0.2525
-0.248
-0.247
-0.2535
-0.2605
-0.268
-0.2725
-0.2745
-0.276
-0.273
-0.267
-0.266
-0.2675
-0.271
-0.275
-0.2745
-0.2805
-0.2845
-0.285
-0.288
-0.282
-0.273
-0.275
-0.2765
-0.2725
-0.272
-0.268
-0.272
-0.288
-0.2865
-0.276
-0.2745
-0.2775
-0.2795
-0.275
-0.2785
-0.282
-0.28
-0.278
-0.2715
-0.276
-0.277
-0.2665
-0.264
-0.2635
-0.2695
-0.277
-0.2825
-0.289
-0.2865
-0.2845
-0.282
-0.2815
-0.287
-0.294
-0.2985
-0.307
-0.312
-0.3115
-0.327
-0.343
-0.352
-0.363
-0.3685
-0.3745
-0.3685
-0.358
-0.36
-0.36
-0.3635
-0.3635
-0.358
-0.3515
-0.3345
-0.3135
-0.2765
-0.2375
-0.209
-0.1665
-0.1155
-0.058
0.0015
0.0605
0.1165
0.157
0.21
0.2755
0.328
0.3905
0.4395
0.4695
0.505
0.5245
0.5375
0.5495
0.556
0.5635
0.549
0.5235
0.5075
0.503
0.5025
0.467
0.403
0.341
0.291
0.227
0.151
0.085
0.017
-0.058
-0.1305
-0.1775
-0.2095
-0.2295
-0.242
-0.2615
-0.2675
-0.2665
-0.2645
-0.2645
-0.2725
-0.2675
-0.262
-0.272
-0.28
-0.2775
-0.2715
-0.2615
-0.25
-0.2515
-0.2545
-0.2575
-0.2615
-0.262
-0.264
-0.2655
-0.267
-0.267
-0.2655
-0.2595
-0.2495
-0.2525
-0.262
-0.256
-0.2525
-0.258
-0.259
-0.259
-0.262
-0.269
-0.271
-0.265
-0.266
-0.2705
-0.2705
-0.2675
-0.268
-0.271
-0.2705
-0.2665
-0.2595
-0.256
-0.259
-0.2655
-0.268
-0.2645
-0.26
-0.2605
-0.2585
-0.259
-0.2595
-0.255
-0.256
-0.2635
-0.2675
-0.261
-0.2575
-0.2585
-0.26
-0.2605
-0.257
-0.256
-0.256
-0.255
-0.251
-0.2485
-0.251
-0.2535
-0.253
-0.25
-0.248
-0.252
-0.255
-0.2515
-0.249
-0.248
-0.25
-0.254
-0.253
-0.249
-0.2485
-0.248
-0.2445
-0.24
-0.2395
-0.2475
-0.25
-0.2525
-0.254
-0.2475
-0.248
-0.2445
-0.2345
-0.231
-0.2295
-0.2325
-0.236
-0.2335
-0.2345
-0.2355
-0.232
-0.23
-0.232
-0.2295
-0.224
-0.2245
-0.2245
-0.229
-0.2305
-0.2345
-0.2375
-0.227
-0.211
-0.202
-0.208
-0.212
-0.2185
-0.2225
-0.2195
-0.218
-0.2185
-0.2165
-0.2135
-0.2145
-0.2125
-0.2105
-0.21
-0.208
-0.1965
-0.192
-0.191
-0.193
-0.204
-0.207
-0.2115
-0.2135
-0.21
-0.204
-0.1925
-0.185
-0.181
-0.181
-0.183
-0.178
-0.172
-0.17
-0.1685
-0.165
-0.166
-0.1725
-0.171
-0.172
-0.1735
-0.1615
-0.157
-0.16
-0.1585
-0.1515
-0.1475
-0.146
-0.1465
-0.146
-0.142
-0.14
-0.134
-0.1305
-0.124
-0.122
-0.119
-0.1125
-0.1155
-0.1145
-0.1135
-0.114
-0.113
-0.1115
-0.102
-0.0805
-0.069
-0.0665
-0.0615
-0.069
-0.075
-0.0695
-0.0575
-0.0535
-0.0505
-0.047
-0.0455
-0.041
-0.0365
-0.028
-0.0185
-0.013
-0.014
-0.012
-0.0095
-0.016
-0.0145
-0.0005
-0.0055
-0.006
0.004
0.0065
0.0155
0.017
0.0165
0.016
0.016
0.0105
0.009
0.0215
0.031
0.039
0.039
0.038
0.04
0.042
0.049
0.055
0.0545
0.049
0.0515
0.061
0.0605
0.048
0.047
0.0515
0.0415
0.0405
0.0455
0.0455
0.0475
0.0425
0.035
0.029
0.0275
0.028
0.024
0.0225
0.028
0.026
0.0145
0.009
0.0095
0.0015
-0.008
-0.014
-0.0195
-0.026
-0.0315
-0.034
-0.041
-0.0495
-0.0455
-0.041
-0.051
-0.0715
-0.088
-0.0945
-0.096
-0.1065
-0.109
-0.0995
-0.0995
-0.0995
-0.103
-0.1155
-0.1295
-0.1415
-0.15
-0.152
-0.1495
-0.1575
-0.166
-0.1725
-0.1755
-0.17
-0.1655
-0.166
-0.177
-0.1905
-0.1915
-0.1885
-0.1915
-0.203
-0.211
-0.2135
-0.214
-0.213
-0.212
-0.208
-0.2045
-0.2095
-0.215
-0.211
-0.21
-0.214
-0.2215
-0.23
-0.23
-0.232
-0.234
-0.235
-0.24
-0.2415
-0.2455
-0.238
-0.224
-0.232
-0.245
-0.2465
-0.239
-0.2365
-0.24
-0.238
-0.2365
-0.234
-0.2355
-0.2335
-0.2315
-0.2385
-0.2435
-0.245
-0.2465
-0.249
-0.244
-0.235
-0.2325
-0.2335
-0.2335
-0.241
-0.244
-0.2405
-0.245
-0.247
-0.2545
-0.2605
-0.2575
-0.257
-0.2525
-0.245
-0.2425
-0.252
-0.256
-0.2525
-0.2535
-0.2445
-0.2475
-0.2515
-0.2465
-0.2465
-0.239
-0.239
-0.235
-0.231
-0.2355
-0.242
-0.2515
-0.25
-0.2535
-0.2485
-0.2395
-0.237
-0.2305
-0.236
-0.241
-0.238
-0.2425
-0.248
-0.243
-0.2435
-0.24
-0.228
-0.2315
-0.2395
-0.25
-0.257
-0.2515
-0.2455
-0.2445
-0.248
-0.2465
-0.249
-0.249
-0.237
-0.2365
-0.239
-0.239
-0.238
-0.2325
-0.2365
-0.248
-0.254
-0.243
-0.2315
-0.234
-0.2385
-0.239
-0.2415
-0.2455
-0.238
-0.2305
-0.2335
-0.236
-0.237
-0.241
-0.2445
-0.245
-0.24
-0.2295
-0.2325
-0.245
-0.2455
-0.2355
-0.227
-0.2295
-0.245
-0.246
-0.233
-0.231
-0.2365
-0.2385
-0.2435
-0.2495
-0.243
-0.235
-0.2375
-0.2415
-0.243
-0.244
-0.245
-0.2475
-0.2455
-0.242
-0.2435
-0.247
-0.2525
-0.255
-0.2535
-0.245
-0.234
-0.2285
-0.2325
-0.236
-0.238
-0.2435
-0.247
-0.2515
-0.253
-0.255
-0.254
-0.253
-0.2525
-0.2395
-0.2375
-0.249
-0.2445
-0.2315
-0.2305
-0.2345
-0.241
-0.2415
-0.2365
-0.2345
-0.237
-0.2415
-0.2475
-0.253
-0.249
-0.24
-0.239
-0.2375
-0.2375
-0.2425
-0.248
-0.252
-0.247
-0.2435
-0.2475
-0.2525
-0.2505
-0.2475
-0.248
-0.246
-0.247
-0.243
-0.237
-0.242
-0.2465
-0.244
-0.247
-0.251
-0.2495
-0.25
-0.25
-0.2465
-0.2455
-0.2475
-0.2465
-0.2495
-0.255
-0.2555
-0.251
-0.25
-0.2575
-0.2575
-0.25
-0.2475
-0.2525
-0.258
-0.2555
-0.25
-0.2475
-0.2525
-0.2565
-0.255
-0.2565
-0.2635
-0.257
-0.2505
-0.253
-0.256
-0.2585
-0.2565
-0.258
-0.258
-0.257
-0.257
-0.258
-0.2595
-0.2535
-0.2485
-0.2465
-0.245
-0.2445
-0.2435
-0.2465
-0.25
-0.253
-0.257
-0.261
-0.2665
-0.265
-0.26
-0.2615
-0.2575
-0.2515
-0.2545
-0.2565
-0.2525
-0.265
-0.275
-0.2715
-0.262
-0.247
-0.2365
-0.221
-0.227
-0.238
-0.2335
-0.24
-0.242
-0.2395
-0.241
-0.237
-0.232
-0.23
-0.217
-0.2035
-0.2
-0.201
-0.204
-0.2065
-0.2005
-0.19
-0.1885
-0.1915
-0.197
-0.1905
-0.1785
-0.1765
-0.17
-0.171
-0.1785
-0.1785
-0.1755
-0.169
-0.1675
-0.17
-0.166
-0.164
-0.165
-0.1605
-0.1495
-0.1475
-0.148
-0.145
-0.1485
-0.1495
-0.155
-0.1635
-0.1665
-0.1705
-0.1685
-0.162
-0.16
-0.1595
-0.1575
-0.1575
-0.154
-0.1535
-0.151
-0.1395
-0.142
-0.1535
-0.16
-0.1605
-0.1585
-0.17
-0.184
-0.18
-0.183
-0.1895
-0.185
-0.1795
-0.175
-0.1755
-0.1815
-0.1865
-0.184
-0.1805
-0.179
-0.18
-0.1835
-0.1775
-0.177
-0.1895
-0.1965
-0.202
-0.205
-0.2115
-0.2225
-0.2235
-0.221
-0.2145
-0.2
-0.1905
-0.2045
-0.2185
-0.2215
-0.2285
-0.231
-0.2445
-0.2475
-0.2385
-0.24
-0.252
-0.244
-0.232
-0.2465
-0.254
-0.257
-0.2575
-0.2575
-0.258
-0.2575
-0.2595
-0.2605
-0.264
-0.261
-0.2555
-0.2585
-0.269
-0.2705
-0.2645
-0.2595
-0.264
-0.268
-0.265
-0.267
-0.2665
-0.273
-0.2785
-0.2685
-0.272
-0.272
-0.2635
-0.2695
-0.277
-0.278
-0.2705
-0.269
-0.273
-0.2735
-0.2755
-0.2735
-0.2725
-0.275
-0.2745
-0.2755
-0.2765
-0.2735
-0.276
-0.28
-0.28
-0.2815
-0.2805
-0.2775
-0.27
-0.268
-0.279
-0.285
-0.286
-0.287
-0.2865
-0.278
-0.2745
-0.267
-0.267
-0.285
-0.2815
-0.272
-0.2725
-0.278
-0.283
-0.2795
-0.273
-0.275
-0.2835
-0.2945
-0.299
-0.284
-0.281
-0.2875
-0.2995
-0.312
-0.3115
-0.317
-0.3325
-0.3525
-0.365
-0.374
-0.38
-0.3865
-0.3805
-0.36
-0.354
-0.3675
-0.3765
-0.3715
-0.364
-0.352
-0.334
-0.2925
-0.2415
-0.2005
-0.1565
-0.112
-0.059
0.004
0.061
0.113
0.1635
0.2155
0.2725
0.3295
0.3845
0.4265
0.4515
0.489
0.521
0.5315
0.5495
0.568
0.577
0.5595
0.533
0.516
0.496
0.4855
0.465
0.4125
0.3525
0.303
0.239
0.175
0.1205
0.048
-0.0375
-0.1085
-0.1605
-0.196
-0.2165
-0.235
-0.249
-0.258
-0.2685
-0.274
-0.269
-0.275
-0.282
-0.285
-0.288
-0.285
-0.2835
-0.2795
-0.2665
-0.2485
-0.248
-0.2525
-0.2545
-0.26
-0.261
-0.2605
-0.261
-0.2655
-0.2645
-0.259
-0.2665
-0.27
-0.2615
-0.2575
-0.2545
-0.262
-0.261
-0.254
-0.2655
-0.275
-0.278
-0.2735
-0.2695
-0.2705
-0.26
-0.252
-0.2585
-0.256
-0.255
-0.257
-0.251
-0.2605
-0.273
-0.2795
-0.2795
-0.2725
-0.2745
-0.271
-0.2635
-0.261
-0.2635
-0.2655
-0.2595
-0.254
-0.256
-0.2545
-0.2545
-0.2615
-0.256
-0.253
-0.256
-0.2615
-0.2625
-0.2535
-0.244
-0.2465
-0.2495
-0.246
-0.2555
-0.259
-0.2595
-0.2585
-0.2525
-0.241
-0.2295
-0.234
-0.244
-0.249
-0.249
-0.254
-0.2585
-0.255
-0.2515
-0.242
-0.234
-0.241
-0.244
-0.2375
-0.2365
-0.234
-0.2345
-0.245
-0.249
-0.2485
-0.245
-0.2425
-0.233
-0.226
-0.2265
-0.223
-0.2275
-0.2215
-0.218
-0.23
-0.2305
-0.227
-0.2275
-0.2225
-0.22
-0.233
-0.24
-0.2285
-0.212
-0.2215
-0.2335
-0.233
-0.232
-0.2185
-0.209
-0.206
-0.2065
-0.2135
-0.223
-0.2235
-0.211
-0.2055
-0.2105
-0.2095
-0.202
-0.2005
-0.2025
-0.2025
-0.203
-0.196
-0.19
-0.184
-0.1855
-0.1915
-0.184
-0.1795
-0.1835
-0.187
-0.1845
-0.179
-0.1765
-0.172
-0.169
-0.1705
-0.177
-0.1795
-0.1735
-0.1675
-0.1625
-0.1645
-0.16
-0.1555
-0.1615
-0.1605
-0.1495
-0.1445
-0.1455
-0.1365
-0.145
-0.1505
-0.1465
-0.1395
-0.132
-0.1195
-0.1085
-0.1145
-0.107
-0.098
-0.1035
-0.1085
-0.112
-0.1145
-0.103
-0.092
-0.0825
-0.077
-0.0755
-0.076
-0.0705
-0.058
-0.0555
-0.0515
-0.0525
-0.0495
-0.0495
-0.059
-0.0595
-0.051
-0.039
-0.0355
-0.0365
-0.031
-0.013
-0.008
-0.017
-0.0175
-0.0135
-0.016
0.0005
0.0285
0.036
0.0335
0.0195
0.0175
0.0265
0.0245
0.0265
0.0325
0.0345
0.027
0.025
0.0275
0.028
0.0355
0.04
0.051
0.057
0.046
0.0495
0.053
0.0545
0.0585
0.0515
0.047
0.0405
0.0375
0.04
0.041
0.044
0.0495
0.049
0.044
0.0425
0.0435
0.0345
0.0225
0.0255
0.0275
0.0275
0.023
0.0195
0.0155
0.006
0.0015
0.006
0.0025
-0.0085
-0.0185
-0.0285
-0.038
-0.0575
-0.061
-0.061
-0.0735
-0.0765
-0.074
-0.0705
-0.0715
-0.0785
-0.084
-0.0965
-0.105
-0.1105
-0.126
-0.127
-0.128
-0.1335
-0.1315
-0.1385
-0.147
-0.1505
-0.1585
-0.172
-0.1795
-0.1775
-0.1745
-0.1745
-0.18
-0.1935
-0.198
-0.1925
-0.192
-0.1945
-0.203
-0.206
-0.199
-0.2055
-0.226
-0.229
-0.2195
-0.2175
-0.2175
-0.2175
-0.219
-0.2225
-0.2235
-0.2215
-0.225
-0.223
-0.2175
-0.224
-0.2325
-0.2325
-0.2375
-0.2345
-0.221
-0.2225
-0.2265
-0.232
-0.2345
-0.237
-0.2355
-0.2395
-0.2495
-0.239
-0.2295
-0.232
-0.237
-0.24
-0.241
-0.237
-0.2305
-0.2285
-0.2295
-0.229
-0.231
-0.2355
-0.242
-0.2485
-0.2635
-0.272
-0.261
-0.25
-0.243
-0.243
-0.239
-0.2375
-0.2495
-0.2505
-0.238
-0.2335
-0.2375
-0.235
-0.236
-0.2395
-0.2455
-0.2555
-0.2485
-0.2465
-0.2515
-0.254
-0.258
-0.249
-0.2445
-0.245
-0.2455
-0.252
-0.2525
-0.2475
-0.2485
-0.2465
-0.246
-0.244
-0.241
-0.2415
-0.2405
-0.245
-0.2455
-0.246
-0.246
-0.247
-0.255
-0.257
-0.257
-0.258
-0.2575
-0.251
-0.2455
-0.242
-0.2395
-0.2415
-0.2445
-0.249
-0.2535
-0.257
-0.2525
-0.244
-0.2375
-0.236
-0.237
-0.239
-0.2455
-0.2555
-0.257
-0.2505
-0.251
-0.255
-0.247
-0.239
-0.2395
-0.2365
-0.2355
-0.2245
-0.222
-0.229
-0.2285
-0.2415
-0.248
-0.257
-0.2665
-0.2525
-0.236
-0.228
-0.2335
-0.229
-0.2315
-0.2425
-0.243
-0.2435
-0.2425
-0.2435
-0.2415
-0.2405
-0.2315
-0.226
-0.2345
-0.23
-0.231
-0.2365
-0.226
-0.2295
-0.24
-0.2455
-0.25
-0.2465
-0.242
-0.232
-0.233
-0.246
-0.248
-0.239
-0.2365
-0.2445
-0.2415
-0.2405
-0.2375
-0.233
-0.2405
-0.239
-0.242
-0.2525
-0.253
-0.251
-0.2495
-0.2565
-0.259
-0.2555
-0.26
-0.258
-0.2595
-0.262
-0.252
-0.2335
-0.2275
-0.2335
-0.237
-0.2445
-0.245
-0.2495
-0.2515
-0.264
-0.2785
-0.2685
-0.259
-0.248
-0.247
-0.244
-0.238
-0.2445
-0.2555
-0.2585
-0.2605
-0.26
-0.2425
-0.2445
-0.252
-0.2485
-0.245
-0.24
-0.2425
-0.25
-0.254
-0.26
-0.264
-0.254
-0.253
-0.2605
-0.255
-0.25
-0.244
-0.2435
-0.248
-0.249
-0.2575
-0.261
-0.2565
-0.2405
-0.2385
-0.256
-0.2605
-0.2645
-0.2565
-0.2485
-0.2455
-0.2445
-0.258
-0.2565
-0.252
-0.252
-0.249
-0.2545
-0.2615
-0.265
-0.267
-0.267
-0.269
-0.264
-0.2535
-0.252
-0.244
-0.246
-0.249
-0.2465
-0.246
-0.2435
-0.251
-0.244
-0.237
-0.2475
-0.241
-0.236
-0.234
-0.234
-0.2335
-0.2335
-0.2375
-0.2345
-0.2235
-0.2125
-0.219
-0.2205
-0.2145
-0.2045
-0.194
-0.1925
-0.1865
-0.185
-0.1905
-0.194
-0.2015
-0.2095
-0.2085
-0.1945
-0.1855
-0.1825
-0.1835
-0.187
-0.186
-0.1835
-0.1835
-0.1845
-0.1735
-0.1605
-0.1465
-0.1455
-0.156
-0.1625
-0.1715
-0.174
-0.177
-0.184
-0.179
-0.17
-0.1695
-0.1665
-0.162
-0.165
-0.1675
-0.168
-0.1685
-0.164
-0.163
-0.16
-0.1545
-0.154
-0.1605
-0.163
-0.165
-0.179
-0.1895
-0.195
-0.1935
-0.194
-0.1965
-0.18
-0.166
-0.169
-0.1735
-0.1745
-0.1825
-0.194
-0.191
-0.1905
-0.2025
-0.2075
-0.205
-0.201
-0.2025
-0.207
-0.202
-0.216
-0.2275
-0.2125
-0.2115
-0.2265
-0.2225
-0.2195
-0.223
-0.22
-0.23
-0.2395
-0.2445
-0.2495
-0.2515
-0.254
-0.2535
-0.262
-0.277
-0.2675
-0.2535
-0.2515
-0.2515
-0.2565
-0.254
-0.2535
-0.245
-0.2485
-0.2625
-0.2695
-0.275
-0.2715
-0.2705
-0.2775
-0.2815
-0.276
-0.2815
-0.2845
-0.283
-0.285
-0.281
-0.2735
-0.2645
-0.261
-0.266
-0.2675
-0.2695
-0.2805
-0.279
-0.2725
-0.2655
-0.267
-0.2715
-0.2665
-0.2705
-0.2825
-0.289
-0.296
-0.295
-0.2825
-0.2795
-0.2735
-0.2765
-0.2845
-0.286
-0.2865
-0.284
-0.284
-0.276
-0.2795
-0.284
-0.284
-0.2845
-0.277
-0.2725
-0.267
-0.2655
-0.2715
-0.285
-0.289
-0.285
-0.285
-0.283
-0.279
-0.277
-0.2905
-0.2935
-0.2865
-0.2895
-0.29
-0.291
-0.2895
-0.282
-0.2885
-0.295
-0.3075
-0.319
-0.3205
-0.3285
-0.351
-0.3745
-0.372
-0.3715
-0.3685
-0.365
-0.3755
-0.3815
-0.3845
-0.3835
-0.3605
-0.339
-0.331
-0.3045
-0.2705
-0.2335
-0.19
-0.1445
-0.0915
-0.036
0.021
0.074
0.128
0.1775
0.2235
0.2765
0.324
0.378
0.414
0.44
0.4875
0.5035
0.509
0.5165
0.5095
0.5075
0.4775
0.456
0.4545
0.453
0.449
0.405
0.349
0.302
0.2335
0.1425
0.073
0.0225
-0.0335
-0.0955
-0.1495
-0.188
-0.224
-0.2505
-0.274
-0.294
-0.2905
-0.278
-0.2755
-0.273
-0.2795
-0.285
-0.276
-0.277
-0.277
-0.2755
-0.2695
-0.259
-0.2605
-0.2625
-0.273
-0.281
-0.272
-0.268
-0.2665
-0.2595
-0.2625
-0.272
-0.2735
-0.2715
-0.271
-0.2715
-0.267
-0.268
-0.265
-0.261
-0.256
-0.26
-0.266
-0.2635
-0.2665
-0.266
-0.272
-0.2725
-0.2715
-0.279
-0.278
-0.274
-0.266
-0.2625
-0.2725
-0.2675
-0.2605
-0.256
-0.2435
-0.249
-0.251
-0.2475
-0.254
-0.253
-0.2565
-0.265
-0.2725
-0.2695
-0.2625
-0.2635
-0.2585
-0.26
-0.2605
-0.258
-0.259
-0.2565
-0.2495
-0.25
-0.244
-0.2295
-0.23
-0.24
-0.2475
-0.241
-0.2465
-0.258
-0.256
-0.257
-0.2605
-0.2505
-0.248
-0.26
-0.2555
-0.251
-0.246
-0.239
-0.2355
-0.244
-0.2495
-0.2425
-0.245
-0.248
-0.252
-0.252
-0.244
-0.237
-0.23
-0.229
-0.2285
-0.2255
-0.2275
-0.217
-0.2175
-0.226
-0.2195
-0.2245
-0.2315
-0.2305
-0.231
-0.2325
-0.2305
-0.228
-0.239
-0.2335
-0.225
-0.2295
-0.2265
-0.222
-0.217
-0.226
-0.2225
-0.207
-0.2095
-0.2165
-0.217
-0.209
-0.214
-0.22
-0.2105
-0.216
-0.214
-0.204
-0.205
-0.198
-0.1995
-0.1995
-0.2
-0.212
-0.211
-0.2145
-0.216
-0.2095
-0.208
-0.196
-0.192
-0.1885
-0.177
-0.174
-0.176
-0.1785
-0.178
-0.173
-0.1595
-0.1525
-0.1505
-0.1535
-0.1575
-0.1515
-0.1495
-0.1545
-0.1575
-0.146
-0.1395
-0.1365
-0.14
-0.1425
-0.137
-0.1455
-0.148
-0.1425
-0.1315
-0.1245
-0.1225
-0.116
-0.1245
-0.1175
-0.101
-0.096
-0.099
-0.108
-0.096
-0.0965
-0.1025
-0.0875
-0.095
-0.096
-0.0775
-0.079
-0.0755
-0.0565
-0.0545
-0.047
-0.045
-0.0515
-0.042
-0.042
-0.035
-0.029
-0.026
-0.022
-0.0325
-0.0325
-0.025
-0.0195
-0.0085
-0.0035
-0.013
-0.0165
-0.0065
-0.0005
0.001
0.006
0.0055
0.0095
0.0145
0.0205
0.0315
0.0275
0.0275
0.025
0.0205
0.021
0.025
0.029
0.02
0.0235
0.0325
0.0375
0.045
0.0405
0.0365
0.043
0.046
0.0355
0.0215
0.018
0.021
0.0265
0.026
0.0185
0.0105
0.0095
0.014
0.0095
0.013
0.013
0.008
0.001
-0.0115
-0.013
-0.015
-0.0255
-0.038
-0.0475
-0.0485
-0.054
-0.0645
-0.068
-0.0755
-0.072
-0.071
-0.085
-0.091
-0.094
-0.099
-0.105
-0.115
-0.1035
-0.099
-0.112
-0.1145
-0.131
-0.1355
-0.132
-0.1435
-0.1525
-0.167
-0.168
-0.1625
-0.173
-0.1795
-0.184
-0.187
-0.19
-0.197
-0.21
-0.2165
-0.2085
-0.2055
-0.212
-0.214
-0.2145
-0.216
-0.2155
-0.212
-0.2085
-0.222
-0.2235
-0.224
-0.2315
-0.2285
-0.2315
-0.2265
-0.2215
-0.2365
-0.2425
-0.242
-0.2335
-0.2205
-0.236
-0.248
-0.246
-0.235
-0.2325
-0.241
-0.239
-0.2385
-0.2335
-0.229
-0.231
-0.2295
-0.2275
-0.233
-0.2345
-0.226
-0.236
-0.2465
-0.2395
-0.235
-0.234
-0.2365
-0.234
-0.238
-0.238
-0.245
-0.2535
-0.2465
-0.2595
-0.259
-0.2465
-0.246
-0.2435
-0.2525
-0.2495
-0.2415
-0.247
-0.2505
-0.254
-0.2515
-0.246
-0.2505
-0.253
-0.2445
-0.2475
-0.2455
-0.244
-0.252
-0.2585
-0.2715
-0.2715
-0.2615
-0.2545
-0.2465
-0.2415
-0.2395
-0.246
-0.25
-0.248
-0.248
-0.2445
-0.241
-0.2355
-0.2355
-0.25
-0.257
-0.2575
-0.2575
-0.254
-0.2485
-0.2305
-0.2275
-0.2365
-0.239
-0.247
-0.25
-0.261
-0.2695
-0.262
-0.257
-0.2505
-0.239
-0.2305
-0.227
-0.224
-0.22
-0.226
-0.236
-0.24
-0.2375
-0.238
-0.247
-0.2435
-0.241
-0.2415
-0.2405
-0.2445
-0.243
-0.2445
-0.2405
-0.2395
-0.2435
-0.2375
-0.2405
-0.248
-0.247
-0.24
-0.2415
-0.2425
-0.2235
-0.2275
-0.2385
-0.236
-0.2405
-0.2395
-0.239
-0.235
-0.235
-0.242
-0.238
-0.237
-0.241
-0.244
-0.2425
-0.236
-0.237
-0.24
-0.2375
-0.2345
-0.2315
-0.235
-0.244
-0.2385
-0.2355
-0.2415
-0.2435
-0.243
-0.24
-0.238
-0.2385
-0.247
-0.245
-0.2385
-0.244
-0.2425
-0.2435
-0.254
-0.25
-0.2415
-0.246
-0.245
-0.2465
-0.251
-0.238
-0.235
-0.24
-0.2465
-0.255
-0.249
-0.256
-0.257
-0.248
-0.251
-0.2485
-0.245
-0.2455
-0.2515
-0.257
-0.2515
-0.244
-0.2465
-0.2425
-0.238
-0.2485
-0.2565
-0.2575
-0.2615
-0.262
-0.2545
-0.245
-0.2375
-0.2395
-0.2445
-0.2475
-0.2465
-0.249
-0.2575
-0.2545
-0.2535
-0.253
-0.251
-0.2565
-0.2535
-0.2515
-0.2605
-0.2655
-0.249
-0.2405
-0.2425
-0.245
-0.2495
-0.2435
-0.2445
-0.2495
-0.257
-0.2635
-0.262
-0.2555
-0.2515
-0.245
-0.2405
-0.2465
-0.254
-0.2475
-0.237
-0.237
-0.231
-0.228
-0.2395
-0.254
-0.25
-0.25
-0.253
-0.2485
-0.254
-0.258
-0.265
-0.257
-0.244
-0.246
-0.248
-0.2545
-0.2555
-0.2505
-0.255
-0.2545
-0.2565
-0.2625
-0.2565
-0.2515
-0.252
-0.2625
-0.261
-0.2475
-0.2535
-0.254
-0.2485
-0.245
-0.2475
-0.253
-0.2395
-0.2365
-0.245
-0.2365
-0.227
-0.227
-0.2285
-0.224
-0.2215
-0.219
-0.213
-0.2145
-0.212
-0.201
-0.1945
-0.202
-0.205
-0.195
-0.1935
-0.192
-0.196
-0.199
-0.199
-0.194
-0.183
-0.1875
-0.1825
-0.172
-0.1805
-0.1865
-0.179
-0.178
-0.1715
-0.158
-0.156
-0.161
-0.163
-0.166
-0.1755
-0.1765
-0.1745
-0.176
-0.165
-0.1625
-0.171
-0.1665
-0.1685
-0.1755
-0.1675
-0.1535
-0.154
-0.1575
-0.1595
-0.162
-0.1675
-0.1665
-0.1685
-0.1705
-0.167
-0.1685
-0.1795
-0.1935
-0.1995
-0.2125
-0.204
-0.197
-0.1915
-0.1875
-0.198
-0.188
-0.1805
-0.178
-0.19
-0.1955
-0.181
-0.185
-0.193
-0.1895
-0.192
-0.194
-0.2
-0.208
-0.2195
-0.235
-0.227
-0.22
-0.216
-0.223
-0.227
-0.216
-0.2175
-0.216
-0.2195
-0.233
-0.241
-0.2385
-0.2455
-0.251
-0.254
-0.2545
-0.2405
-0.245
-0.247
-0.253
-0.2615
-0.2595
-0.271
-0.271
-0.263
-0.265
-0.27
-0.2685
-0.2675
-0.265
-0.2625
-0.254
-0.2515
-0.2695
-0.274
-0.271
-0.2775
-0.278
-0.2695
-0.264
-0.2655
-0.2635
-0.2595
-0.2595
-0.265
-0.2655
-0.2555
-0.2595
-0.263
-0.2645
-0.2665
-0.2735
-0.2825
-0.266
-0.2555
-0.262
-0.2715
-0.277
-0.273
-0.2725
-0.27
-0.272
-0.2765
-0.275
-0.2745
-0.2705
-0.278
-0.2875
-0.289
-0.29
-0.2765
-0.2655
-0.268
-0.273
-0.2825
-0.2795
-0.275
-0.269
-0.264
-0.2725
-0.2775
-0.276
-0.271
-0.265
-0.268
-0.268
-0.27
-0.281
-0.283
-0.2845
-0.2845
-0.2885
-0.3035
-0.316
-0.326
-0.331
-0.343
-0.352
-0.3655
-0.3755
-0.3735
-0.3725
-0.3605
-0.3625
-0.3665
-0.3555
-0.345
-0.333
-0.3055
-0.262
-0.2285
-0.189
-0.149
-0.1135
-0.059
-0.005
0.037
0.0885
0.1475
0.201
0.249
0.2905
0.344
0.381
0.403
0.437
0.4495
0.459
0.472
0.4605
0.4505
0.4375
0.416
0.41
0.406
0.394
0.3625
0.3105
0.2715
0.231
0.165
0.0965
0.021
-0.037
-0.096
-0.171
-0.2085
-0.235
-0.245
-0.252
-0.2825
-0.29
-0.289
-0.2885
-0.2915
-0.2865
-0.262
-0.265
-0.273
-0.272
-0.2665
-0.2585
-0.2625
-0.2655
-0.2655
-0.267
-0.263
-0.2645
-0.2635
-0.254
-0.252
-0.255
-0.2595
-0.268
-0.27
-0.263
-0.2585
-0.247
-0.243
-0.2575
-0.2655
-0.2675
-0.27
-0.268
-0.261
-0.2585
-0.2605
-0.259
-0.2625
-0.2665
-0.2655
-0.2625
-0.2635
-0.267
-0.264
-0.2525
-0.251
-0.2605
-0.256
-0.2535
-0.255
-0.2545
-0.2595
-0.2555
-0.249
-0.254
-0.2525
-0.2525
-0.265
-0.2715
-0.2705
-0.2645
-0.264
-0.2645
-0.251
-0.2475
-0.257
-0.25
-0.241
-0.246
-0.2475
-0.247
-0.2385
-0.2425
-0.246
-0.235
-0.238
-0.246
-0.2495
-0.2465
-0.247
-0.2375
-0.2255
-0.2225
-0.221
-0.226
-0.224
-0.231
-0.232
-0.2365
-0.246
-0.2385
-0.244
-0.2455
-0.2365
-0.238
-0.241
-0.233
-0.2285
-0.223
-0.2205
-0.233
-0.238
-0.239
-0.234
-0.232
-0.231
-0.2165
-0.2125
-0.2225
-0.2255
-0.2285
-0.2345
-0.2345
-0.2275
-0.2205
-0.2155
-0.2125
-0.216
-0.209
-0.2015
-0.194
-0.199
-0.213
-0.2155
-0.2185
-0.2145
-0.2075
-0.2055
-0.2095
-0.215
-0.208
-0.204
-0.209
-0.203
-0.1955
-0.192
-0.197
-0.208
-0.2115
-0.2075
-0.1955
-0.1905
-0.192
-0.198
-0.2015
-0.1935
-0.1895
-0.189
-0.181
-0.1775
-0.183
-0.185
-0.1775
-0.1655
-0.158
-0.1505
-0.137
-0.1365
-0.151
-0.1545
-0.149
-0.1565
-0.1625
-0.1545
-0.1525
-0.1535
-0.15
-0.141
-0.133
-0.135
-0.1255
-0.1185
-0.133
-0.132
-0.1255
-0.126
-0.121
-0.106
-0.1005
-0.1065
-0.104
-0.1035
-0.0895
-0.069
-0.0775
-0.086
-0.076
-0.0795
-0.084
-0.092
-0.0995
-0.088
-0.0765
-0.061
-0.053
-0.0525
-0.0465
-0.043
-0.0425
-0.0405
-0.031
-0.014
-0.0175
-0.0235
-0.02
-0.016
-0.0065
-0.007
-0.0025
0.001
-0.0045
-0.0055
-0.004
0.002
0.007
0.0065
0.0025
0.012
0.0165
0.0015
0.0015
0.0055
0.008
0.0195
0.0275
0.0295
0.0275
0.023
0.0285
0.035
0.028
0.025
0.031
0.029
0.027
0.029
0.0225
0.0155
0.019
0.015
0.0045
0.002
-0.0005
-0.0025
-0.009
-0.0105
-0.006
-0.0055
-0.0055
-0.0015
0.002
-0.013
-0.0255
-0.034
-0.039
-0.0425
-0.055
-0.0615
-0.068
-0.0635
-0.0575
-0.0715
-0.0875
-0.0985
-0.1115
-0.113
-0.124
-0.1345
-0.1235
-0.1215
-0.112
-0.121
-0.1425
-0.148
-0.153
-0.151
-0.1555
-0.159
-0.162
-0.165
-0.173
-0.175
-0.175
-0.189
-0.1955
-0.2
-0.203
-0.2015
-0.1915
-0.1695
-0.1675
-0.1865
-0.1925
-0.1905
-0.1995
-0.2075
-0.2115
-0.21
-0.2185
-0.229
-0.228
-0.233
-0.242
-0.245
-0.221
-0.211
-0.2245
-0.228
-0.2275
-0.2225
-0.22
-0.221
-0.2225
-0.2205
-0.2165
-0.2205
-0.225
-0.223
-0.2195
-0.216
-0.2255
-0.2385
-0.2415
-0.24
-0.234
-0.2475
-0.2525
-0.2435
-0.2405
-0.234
-0.24
-0.2405
-0.247
-0.257
-0.2495
-0.2435
-0.244
-0.2325
-0.22
-0.2295
-0.2415
-0.2385
-0.237
-0.2375
-0.2245
-0.22
-0.23
-0.234
-0.234
-0.237
-0.2385
-0.2355
-0.2365
-0.245
-0.246
-0.243
-0.246
-0.236
-0.2285
-0.228
-0.225
-0.2285
-0.23
-0.238
-0.2485
-0.244
-0.2385
-0.237
-0.2435
-0.2465
-0.2425
-0.243
-0.2405
-0.237
-0.2355
-0.249
-0.253
-0.242
-0.244
-0.2475
-0.2545
-0.2525
-0.241
-0.2405
-0.244
-0.237
-0.234
-0.2395
-0.2435
-0.2465
-0.2435
-0.244
-0.2485
-0.234
-0.223
-0.226
-0.2315
-0.235
-0.2255
-0.22
-0.2255
-0.222
-0.2205
-0.226
-0.23
-0.2325
-0.2375
-0.2345
-0.223
-0.2265
-0.2325
-0.239
-0.2445
-0.239
-0.24
-0.2325
-0.2205
-0.224
-0.225
-0.2255
-0.238
-0.234
-0.2215
-0.229
-0.227
-0.2305
-0.2445
-0.2415
-0.2335
-0.227
-0.22
-0.224
-0.2305
-0.222
-0.2125
-0.2215
-0.2365
-0.2375
-0.2365
-0.2305
-0.2275
-0.235
-0.235
-0.2325
-0.2345
-0.236
-0.2385
-0.241
-0.233
-0.224
-0.2265
-0.2345
-0.2365
-0.233
-0.2345
-0.2365
-0.236
-0.2375
-0.239
-0.237
-0.24
-0.244
-0.2385
-0.2375
-0.24
-0.244
-0.2435
-0.235
-0.233
-0.236
-0.2405
-0.2445
-0.245
-0.251
-0.247
-0.243
-0.251
-0.2525
-0.2545
-0.2435
-0.2435
-0.2415
-0.226
-0.226
-0.2265
-0.2345
-0.235
-0.226
-0.2255
-0.234
-0.2385
-0.2285
-0.2315
-0.238
-0.2415
-0.2435
-0.235
-0.232
-0.235
-0.2255
-0.2285
-0.245
-0.247
-0.243
-0.237
-0.2375
-0.2415
-0.239
-0.237
-0.235
-0.2375
-0.2435
-0.251
-0.2555
-0.253
-0.2485
-0.241
-0.25
-0.2435
-0.2265
-0.229
-0.2265
-0.226
-0.225
-0.226
-0.231
-0.2295
-0.232
-0.2355
-0.2315
-0.226
-0.2165
-0.214
-0.21
-0.2005
-0.2005
-0.2025
-0.201
-0.204
-0.206
-0.2025
-0.207
-0.198
-0.1895
-0.1955
-0.195
-0.198
-0.196
-0.1925
-0.196
-0.187
-0.18
-0.18
-0.1695
-0.165
-0.179
-0.183
-0.17
-0.165
-0.1735
-0.185
-0.1855
-0.187
-0.1875
-0.187
-0.188
-0.1925
-0.2015
-0.198
-0.1985
-0.2
-0.194
-0.186
-0.1755
-0.172
-0.1735
-0.175
-0.1755
-0.1725
-0.181
-0.1925
-0.189
-0.188
-0.1895
-0.187
-0.1815
-0.176
-0.1755
-0.1785
-0.1725
-0.174
-0.1855
-0.1765
-0.1655
-0.1645
-0.168
-0.166
-0.1615
-0.173
-0.1835
-0.19
-0.193
-0.1925
-0.19
-0.1915
-0.1965
-0.192
-0.1975
-0.1905
-0.1825
-0.195
-0.2
-0.2065
-0.209
-0.199
-0.1935
-0.206
-0.21
-0.203
-0.2115
-0.2205
-0.227
-0.2315
-0.2315
-0.2375
-0.243
-0.2455
-0.2465
-0.2445
-0.245
-0.2445
-0.2445
-0.2415
-0.2425
-0.248
-0.249
-0.254
-0.2555
-0.253
-0.255
-0.2595
-0.2605
-0.2535
-0.2555
-0.258
-0.2525
-0.255
-0.258
-0.2435
-0.238
-0.246
-0.2465
-0.246
-0.2435
-0.2485
-0.2625
-0.2685
-0.26
-0.2605
-0.265
-0.2655
-0.266
-0.259
-0.2555
-0.2545
-0.2525
-0.2505
-0.2595
-0.2615
-0.252
-0.2535
-0.2545
-0.2555
-0.261
-0.2595
-0.259
-0.2565
-0.259
-0.262
-0.255
-0.254
-0.253
-0.2515
-0.2545
-0.2535
-0.254
-0.2635
-0.2725
-0.269
-0.26
-0.2635
-0.275
-0.2825
-0.2805
-0.272
-0.2795
-0.298
-0.31
-0.33
-0.337
-0.34
-0.354
-0.339
-0.3345
-0.3465
-0.344
-0.3395
-0.33
-0.317
-0.308
-0.3015
-0.2725
-0.223
-0.1855
-0.1425
-0.09
-0.0485
0.005
0.05
0.0915
0.1415
0.182
0.2335
0.283
0.328
0.3605
0.3835
0.413
0.4435
0.46
0.4615
0.47
0.4655
0.4505
0.4325
0.4255
0.426
0.4205
0.405
0.347
0.2845
0.2485
0.1955
0.1275
0.0725
0.012
-0.0535
-0.1155
-0.1645
-0.194
-0.2125
-0.2295
-0.248
-0.2535
-0.254
-0.246
-0.2395
-0.2495
-0.24
-0.2375
-0.2505
-0.2505
-0.248
-0.2405
-0.2345
-0.2355
-0.2425
-0.242
-0.2435
-0.248
-0.235
-0.2245
-0.2295
-0.2345
-0.239
-0.244
-0.2445
-0.2435
-0.238
-0.2345
-0.234
-0.231
-0.235
-0.2475
-0.249
-0.25
-0.251
-0.248
-0.2515
-0.2515
-0.2555
-0.2525
-0.237
-0.2385
-0.2455
-0.253
-0.258
-0.255
-0.2515
-0.2335
-0.2275
-0.2315
-0.2275
-0.2295
-0.2265
-0.23
-0.232
-0.2285
-0.239
-0.2415
-0.237
-0.2375
-0.24
-0.2455
-0.245
-0.244
-0.242
-0.2365
-0.2355
-0.239
-0.2415
-0.236
-0.236
-0.2335
-0.227
-0.2265
-0.228
-0.233
-0.24
-0.2415
-0.2345
-0.2325
-0.226
-0.216
-0.223
-0.226
-0.2185
-0.2085
-0.2105
-0.2205
-0.2195
-0.223
-0.229
-0.2295
-0.2265
-0.216
-0.2155
-0.2255
-0.2275
-0.2255
-0.219
-0.2175
-0.214
-0.209
-0.213
-0.2135
-0.209
-0.21
-0.215
-0.2165
-0.224
-0.224
-0.214
-0.215
-0.228
-0.227
-0.2175
-0.207
-0.199
-0.2025
-0.195
-0.1945
-0.203
-0.2035
-0.2035
-0.2
-0.192
-0.1945
-0.202
-0.205
-0.196
-0.186
-0.191
-0.1925
-0.1915
-0.195
-0.203
-0.209
-0.2045
-0.199
-0.1925
-0.1865
-0.177
-0.171
-0.1635
-0.1585
-0.168
-0.173
-0.181
-0.174
-0.1655
-0.163
-0.1555
-0.1585
-0.155
-0.1515
-0.1515
-0.1495
-0.1485
-0.1435
-0.1385
-0.1455
-0.1425
-0.133
-0.1395
-0.142
-0.135
-0.129
-0.1345
-0.138
-0.135
-0.1385
-0.137
-0.1295
-0.1245
-0.12
-0.11
-0.112
-0.112
-0.096
-0.0965
-0.1
-0.0925
-0.0865
-0.087
-0.0895
-0.084
-0.0755
-0.0745
-0.0755
-0.071
-0.067
-0.061
-0.055
-0.0545
-0.0555
-0.0565
-0.0525
-0.0425
-0.047
-0.0475
-0.035
-0.025
-0.011
-0.002
-0.004
-0.001
0.0035
-0.001
-0.009
-0.0055
-0.003
-0.002
0.01
0.0135
0.0085
0.0075
0.015
0.024
0.0285
0.029
0.0265
0.027
0.0275
0.023
0.02
0.028
0.0405
0.0335
0.027
0.0295
0.029
0.0355
0.0395
0.0485
0.049
0.04
0.041
0.038
0.0325
0.0285
0.0265
0.027
0.0235
0.028
0.024
0.026
0.0275
0.0135
0.0065
0.003
-0.0035
-0.015
-0.02
-0.0245
-0.027
-0.03
-0.034
-0.0345
-0.0365
-0.038
-0.0505
-0.058
-0.0565
-0.0555
-0.061
-0.0685
-0.068
-0.083
-0.095
-0.1055
-0.1135
-0.107
-0.115
-0.118
-0.1215
-0.128
-0.132
-0.14
-0.14
-0.149
-0.1605
-0.1655
-0.166
-0.1625
-0.165
-0.168
-0.1725
-0.1765
-0.176
-0.18
-0.182
-0.179
-0.1865
-0.1935
-0.194
-0.2
-0.203
-0.201
-0.2075
-0.208
-0.204
-0.204
-0.195
-0.1925
-0.201
-0.203
-0.2025
-0.204
-0.2035
-0.207
-0.208
-0.214
-0.217
-0.212
-0.2125
-0.2085
-0.218
-0.225
-0.2205
-0.2245
-0.2225
-0.221
-0.2265
-0.2265
-0.22
-0.2085
-0.2055
-0.208
-0.2145
-0.2175
-0.2135
-0.215
-0.2215
-0.227
-0.2265
-0.231
-0.236
-0.2345
-0.233
-0.2295
-0.2225
-0.2195
-0.2195
-0.2265
-0.233
-0.2375
-0.2375
-0.2385
-0.245
-0.2415
-0.24
-0.2335
-0.2225
-0.2165
-0.211
-0.2025
-0.2055
-0.212
-0.22
-0.224
-0.2195
-0.222
-0.225
-0.2305
-0.2325
-0.234
-0.238
-0.235
-0.2385
-0.2425
-0.2445
-0.249
-0.246
-0.2375
-0.2255
-0.2145
-0.2085
-0.212
-0.221
-0.2315
-0.236
-0.2245
-0.219
-0.217
-0.216
-0.223
-0.2265
-0.227
-0.2235
-0.22
-0.2145
-0.2165
-0.22
-0.2215
-0.224
-0.22
-0.2205
-0.2185
-0.2185
-0.219
-0.2165
-0.217
-0.2165
-0.2215
-0.23
-0.2245
-0.223
-0.23
-0.2225
-0.2205
-0.2225
-0.2255
-0.2385
-0.2375
-0.228
-0.2235
-0.2255
-0.2225
-0.2135
-0.2145
-0.225
-0.2255
-0.229
-0.2325
-0.227
-0.2265
-0.2225
-0.225
-0.216
-0.207
-0.2065
-0.2115
-0.216
-0.2085
-0.2095
-0.217
-0.2175
-0.2105
-0.215
-0.212
-0.2075
-0.215
-0.2145
-0.215
-0.22
-0.226
-0.2275
-0.2275
-0.2245
-0.22
-0.2215
-0.2215
-0.2205
-0.2185
-0.2195
-0.2225
-0.226
-0.2265
-0.223
-0.2255
-0.221
-0.2225
-0.23
-0.2335
-0.234
-0.2265
-0.2255
-0.222
-0.2185
-0.2235
-0.2225
-0.2235
-0.229
-0.225
-0.2215
-0.2265
-0.228
-0.2235
-0.2285
-0.2355
-0.229
-0.2195
-0.2195
-0.221
-0.2245
-0.224
-0.2185
-0.2215
-0.2125
-0.2125
-0.223
-0.2255
-0.233
-0.2355
-0.2345
-0.2255
-0.2145
-0.218
-0.2245
-0.233
-0.241
-0.24
-0.237
-0.2365
-0.237
-0.2365
-0.2365
-0.2355
-0.2335
-0.2335
-0.2385
-0.238
-0.2305
-0.233
-0.2355
-0.229
-0.233
-0.2335
-0.225
-0.221
-0.2285
-0.241
-0.2455
-0.2375
-0.2165
-0.2055
-0.206
-0.211
-0.216
-0.221
-0.2165
-0.2075
-0.2135
-0.2245
-0.2285
-0.222
-0.2235
-0.2295
-0.223
-0.209
-0.206
-0.2115
-0.207
-0.1975
-0.192
-0.1905
-0.182
-0.181
-0.183
-0.184
-0.188
-0.183
-0.181
-0.176
-0.168
-0.1645
-0.1615
-0.1605
-0.157
-0.1555
-0.1555
-0.159
-0.164
-0.1645
-0.1605
-0.159
-0.1615
-0.1665
-0.1665
-0.1635
-0.17
-0.1805
-0.188
-0.19
-0.179
-0.1685
-0.167
-0.175
-0.177
-0.174
-0.1755
-0.1645
-0.159
-0.162
-0.1685
-0.175
-0.1745
-0.1765
-0.1825
-0.1845
-0.183
-0.1885
-0.186
-0.173
-0.1675
-0.1625
-0.1585
-0.1595
-0.1545
-0.1545
-0.1645
-0.164
-0.165
-0.1765
-0.1745
-0.1655
-0.169
-0.1735
-0.1725
-0.1735
-0.1795
-0.1775
-0.173
-0.17
-0.168
-0.1695
-0.17
-0.1755
-0.181
-0.1865
-0.191
-0.1925
-0.1915
-0.193
-0.1965
-0.1955
-0.2045
-0.2125
-0.2145
-0.2175
-0.2205
-0.2205
-0.224
-0.2335
-0.234
-0.23
-0.2315
-0.244
-0.25
-0.25
-0.2505
-0.2465
-0.2425
-0.236
-0.2365
-0.241
-0.242
-0.2435
-0.2465
-0.249
-0.2515
-0.252
-0.2475
-0.2425
-0.2445
-0.2485
-0.247
-0.248
-0.247
-0.238
-0.233
-0.237
-0.2435
-0.2455
-0.2495
-0.2485
-0.246
-0.2455
-0.2345
-0.2355
-0.2415
-0.2455
-0.2505
-0.2475
-0.244
-0.243
-0.2415
-0.242
-0.2425
-0.243
-0.2505
-0.2555
-0.2565
-0.2645
-0.2645
-0.255
-0.2565
-0.257
-0.252
-0.25
-0.253
-0.2515
-0.2445
-0.251
-0.265
-0.2715
-0.274
-0.2785
-0.27
-0.266
-0.2845
-0.297
-0.2975
-0.306
-0.3215
-0.3275
-0.329
-0.3395
-0.3465
-0.3395
-0.333
-0.3335
-0.3405
-0.3365
-0.318
-0.2975
-0.276
-0.2545
-0.2235
-0.192
-0.154
-0.098
-0.048
-0.0005
0.045
0.083
0.1285
0.1785
0.2275
0.2755
0.3295
0.3805
0.411
0.434
0.4625
0.4805
0.491
0.5
0.4975
0.4985
0.4935
0.486
0.4875
0.476
0.455
0.4105
0.3505
0.305
0.2585
0.1965
0.1355
0.07
-0.001
-0.0645
-0.124
-0.165
-0.1915
-0.2045
-0.2145
-0.2345
-0.2365
-0.2355
-0.244
-0.246
-0.2435
-0.245
-0.2445
-0.2375
-0.236
-0.234
-0.231
-0.23
-0.231
-0.2325
-0.234
-0.2325
-0.2255
-0.229
-0.2275
-0.226
-0.235
-0.239
-0.2405
-0.2385
-0.237
-0.24
-0.241
-0.237
-0.234
-0.2335
-0.237
-0.2375
-0.2335
-0.2355
-0.237
-0.239
-0.243
-0.241
-0.2345
-0.2305
-0.2325
-0.2355
-0.245
-0.252
-0.247
-0.2425
-0.2315
-0.226
-0.2355
-0.2395
-0.2345
-0.234
-0.2365
-0.229
-0.2225
-0.229
-0.234
-0.2385
-0.2425
-0.241
-0.233
-0.227
-0.237
-0.245
-0.251
-0.2535
-0.2505
-0.2365
-0.211
-0.2125
-0.22
-0.2265
-0.231
-0.23
-0.2305
-0.225
-0.224
-0.2255
-0.225
-0.227
-0.2325
-0.2405
-0.245
-0.232
-0.2185
-0.2185
-0.214
-0.2085
-0.2135
-0.214
-0.211
-0.2115
-0.2145
-0.216
-0.2205
-0.2225
-0.222
-0.2275
-0.226
-0.2215
-0.212
-0.2055
-0.2115
-0.21
-0.2035
-0.204
-0.204
-0.2065
-0.202
-0.199
-0.202
-0.2
-0.198
-0.203
-0.212
-0.213
-0.2075
-0.208
-0.214
-0.217
-0.213
-0.199
-0.189
-0.1915
-0.1945
-0.1945
-0.1965
-0.2015
-0.1965
-0.1915
-0.1955
-0.193
-0.188
-0.182
-0.1785
-0.178
-0.179
-0.184
-0.1815
-0.1755
-0.17
-0.173
-0.1785
-0.1785
-0.177
-0.173
-0.1745
-0.168
-0.16
-0.159
-0.1595
-0.1575
-0.1585
-0.159
-0.155
-0.151
-0.1525
-0.1645
-0.163
-0.1515
-0.146
-0.139
-0.137
-0.1355
-0.1345
-0.129
-0.117
-0.117
-0.124
-0.128
-0.126
-0.115
-0.102
-0.099
-0.1
-0.0965
-0.0985
-0.095
-0.0865
-0.0895
-0.0885
-0.0745
-0.0675
-0.0695
-0.072
-0.0745
-0.075
-0.071
-0.0625
-0.0535
-0.0475
-0.0405
-0.041
-0.038
-0.0325
-0.0345
-0.0185
-0.0065
-0.0115
-0.013
-0.005
-0.002
-0.0085
-0.0115
-0.0075
-0.0035
-0.003
0.001
0.006
0.003
0.002
0.015
0.0305
0.032
0.03
0.0365
0.036
0.0305
0.0275
0.027
0.0395
0.0485
0.047
0.0415
0.04
0.0425
0.046
0.0485
0.0475
0.052
0.057
0.0485
0.042
0.043
0.0395
0.04
0.036
0.0335
0.032
0.0375
0.0475
0.0365
0.027
0.0255
0.022
0.0145
0.0085
0.007
0.009
0.006
0.0015
0.002
-0.004
-0.0095
-0.0145
-0.0215
-0.0345
-0.0405
-0.0405
-0.0455
-0.0485
-0.0565
-0.06
-0.064
-0.069
-0.074
-0.0915
-0.0985
-0.1035
-0.11
-0.113
-0.117
-0.1155
-0.116
-0.1155
-0.1265
-0.143
-0.1465
-0.1465
-0.154
-0.1565
-0.1465
-0.148
-0.1525
-0.156
-0.162
-0.166
-0.166
-0.1665
-0.173
-0.188
-0.2
-0.201
-0.1995
-0.1935
-0.1905
-0.1945
-0.2025
-0.2
-0.1915
-0.195
-0.201
-0.206
-0.207
-0.202
-0.2055
-0.201
-0.1945
-0.2105
-0.2125
-0.2075
-0.209
-0.21
-0.216
-0.218
-0.216
-0.216
-0.211
-0.2065
-0.2125
-0.2115
-0.2105
-0.2115
-0.212
-0.2115
-0.207
-0.2125
-0.211
-0.2065
-0.1975
-0.188
-0.202
-0.2125
-0.215
-0.216
-0.2185
-0.219
-0.213
-0.2185
-0.223
-0.217
-0.2135
-0.2155
-0.2185
-0.22
-0.226
-0.228
-0.2225
-0.2175
-0.2085
-0.211
-0.217
-0.2205
-0.228
-0.2275
-0.2265
-0.2255
-0.2245
-0.218
-0.2125
-0.222
-0.224
-0.217
-0.2145
-0.2115
-0.2155
-0.22
-0.2205
-0.223
-0.2295
-0.234
-0.2305
-0.227
-0.2235
-0.2225
-0.2185
-0.2095
-0.207
-0.209
-0.212
-0.218
-0.2185
-0.2225
-0.229
-0.2265
-0.2235
-0.226
-0.2175
-0.2055
-0.2095
-0.2145
-0.218
-0.225
-0.2225
-0.2145
-0.2075
-0.204
-0.213
-0.217
-0.2125
-0.2165
-0.2195
-0.221
-0.221
-0.2235
-0.229
-0.2345
-0.243
-0.2415
-0.2305
-0.216
-0.199
-0.1975
-0.2035
-0.203
-0.2055
-0.213
-0.2155
-0.2145
-0.2145
-0.208
-0.205
-0.2155
-0.226
-0.2245
-0.219
-0.2205
-0.22
-0.213
-0.2165
-0.2095
-0.1995
-0.2115
-0.2195
-0.22
-0.22
-0.229
-0.24
-0.228
-0.21
-0.2005
-0.198
-0.204
-0.203
-0.205
-0.211
-0.216
-0.2185
-0.219
-0.221
-0.221
-0.221
-0.2185
-0.215
-0.214
-0.2185
-0.2205
-0.222
-0.226
-0.23
-0.2275
-0.221
-0.225
-0.229
-0.226
-0.2245
-0.223
-0.219
-0.221
-0.223
-0.224
-0.2245
-0.221
-0.2225
-0.225
-0.229
-0.2315
-0.233
-0.23
-0.2205
-0.2175
-0.211
-0.208
-0.209
-0.213
-0.2225
-0.2235
-0.2235
-0.225
-0.2245
-0.226
-0.222
-0.2225
-0.2225
-0.2265
-0.229
-0.2265
-0.2355
-0.237
-0.244
-0.24
-0.23
-0.24
-0.232
-0.224
-0.225
-0.228
-0.2285
-0.2265
-0.2255
-0.2175
-0.213
-0.2125
-0.218
-0.2165
-0.2115
-0.218
-0.2225
-0.2215
-0.224
-0.222
-0.2145
-0.2125
-0.2135
-0.215
-0.215
-0.216
-0.2145
-0.2035
-0.2005
-0.204
-0.197
-0.185
-0.181
-0.1785
-0.175
-0.1755
-0.176
-0.182
-0.181
-0.1745
-0.175
-0.1755
-0.175
-0.165
-0.1595
-0.1605
-0.156
-0.154
-0.1545
-0.156
-0.1585
-0.159
-0.159
-0.1665
-0.175
-0.173
-0.171
-0.1755
-0.1725
-0.1735
-0.182
-0.174
-0.162
-0.164
-0.17
-0.171
-0.1675
-0.167
-0.162
-0.152
-0.16
-0.1645
-0.1675
-0.175
-0.1775
-0.1775
-0.167
-0.159
-0.1575
-0.157
-0.151
-0.15
-0.154
-0.145
-0.139
-0.144
-0.1485
-0.151
-0.155
-0.1615
-0.1585
-0.161
-0.174
-0.173
-0.173
-0.176
-0.178
-0.178
-0.174
-0.1745
-0.1765
-0.178
-0.181
-0.183
-0.1775
-0.178
-0.181
-0.18
-0.182
-0.1825
-0.1875
-0.188
-0.189
-0.205
-0.2255
-0.234
-0.235
-0.238
-0.2355
-0.228
-0.229
-0.2295
-0.2315
-0.2405
-0.246
-0.245
-0.2465
-0.25
-0.242
-0.233
-0.232
-0.233
-0.237
-0.2395
-0.242
-0.242
-0.2415
-0.244
-0.2485
-0.246
-0.2405
-0.2475
-0.2515
-0.2455
-0.2385
-0.233
-0.2375
-0.244
-0.246
-0.249
-0.2465
-0.243
-0.2425
-0.247
-0.254
-0.2545
-0.253
-0.249
-0.2535
-0.254
-0.2525
-0.2575
-0.254
-0.249
-0.246
-0.243
-0.2385
-0.2335
-0.231
-0.2345
-0.2445
-0.2465
-0.2495
-0.2535
-0.2525
-0.2515
-0.2485
-0.246
-0.248
-0.2545
-0.251
-0.255
-0.264
-0.2625
-0.2715
-0.279
-0.2925
-0.3045
-0.302
-0.3145
-0.318
-0.3215
-0.3365
-0.3425
-0.351
-0.346
-0.339
-0.3345
-0.332
-0.339
-0.332
-0.3235
-0.3135
-0.3015
-0.277
-0.228
-0.186
-0.15
-0.1
-0.0525
-0.002
0.054
0.104
0.163
0.215
0.267
0.322
0.3745
0.433
0.466
0.495
0.5295
0.5455
0.556
0.564
0.567
0.578
0.577
0.5605
0.5455
0.537
0.523
0.4785
0.414
0.362
0.311
0.2305
0.1575
0.0965
0.0235
-0.046
-0.1035
-0.1345
-0.159
-0.186
-0.2015
-0.218
-0.2285
-0.2295
-0.234
-0.2365
-0.228
-0.218
-0.2135
-0.2115
-0.221
-0.223
-0.2185
-0.221
-0.22
-0.2185
-0.217
-0.2155
-0.221
-0.2265
-0.2215
-0.2275
-0.2335
-0.23
-0.2285
-0.226
-0.2235
-0.224
-0.2295
-0.2335
-0.2335
-0.2345
-0.237
-0.234
-0.235
-0.2405
-0.238
-0.2365
-0.2415
-0.2375
-0.2375
-0.239
-0.238
-0.244
-0.242
-0.239
-0.2395
-0.2375
-0.234
-0.234
-0.233
-0.2315
-0.233
-0.238
-0.244
-0.244
-0.2445
-0.242
-0.2445
-0.255
-0.2545
-0.243
-0.234
-0.2255
-0.222
-0.2175
-0.2195
-0.227
-0.225
-0.2245
-0.2235
-0.229
-0.2345
-0.23
-0.229
-0.2235
-0.2165
-0.216
-0.215
-0.2205
-0.23
-0.2335
-0.2335
-0.232
-0.2235
-0.217
-0.22
-0.2225
-0.22
-0.216
-0.216
-0.217
-0.219
-0.221
-0.2195
-0.215
-0.2135
-0.2125
-0.208
-0.204
-0.206
-0.215
-0.211
-0.2015
-0.2055
-0.2105
-0.208
-0.2105
-0.209
-0.203
-0.2055
-0.202
-0.1995
-0.2005
-0.197
-0.195
-0.195
-0.194
-0.192
-0.1935
-0.198
-0.1985
-0.1935
-0.19
-0.1925
-0.1905
-0.1855
-0.1925
-0.1975
-0.1875
-0.1805
-0.186
-0.186
-0.1785
-0.175
-0.1775
-0.181
-0.172
-0.1685
-0.1745
-0.172
-0.1725
-0.1695
-0.168
-0.169
-0.167
-0.167
-0.165
-0.162
-0.1575
-0.1535
-0.1545
-0.1505
-0.149
-0.156
-0.1515
-0.146
-0.1415
-0.1365
-0.1375
-0.1375
-0.1365
-0.134
-0.1335
-0.131
-0.1335
-0.1335
-0.1255
-0.121
-0.1205
-0.118
-0.102
-0.0945
-0.0955
-0.092
-0.0865
-0.0835
-0.084
-0.0805
-0.081
-0.074
-0.0655
-0.071
-0.073
-0.0695
-0.062
-0.061
-0.0595
-0.0515
-0.049
-0.0465
-0.041
-0.0335
-0.0255
-0.022
-0.018
-0.011
-0.0025
-0.0025
-0.003
0.003
0.003
0.0035
-0.001
-0.007
-0.008
-0.004
0.0025
0.0155
0.028
0.0335
0.042
0.0315
0.0195
0.021
0.02
0.0305
0.042
0.0525
0.0605
0.0575
0.051
0.047
0.0535
0.053
0.055
0.0625
0.063
0.0685
0.07
0.0645
0.0595
0.0575
0.055
0.0575
0.052
0.042
0.0455
0.053
0.058
0.0505
0.0405
0.0445
0.042
0.0335
0.0285
0.0285
0.03
0.0215
0.0115
0.01
0.0095
0.0085
0.0055
-0.0055
-0.0085
-0.012
-0.024
-0.03
-0.0335
-0.0415
-0.0405
-0.0395
-0.0445
-0.0505
-0.0595
-0.0705
-0.0785
-0.0825
-0.0865
-0.0895
-0.099
-0.1015
-0.11
-0.1215
-0.1245
-0.132
-0.1215
-0.1105
-0.1185
-0.1225
-0.1245
-0.1305
-0.1405
-0.1495
-0.156
-0.16
-0.1655
-0.1715
-0.1735
-0.1825
-0.19
-0.1845
-0.1765
-0.185
-0.187
-0.176
-0.179
-0.1865
-0.1915
-0.192
-0.197
-0.197
-0.194
-0.206
-0.213
-0.2125
-0.214
-0.2195
-0.217
-0.199
-0.194
-0.2065
-0.208
-0.2035
-0.2055
-0.199
-0.1885
-0.1885
-0.1975
-0.202
-0.206
-0.21
-0.2135
-0.217
-0.2135
-0.211
-0.211
-0.2065
-0.2035
-0.207
-0.211
-0.2195
-0.2225
-0.219
-0.224
-0.2255
-0.226
-0.2195
-0.2125
-0.211
-0.2115
-0.2145
-0.2075
-0.2085
-0.2155
-0.218
-0.221
-0.2245
-0.227
-0.226
-0.2235
-0.2155
-0.21
-0.206
-0.205
-0.2135
-0.2165
-0.205
-0.204
-0.218
-0.2205
-0.2235
-0.2195
-0.209
-0.208
-0.2135
-0.22
-0.224
-0.2265
-0.2255
-0.217
-0.208
-0.211
-0.22
-0.227
-0.2295
-0.2265
-0.2175
-0.209
-0.2065
-0.21
-0.207
-0.2065
-0.216
-0.211
-0.217
-0.2205
-0.2155
-0.219
-0.213
-0.208
-0.207
-0.2095
-0.215
-0.217
-0.2155
-0.2165
-0.217
-0.211
-0.209
-0.213
-0.2145
-0.2155
-0.218
-0.2195
-0.224
-0.2265
-0.2215
-0.221
-0.224
-0.2285
-0.2215
-0.2065
-0.2115
-0.2145
-0.2125
-0.217
-0.217
-0.2145
-0.2135
-0.212
-0.206
-0.209
-0.212
-0.211
-0.2215
-0.222
-0.219
-0.22
-0.205
-0.195
-0.1965
-0.201
-0.2115
-0.2135
-0.2125
-0.2225
-0.223
-0.2195
-0.211
-0.199
-0.2095
-0.2215
-0.221
-0.2205
-0.2275
-0.23
-0.223
-0.216
-0.2145
-0.2145
-0.216
-0.2205
-0.221
-0.217
-0.2195
-0.22
-0.216
-0.216
-0.217
-0.2155
-0.215
-0.2175
-0.218
-0.2205
-0.221
-0.218
-0.2165
-0.2195
-0.222
-0.2165
-0.218
-0.2265
-0.2285
-0.232
-0.234
-0.231
-0.2345
-0.2345
-0.233
-0.2335
-0.228
-0.222
-0.213
-0.2095
-0.214
-0.2175
-0.2235
-0.2265
-0.223
-0.219
-0.214
-0.216
-0.2235
-0.2265
-0.223
-0.2195
-0.226
-0.225
-0.2215
-0.2295
-0.2365
-0.2355
-0.228
-0.2295
-0.235
-0.2315
-0.226
-0.2195
-0.2145
-0.215
-0.219
-0.2255
-0.2305
-0.225
-0.215
-0.2175
-0.227
-0.2305
-0.2245
-0.2135
-0.204
-0.205
-0.214
-0.2125
-0.207
-0.2045
-0.208
-0.2065
-0.2055
-0.2105
-0.2015
-0.193
-0.189
-0.187
-0.18
-0.177
-0.177
-0.1685
-0.165
-0.17
-0.174
-0.1705
-0.1725
-0.173
-0.169
-0.163
-0.1575
-0.1545
-0.148
-0.149
-0.1555
-0.1575
-0.162
-0.165
-0.155
-0.151
-0.1485
-0.15
-0.159
-0.1625
-0.1735
-0.174
-0.1675
-0.1645
-0.161
-0.1625
-0.1565
-0.155
-0.1555
-0.1495
-0.151
-0.1555
-0.159
-0.1625
-0.1645
-0.1705
-0.1745
-0.171
-0.171
-0.169
-0.1655
-0.163
-0.151
-0.161
-0.1605
-0.1535
-0.155
-0.145
-0.152
-0.153
-0.151
-0.1455
-0.141
-0.1545
-0.1625
-0.1595
-0.158
-0.164
-0.1675
-0.168
-0.172
-0.171
-0.162
-0.1615
-0.1685
-0.173
-0.177
-0.181
-0.1815
-0.1795
-0.1775
-0.186
-0.2045
-0.2175
-0.219
-0.2215
-0.229
-0.229
-0.215
-0.2095
-0.2225
-0.2225
-0.223
-0.23
-0.231
-0.2335
-0.231
-0.2335
-0.237
-0.2395
-0.245
-0.2465
-0.248
-0.2495
-0.2465
-0.2495
-0.2525
-0.2465
-0.2325
-0.227
-0.232
-0.24
-0.248
-0.245
-0.2455
-0.2495
-0.2495
-0.2495
-0.2475
-0.245
-0.239
-0.237
-0.246
-0.249
-0.2505
-0.2505
-0.245
-0.2455
-0.2485
-0.2465
-0.246
-0.2485
-0.25
-0.251
-0.246
-0.241
-0.24
-0.2435
-0.2405
-0.2395
-0.2425
-0.246
-0.2495
-0.25
-0.251
-0.253
-0.247
-0.242
-0.2425
-0.241
-0.2425
-0.2415
-0.239
-0.2395
-0.251
-0.258
-0.263
-0.273
-0.2755
-0.283
-0.293
-0.3055
-0.3215
-0.3365
-0.3435
-0.3475
-0.3525
-0.3445
-0.332
-0.333
-0.3415
-0.342
-0.3375
-0.326
-0.3095
-0.294
-0.2555
-0.2095
-0.176
-0.126
-0.063
-0.004
0.052
0.1015
0.159
0.218
0.27
0.3325
0.3815
0.4255
0.466
0.497
0.5325
0.564
0.5815
0.584
0.592
0.599
0.5945
0.583
0.5715
0.5515
0.531
0.5
0.449
0.3935
0.337
0.2715
0.191
0.119
0.0445
-0.0335
-0.0995
-0.1505
-0.176
-0.1915
-0.2
-0.211
-0.227
-0.2315
-0.2375
-0.2495
-0.2555
-0.25
-0.245
-0.24
-0.2355
-0.233
-0.227
-0.23
-0.2335
-0.233
-0.2235
-0.2095
-0.217
-0.23
-0.2355
-0.234
-0.224
-0.2205
-0.2185
-0.217
-0.219
-0.2175
-0.222
-0.225
-0.223
-0.2255
-0.225
-0.2235
-0.2295
-0.234
-0.232
-0.231
-0.23
-0.231
-0.231
-0.227
-0.2275
-0.232
-0.2315
-0.2265
-0.2285
-0.2335
-0.2355
-0.2345
-0.237
-0.2425
-0.2455
-0.2425
-0.2385
-0.2365
-0.2305
-0.227
-0.222
-0.217
-0.2185
-0.2225
-0.2305
-0.238
-0.235
-0.2225
-0.2195
-0.2265
-0.2275
-0.2285
-0.24
-0.251
-0.2485
-0.235
-0.2335
-0.2355
-0.219
-0.2135
-0.2175
-0.223
-0.2245
-0.222
-0.2225
-0.222
-0.2255
-0.2175
-0.2115
-0.2085
-0.205
-0.207
-0.207
-0.2115
-0.2155
-0.2165
-0.2195
-0.2205
-0.213
-0.214
-0.2175
-0.2125
-0.216
-0.218
-0.214
-0.206
-0.2015
-0.2015
-0.1995
-0.193
-0.1885
-0.1895
-0.1965
-0.208
-0.211
-0.213
-0.211
-0.2065
-0.2055
-0.1995
-0.1945
-0.1935
-0.189
-0.1895
-0.1915
-0.1905
-0.1905
-0.192
-0.187
-0.178
-0.1765
-0.176
-0.176
-0.1705
-0.1685
-0.165
-0.158
-0.1545
-0.157
-0.1625
-0.1615
-0.1605
-0.153
-0.1495
-0.1495
-0.155
-0.1605
-0.1635
-0.174
-0.178
-0.1755
-0.1685
-0.1675
-0.1655
-0.155
-0.147
-0.139
-0.133
-0.1305
-0.136
-0.139
-0.134
-0.121
-0.1195
-0.127
-0.12
-0.116
-0.1125
-0.1105
-0.1085
-0.1105
-0.1135
-0.107
-0.105
-0.1035
-0.099
-0.0925
-0.0895
-0.0905
-0.086
-0.0765
-0.082
-0.0825
-0.078
-0.0765
-0.053
-0.0335
-0.0325
-0.038
-0.0445
-0.043
-0.0405
-0.0475
-0.042
-0.032
-0.0235
-0.008
-0.01
-0.013
-0.0105
-0.008
-0.001
0.0065
0.016
0.02
0.024
0.02
0.017
0.0215
0.0215
0.0315
0.0395
0.038
0.0375
0.04
0.043
0.0435
0.05
0.0555
0.051
0.0565
0.0675
0.071
0.072
0.0705
0.079
0.083
0.0765
0.075
0.0725
0.068
0.067
0.0625
0.053
0.058
0.072
0.0715
0.0695
0.076
0.081
0.076
0.0665
0.062
0.063
0.068
0.0615
0.052
0.0465
0.0455
0.041
0.0355
0.0385
0.0265
0.017
0.019
0.0145
0.0015
0.002
0.0025
-0.006
-0.0135
-0.016
-0.0135
-0.0205
-0.0305
-0.043
-0.0495
-0.052
-0.058
-0.0635
-0.064
-0.076
-0.087
-0.0905
-0.0955
-0.0995
-0.113
-0.1175
-0.1185
-0.1245
-0.132
-0.1395
-0.137
-0.141
-0.1475
-0.15
-0.14
-0.1425
-0.157
-0.1665
-0.17
-0.173
-0.187
-0.1935
-0.1935
-0.1835
-0.1705
-0.1755
-0.174
-0.1665
-0.1755
-0.1805
-0.182
-0.191
-0.1985
-0.195
-0.195
-0.201
-0.2025
-0.2035
-0.2005
-0.1995
-0.197
-0.193
-0.192
-0.1915
-0.199
-0.2075
-0.2055
-0.1995
-0.2015
-0.207
-0.2025
-0.201
-0.2045
-0.214
-0.2175
-0.2145
-0.2145
-0.2045
-0.1985
-0.2005
-0.2045
-0.208
-0.211
-0.216
-0.2195
-0.2225
-0.216
-0.203
-0.198
-0.205
-0.208
-0.2035
-0.21
-0.2185
-0.216
-0.2105
-0.2085
-0.213
-0.213
-0.2075
-0.2075
-0.21
-0.211
-0.213
-0.2145
-0.2165
-0.2145
-0.2125
-0.22
-0.2225
-0.221
-0.2275
-0.227
-0.224
-0.227
-0.224
-0.219
-0.218
-0.2165
-0.2075
-0.196
-0.201
-0.2135
-0.2195
-0.2135
-0.2045
-0.2055
-0.205
-0.207
-0.21
-0.2135
-0.221
-0.2205
-0.2195
-0.2165
-0.215
-0.215
-0.2075
-0.2105
-0.2145
-0.2085
-0.2085
-0.2155
-0.2185
-0.22
-0.225
-0.2315
-0.235
-0.242
-0.252
-0.2415
-0.2235
-0.1935
-0.179
-0.188
-0.1945
-0.2075
-0.211
-0.213
-0.207
-0.1985
-0.199
-0.2005
-0.2005
-0.198
-0.201
-0.201
-0.206
-0.21
-0.2095
-0.215
-0.2175
-0.219
-0.2175
-0.215
-0.2125
-0.2105
-0.2145
-0.2175
-0.2135
-0.2065
-0.2065
-0.2115
-0.2085
-0.205
-0.202
-0.203
-0.211
-0.2115
-0.213
-0.218
-0.2185
-0.2095
-0.211
-0.2245
-0.218
-0.2145
-0.2225
-0.226
-0.2255
-0.223
-0.226
-0.2255
-0.225
-0.2265
-0.225
-0.2275
-0.226
-0.2295
-0.2255
-0.216
-0.2215
-0.229
-0.2205
-0.2135
-0.2165
-0.2095
-0.2125
-0.218
-0.221
-0.229
-0.226
-0.2185
-0.2215
-0.2215
-0.215
-0.2175
-0.221
-0.2125
-0.21
-0.2225
-0.2325
-0.2335
-0.2285
-0.227
-0.231
-0.2155
-0.204
-0.214
-0.2135
-0.213
-0.215
-0.2155
-0.212
-0.21
-0.2135
-0.222
-0.23
-0.2245
-0.2225
-0.2225
-0.2205
-0.2205
-0.219
-0.2165
-0.2055
-0.2055
-0.2095
-0.206
-0.2055
-0.1995
-0.2025
-0.197
-0.188
-0.198
-0.2005
-0.1975
-0.1895
-0.175
-0.1715
-0.1685
-0.162
-0.163
-0.1665
-0.164
-0.1695
-0.1705
-0.166
-0.1695
-0.1645
-0.1615
-0.1645
-0.163
-0.1655
-0.1735
-0.174
-0.169
-0.173
-0.1695
-0.162
-0.162
-0.1575
-0.1525
-0.1505
-0.1555
-0.1665
-0.172
-0.169
-0.1645
-0.1585
-0.1535
-0.1525
-0.1555
-0.155
-0.1455
-0.1475
-0.1545
-0.1535
-0.1535
-0.156
-0.162
-0.159
-0.1625
-0.167
-0.161
-0.164
-0.1645
-0.1485
-0.1365
-0.1435
-0.151
-0.1495
-0.148
-0.139
-0.1285
-0.1375
-0.148
-0.1545
-0.157
-0.1535
-0.158
-0.1635
-0.171
-0.175
-0.1735
-0.1745
-0.1755
-0.175
-0.1685
-0.1595
-0.1615
-0.171
-0.182
-0.1915
-0.1915
-0.19
-0.186
-0.1845
-0.1905
-0.1985
-0.2085
-0.209
-0.21
-0.216
-0.221
-0.2365
-0.25
-0.2525
-0.243
-0.233
-0.234
-0.2265
-0.223
-0.2325
-0.2365
-0.241
-0.2395
-0.236
-0.2355
-0.2285
-0.2305
-0.2405
-0.2425
-0.2485
-0.247
-0.2365
-0.236
-0.2395
-0.242
-0.238
-0.241
-0.249
-0.2435
-0.243
-0.2445
-0.24
-0.2455
-0.249
-0.2465
-0.2465
-0.242
-0.2415
-0.2415
-0.242
-0.248
-0.252
-0.25
-0.25
-0.2545
-0.2505
-0.2475
-0.2475
-0.2475
-0.251
-0.2525
-0.2495
-0.2395
-0.2385
-0.247
-0.2545
-0.2585
-0.258
-0.259
-0.2505
-0.2425
-0.2465
-0.245
-0.249
-0.2615
-0.2665
-0.2675
-0.2655
-0.256
-0.2635
-0.2765
-0.2785
-0.294
-0.3145
-0.335
-0.3505
-0.355
-0.3665
-0.3635
-0.3545
-0.3535
-0.352
-0.3565
-0.3525
-0.3395
-0.322
-0.3005
-0.266
-0.222
-0.18
-0.1295
-0.086
-0.0385
0.027
0.0835
0.1435
0.202
0.2535
0.3165
0.3635
0.418
0.471
0.4985
0.5365
0.5675
0.577
0.5825
0.5915
0.5905
0.584
0.5685
0.542
0.533
0.5315
0.5055
0.4455
0.395
0.3445
0.273
0.198
0.1245
0.055
-0.022
-0.0945
-0.1425
-0.1735
-0.1995
-0.222
-0.2355
-0.2395
-0.233
-0.2315
-0.234
-0.235
-0.236
-0.232
-0.2335
-0.2375
-0.241
-0.237
-0.225
-0.2235
-0.2305
-0.244
-0.2585
-0.2565
-0.245
-0.2375
-0.233
-0.2215
-0.212
-0.227
-0.2395
-0.225
-0.2205
-0.2205
-0.214
-0.214
-0.2195
-0.219
-0.215
-0.2195
-0.2265
-0.233
-0.236
-0.234
-0.2385
-0.2415
-0.2305
-0.2265
-0.233
-0.2395
-0.2395
-0.24
-0.2495
-0.241
-0.231
-0.233
-0.2305
-0.232
-0.2335
-0.234
-0.2385
-0.234
-0.231
-0.2305
-0.2235
-0.218
-0.213
-0.216
-0.2155
-0.2185
-0.223
-0.2175
-0.228
-0.239
-0.2355
-0.227
-0.2295
-0.2355
-0.2285
-0.2305
-0.2255
-0.2125
-0.209
-0.2185
-0.2285
-0.229
-0.232
-0.2255
-0.227
-0.2275
-0.2255
-0.226
-0.212
-0.2095
-0.208
-0.1935
-0.196
-0.2045
-0.2055
-0.206
-0.204
-0.205
-0.2045
-0.2
-0.195
-0.202
-0.2065
-0.2055
-0.2215
-0.2235
-0.1985
-0.1865
-0.1905
-0.1975
-0.207
-0.2055
-0.204
-0.204
-0.1985
-0.196
-0.1935
-0.1915
-0.191
-0.189
-0.1905
-0.188
-0.1745
-0.1705
-0.1755
-0.1805
-0.1845
-0.19
-0.2
-0.1975
-0.1835
-0.18
-0.18
-0.1795
-0.1865
-0.183
-0.174
-0.1785
-0.1815
-0.171
-0.1655
-0.171
-0.18
-0.183
-0.1765
-0.1575
-0.149
-0.1585
-0.147
-0.137
-0.137
-0.136
-0.1385
-0.1355
-0.137
-0.134
-0.14
-0.1375
-0.1275
-0.13
-0.1245
-0.119
-0.1195
-0.121
-0.1255
-0.127
-0.124
-0.122
-0.1105
-0.099
-0.095
-0.094
-0.091
-0.085
-0.077
-0.0775
-0.078
-0.081
-0.0845
-0.0795
-0.0765
-0.071
-0.0655
-0.0565
-0.053
-0.047
-0.05
-0.05
-0.038
-0.037
-0.0285
-0.026
-0.026
-0.019
-0.012
-0.01
-0.013
-0.0065
0.003
0.0115
0.0135
0.0065
0.0035
0.011
0.015
0.0145
0.014
0.016
0.0155
0.0155
0.0255
0.04
0.056
0.056
0.0475
0.0475
0.0495
0.051
0.053
0.058
0.0625
0.07
0.08
0.075
0.071
0.0725
0.066
0.064
0.0635
0.068
0.0725
0.076
0.075
0.064
0.0705
0.074
0.0715
0.0725
0.066
0.0535
0.051
0.0535
0.0415
0.034
0.046
0.051
0.049
0.0605
0.0585
0.041
0.0285
0.024
0.0215
0.0215
0.019
0.0135
0.008
-0.0015
-0.0105
-0.018
-0.0225
-0.026
-0.035
-0.0385
-0.039
-0.0545
-0.057
-0.0605
-0.0815
-0.0845
-0.079
-0.0785
-0.087
-0.0855
-0.089
-0.105
-0.1125
-0.12
-0.117
-0.125
-0.133
-0.131
-0.1375
-0.144
-0.1455
-0.1485
-0.156
-0.1635
-0.167
-0.167
-0.176
-0.173
-0.171
-0.1745
-0.1805
-0.19
-0.1845
-0.184
-0.1945
-0.2045
-0.208
-0.199
-0.194
-0.199
-0.1945
-0.192
-0.195
-0.1975
-0.197
-0.191
-0.1985
-0.2075
-0.21
-0.2105
-0.2075
-0.2035
-0.2005
-0.202
-0.198
-0.195
-0.195
-0.198
-0.207
-0.217
-0.212
-0.2025
-0.2115
-0.2115
-0.211
-0.216
-0.2095
-0.2095
-0.212
-0.2085
-0.21
-0.2165
-0.2205
-0.2185
-0.2125
-0.215
-0.2215
-0.229
-0.228
-0.2215
-0.2245
-0.219
-0.225
-0.2225
-0.2125
-0.22
-0.2215
-0.224
-0.211
-0.2085
-0.213
-0.206
-0.212
-0.2075
-0.2035
-0.2085
-0.203
-0.2025
-0.205
-0.2105
-0.211
-0.213
-0.22
-0.2245
-0.226
-0.223
-0.2295
-0.231
-0.2225
-0.2215
-0.225
-0.224
-0.2195
-0.2115
-0.211
-0.2175
-0.208
-0.203
-0.2105
-0.2155
-0.2285
-0.2255
-0.2135
-0.2065
-0.205
-0.2155
-0.206
-0.2025
-0.2165
-0.2135
-0.207
-0.203
-0.2005
-0.208
-0.2145
-0.2155
-0.212
-0.2145
-0.2115
-0.203
-0.204
-0.2125
-0.214
-0.2195
-0.224
-0.2175
-0.218
-0.2115
-0.201
-0.201
-0.21
-0.2085
-0.212
-0.2275
-0.233
-0.227
-0.218
-0.2105
-0.2045
-0.2095
-0.205
-0.21
-0.226
-0.228
-0.2305
-0.2265
-0.2135
-0.2045
-0.2025
-0.2055
-0.214
-0.211
-0.2065
-0.2165
-0.216
-0.2265
-0.2255
-0.216
-0.236
-0.2365
-0.2165
-0.2025
-0.206
-0.2125
-0.2225
-0.23
-0.217
-0.2035
-0.2055
-0.215
-0.2065
-0.209
-0.2155
-0.2185
-0.2205
-0.2115
-0.2145
-0.2235
-0.2295
-0.233
-0.2355
-0.226
-0.2195
-0.22
-0.2195
-0.217
-0.212
-0.2215
-0.2285
-0.218
-0.2155
-0.219
-0.2165
-0.214
-0.2155
-0.216
-0.213
-0.2175
-0.2225
-0.221
-0.2235
-0.223
-0.2235
-0.2295
-0.2315
-0.2385
-0.2425
-0.238
-0.227
-0.221
-0.2305
-0.2365
-0.226
-0.2195
-0.2305
-0.227
-0.2145
-0.2175
-0.221
-0.2165
-0.2095
-0.2095
-0.2115
-0.215
-0.2145
-0.208
-0.212
-0.21
-0.199
-0.2
-0.2075
-0.214
-0.213
-0.2015
-0.191
-0.1895
-0.1905
-0.182
-0.181
-0.1825
-0.169
-0.1725
-0.183
-0.1775
-0.1675
-0.162
-0.1655
-0.172
-0.1655
-0.156
-0.169
-0.176
-0.1665
-0.1665
-0.163
-0.163
-0.164
-0.169
-0.172
-0.168
-0.166
-0.159
-0.156
-0.144
-0.148
-0.159
-0.164
-0.161
-0.1485
-0.16
-0.164
-0.1585
-0.1645
-0.1745
-0.1755
-0.1625
-0.1605
-0.1575
-0.151
-0.155
-0.162
-0.1645
-0.164
-0.168
-0.1665
-0.1555
-0.1535
-0.149
-0.1425
-0.152
-0.153
-0.1475
-0.1535
-0.1565
-0.157
-0.158
-0.16
-0.1695
-0.1695
-0.1685
-0.1675
-0.1695
-0.176
-0.1755
-0.183
-0.176
-0.169
-0.1795
-0.187
-0.1915
-0.1955
-0.204
-0.205
-0.2085
-0.2145
-0.214
-0.2175
-0.216
-0.218
-0.2305
-0.23
-0.23
-0.2285
-0.223
-0.2275
-0.2275
-0.2225
-0.228
-0.239
-0.244
-0.2495
-0.2565
-0.2505
-0.246
-0.2475
-0.2445
-0.2405
-0.239
-0.243
-0.2425
-0.237
-0.231
-0.2325
-0.244
-0.2435
-0.2365
-0.2385
-0.242
-0.246
-0.25
-0.246
-0.2465
-0.248
-0.2395
-0.24
-0.2355
-0.238
-0.252
-0.2535
-0.257
-0.2555
-0.2365
-0.234
-0.2445
-0.252
-0.261
-0.2575
-0.2535
-0.2545
-0.246
-0.238
-0.2395
-0.234
-0.234
-0.245
-0.2515
-0.2645
-0.263
-0.257
-0.2605
-0.255
-0.2505
-0.2475
-0.2415
-0.242
-0.246
-0.2535
-0.259
-0.2545
-0.2585
-0.276
-0.2835
-0.299
-0.327
-0.3375
-0.344
-0.349
-0.3485
-0.3485
-0.345
-0.3495
-0.3565
-0.354
-0.3505
-0.346
-0.332
-0.3075
-0.2775
-0.2425
-0.2075
-0.168
-0.113
-0.0695
-0.0255
0.037
0.0915
0.137
0.1865
0.244
0.292
0.346
0.4025
0.4315
0.4605
0.4975
0.511
0.522
0.5395
0.5395
0.5395
0.53
0.5225
0.5165
0.5015
0.482
0.441
0.38
0.321
0.266
0.195
0.127
0.065
0.0
-0.073
-0.139
-0.1745
-0.202
-0.2315
-0.2505
-0.254
-0.2485
-0.2405
-0.2475
-0.2545
-0.244
-0.238
-0.2395
-0.234
-0.236
-0.2445
-0.2475
-0.246
-0.249
-0.24
-0.227
-0.242
-0.2495
-0.2415
-0.2275
-0.2155
-0.2225
-0.2315
-0.2365
-0.2415
-0.2365
-0.2305
-0.2315
-0.2325
-0.229
-0.227
-0.2345
-0.2295
-0.2245
-0.2355
-0.2365
-0.239
-0.239
-0.237
-0.245
-0.2375
-0.2395
-0.246
-0.2365
-0.2315
-0.233
-0.239
-0.245
-0.2475
-0.2385
-0.228
-0.232
-0.238
-0.237
-0.2325
-0.2345
-0.2365
-0.2345
-0.2315
-0.2235
-0.229
-0.2355
-0.2305
-0.23
-0.234
-0.2345
-0.2305
-0.2265
-0.221
-0.225
-0.2315
-0.2305
-0.227
-0.216
-0.214
-0.225
-0.225
-0.221
-0.2245
-0.2255
-0.2245
-0.2265
-0.2315
-0.229
-0.227
-0.2385
-0.2345
-0.2275
-0.226
-0.229
-0.221
-0.2025
-0.203
-0.2045
-0.2115
-0.2185
-0.2205
-0.2225
-0.219
-0.214
-0.208
-0.1945
-0.1935
-0.2045
-0.2035
-0.2055
-0.2075
-0.204
-0.199
-0.192
-0.191
-0.194
-0.195
-0.191
-0.187
-0.185
-0.1945
-0.201
-0.195
-0.1875
-0.1875
-0.1955
-0.194
-0.1875
-0.1925
-0.201
-0.204
-0.194
-0.1895
-0.1915
-0.186
-0.1825
-0.1855
-0.1915
-0.179
-0.1705
-0.167
-0.164
-0.173
-0.1785
-0.18
-0.169
-0.168
-0.175
-0.17
-0.1695
-0.167
-0.1635
-0.159
-0.148
-0.1475
-0.1465
-0.1475
-0.146
-0.1405
-0.1415
-0.1415
-0.144
-0.1425
-0.1395
-0.136
-0.1395
-0.1315
-0.12
-0.129
-0.135
-0.122
-0.107
-0.111
-0.1165
-0.1095
-0.1
-0.103
-0.1065
-0.1045
-0.1005
-0.0935
-0.0905
-0.081
-0.074
-0.068
-0.054
-0.054
-0.0545
-0.047
-0.0515
-0.0575
-0.0425
-0.0325
-0.033
-0.041
-0.0515
-0.0485
-0.043
-0.03
-0.0225
-0.018
-0.019
-0.0265
-0.011
-0.014
-0.0155
0.0055
0.014
0.022
0.019
0.019
0.0115
0.0195
0.0315
0.0195
0.0235
0.0245
0.025
0.0325
0.034
0.032
0.0295
0.0325
0.0405
0.039
0.0395
0.043
0.046
0.044
0.0455
0.0505
0.0475
0.0505
0.0545
0.0595
0.051
0.0355
0.037
0.0435
0.0445
0.0415
0.044
0.035
0.0305
0.032
0.0325
0.0355
0.027
0.026
0.023
0.02
0.016
0.009
0.0035
-0.008
-0.0135
-0.013
-0.011
-0.0175
-0.029
-0.037
-0.0435
-0.0455
-0.0455
-0.056
-0.0625
-0.049
-0.053
-0.0675
-0.0745
-0.079
-0.086
-0.0965
-0.0985
-0.11
-0.1175
-0.1105
-0.1225
-0.1375
-0.132
-0.1315
-0.1275
-0.136
-0.137
-0.1315
-0.155
-0.1665
-0.183
-0.1955
-0.1905
-0.18
-0.161
-0.1675
-0.1805
-0.181
-0.1895
-0.196
-0.1965
-0.1915
-0.188
-0.193
-0.194
-0.196
-0.205
-0.219
-0.215
-0.2075
-0.2095
-0.199
-0.1975
-0.2005
-0.2
-0.207
-0.202
-0.199
-0.2025
-0.2005
-0.2025
-0.202
-0.2115
-0.218
-0.2215
-0.2305
-0.2205
-0.2145
-0.214
-0.213
-0.2225
-0.2195
-0.215
-0.2175
-0.218
-0.222
-0.225
-0.217
-0.212
-0.2245
-0.2225
-0.2135
-0.219
-0.219
-0.217
-0.2185
-0.2165
-0.226
-0.2435
-0.2435
-0.224
-0.2125
-0.214
-0.2165
-0.2215
-0.214
-0.202
-0.203
-0.209
-0.215
-0.216
-0.2075
-0.2105
-0.2155
-0.2165
-0.216
-0.2205
-0.2285
-0.2215
-0.2215
-0.2195
-0.2085
-0.215
-0.2205
-0.222
-0.2225
-0.2175
-0.2165
-0.2165
-0.2225
-0.2195
-0.2125
-0.2155
-0.2135
-0.216
-0.217
-0.211
-0.2145
-0.219
-0.2265
-0.2365
-0.2295
-0.233
-0.2465
-0.235
-0.219
-0.2185
-0.223
-0.2275
-0.226
-0.223
-0.222
-0.202
-0.183
-0.188
-0.201
-0.2105
-0.21
-0.2095
-0.208
-0.208
-0.2065
-0.2085
-0.214
-0.21
-0.2135
-0.22
-0.2245
-0.2205
-0.2115
-0.2135
-0.216
-0.2135
-0.213
-0.2155
-0.2135
-0.212
-0.2095
-0.204
-0.211
-0.2205
-0.216
-0.2175
-0.2185
-0.215
-0.222
-0.226
-0.224
-0.2235
-0.213
-0.215
-0.2185
-0.2115
-0.2145
-0.219
-0.2165
-0.2185
-0.2255
-0.23
-0.235
-0.225
-0.2255
-0.214
-0.1935
-0.1955
-0.197
-0.209
-0.209
-0.2035
-0.2145
-0.2245
-0.227
-0.2145
-0.211
-0.2175
-0.215
-0.2195
-0.228
-0.226
-0.219
-0.219
-0.222
-0.2235
-0.2245
-0.2175
-0.222
-0.2295
-0.2275
-0.224
-0.224
-0.224
-0.217
-0.2145
-0.2185
-0.2195
-0.2195
-0.2235
-0.216
-0.2135
-0.2265
-0.232
-0.235
-0.241
-0.242
-0.2375
-0.241
-0.242
-0.2385
-0.234
-0.221
-0.214
-0.221
-0.2305
-0.2285
-0.2235
-0.2185
-0.217
-0.2175
-0.211
-0.212
-0.214
-0.2105
-0.205
-0.1925
-0.1945
-0.1965
-0.1765
-0.173
-0.1835
-0.179
-0.173
-0.172
-0.1705
-0.175
-0.1815
-0.1795
-0.1685
-0.1625
-0.161
-0.164
-0.175
-0.1715
-0.1695
-0.172
-0.1735
-0.1785
-0.174
-0.174
-0.1645
-0.164
-0.1775
-0.177
-0.17
-0.1645
-0.165
-0.1695
-0.1655
-0.162
-0.167
-0.1645
-0.159
-0.156
-0.1585
-0.167
-0.1775
-0.1695
-0.159
-0.1635
-0.1635
-0.164
-0.167
-0.1725
-0.183
-0.1825
-0.1805
-0.185
-0.176
-0.16
-0.1575
-0.16
-0.1635
-0.1635
-0.156
-0.149
-0.151
-0.158
-0.165
-0.1725
-0.172
-0.168
-0.163
-0.1705
-0.179
-0.1705
-0.1695
-0.171
-0.171
-0.1725
-0.17
-0.175
-0.181
-0.187
-0.189
-0.188
-0.193
-0.198
-0.2075
-0.216
-0.218
-0.218
-0.2305
-0.2445
-0.2395
-0.2275
-0.2225
-0.2285
-0.2375
-0.2305
-0.2215
-0.232
-0.2305
-0.2205
-0.2265
-0.234
-0.2455
-0.252
-0.2515
-0.254
-0.262
-0.2595
-0.254
-0.248
-0.2335
-0.2315
-0.2325
-0.2335
-0.226
-0.223
-0.2315
-0.2415
-0.2565
-0.253
-0.2425
-0.243
-0.24
-0.2355
-0.2365
-0.2435
-0.2475
-0.2445
-0.24
-0.241
-0.239
-0.2465
-0.2515
-0.246
-0.2495
-0.2465
-0.2415
-0.234
-0.239
-0.2475
-0.242
-0.2435
-0.248
-0.253
-0.246
-0.246
-0.252
-0.245
-0.243
-0.247
-0.2545
-0.2625
-0.257
-0.249
-0.2545
-0.256
-0.255
-0.2615
-0.2725
-0.2775
-0.273
-0.2725
-0.281
-0.2895
-0.3035
-0.3225
-0.3305
-0.3315
-0.3285
-0.325
-0.3365
-0.3415
-0.3315
-0.339
-0.341
-0.332
-0.3195
-0.298
-0.2715
-0.243
-0.22
-0.1915
-0.152
-0.099
-0.0265
0.042
0.091
0.141
0.1915
0.234
0.2715
0.315
0.3685
0.398
0.4245
0.4535
0.4645
0.477
0.486
0.4945
0.488
0.4695
0.462
0.451
0.4445
0.4315
0.402
0.35
0.2955
0.243
0.173
0.1175
0.0585
-0.0075
-0.087
-0.1575
-0.188
-0.2035
-0.218
-0.2445
-0.2555
-0.2495
-0.2515
-0.2505
-0.262
-0.2675
-0.255
-0.2545
-0.243
-0.2395
-0.241
-0.236
-0.233
-0.229
-0.2355
-0.2395
-0.24
-0.2485
-0.246
-0.2385
-0.239
-0.232
-0.243
-0.241
-0.2255
-0.228
-0.235
-0.2445
-0.246
-0.2425
-0.2385
-0.2415
-0.2365
-0.235
-0.237
-0.219
-0.2195
-0.2245
-0.231
-0.2405
-0.238
-0.245
-0.248
-0.248
-0.2465
-0.247
-0.2415
-0.233
-0.2295
-0.227
-0.2375
-0.233
-0.2265
-0.229
-0.222
-0.222
-0.2275
-0.232
-0.23
-0.2275
-0.2245
-0.2335
-0.239
-0.23
-0.236
-0.2385
-0.2295
-0.218
-0.215
-0.227
-0.23
-0.2285
-0.233
-0.228
-0.2235
-0.215
-0.2085
-0.2125
-0.214
-0.218
-0.2235
-0.2235
-0.2295
-0.2285
-0.227
-0.2225
-0.2095
-0.2135
-0.2175
-0.2135
-0.2095
-0.2035
-0.215
-0.2265
-0.2165
-0.2135
-0.211
-0.216
-0.2205
-0.2115
-0.2095
-0.2085
-0.212
-0.2185
-0.223
-0.2155
-0.205
-0.199
-0.1955
-0.2
-0.209
-0.208
-0.206
-0.2115
-0.212
-0.208
-0.194
-0.1895
-0.201
-0.2
-0.1985
-0.201
-0.195
-0.19
-0.189
-0.1865
-0.182
-0.1795
-0.1855
-0.189
-0.1885
-0.191
-0.201
-0.2035
-0.196
-0.1895
-0.18
-0.182
-0.1715
-0.161
-0.1595
-0.156
-0.1655
-0.1605
-0.1585
-0.165
-0.162
-0.1645
-0.163
-0.16
-0.163
-0.1595
-0.1555
-0.153
-0.1505
-0.151
-0.1505
-0.1475
-0.1385
-0.138
-0.1345
-0.1265
-0.1275
-0.123
-0.1195
-0.123
-0.1285
-0.1255
-0.122
-0.116
-0.1135
-0.1095
-0.1
-0.106
-0.1145
-0.118
-0.1155
-0.114
-0.111
-0.094
-0.0845
-0.076
-0.0635
-0.05
-0.051
-0.0685
-0.067
-0.0625
-0.06
-0.051
-0.0485
-0.045
-0.044
-0.0395
-0.033
-0.031
-0.033
-0.032
-0.03
-0.0255
-0.0155
-0.0115
-0.0065
-0.004
-0.004
-0.006
-0.002
0.0065
0.0025
0.0105
0.029
0.026
0.015
0.0115
0.0075
-0.0025
-0.0055
0.007
0.0175
0.026
0.0285
0.024
0.0265
0.031
0.0375
0.0335
0.023
0.029
0.05
0.057
0.045
0.0365
0.032
0.026
0.0145
0.0225
0.038
0.029
0.0195
0.0195
0.02
0.016
0.0145
0.009
0.0065
0.0055
-0.001
-0.0075
-0.012
-0.008
-0.0095
-0.023
-0.03
-0.0335
-0.036
-0.0295
-0.04
-0.0465
-0.041
-0.0475
-0.0565
-0.0725
-0.0755
-0.0815
-0.089
-0.099
-0.1175
-0.117
-0.12
-0.1185
-0.109
-0.1105
-0.1255
-0.1335
-0.1435
-0.151
-0.1415
-0.142
-0.1465
-0.1515
-0.144
-0.146
-0.161
-0.162
-0.164
-0.169
-0.1795
-0.1825
-0.1855
-0.191
-0.1935
-0.193
-0.1755
-0.1785
-0.1905
-0.193
-0.193
-0.188
-0.1905
-0.1945
-0.202
-0.202
-0.198
-0.2045
-0.219
-0.2205
-0.2075
-0.206
-0.207
-0.204
-0.2115
-0.217
-0.2115
-0.2045
-0.208
-0.2205
-0.224
-0.2215
-0.222
-0.223
-0.2215
-0.2085
-0.209
-0.216
-0.2145
-0.216
-0.216
-0.215
-0.213
-0.2135
-0.21
-0.2125
-0.216
-0.219
-0.223
-0.221
-0.228
-0.23
-0.223
-0.2285
-0.2315
-0.2285
-0.2295
-0.228
-0.228
-0.2205
-0.214
-0.226
-0.233
-0.22
-0.2095
-0.2145
-0.2185
-0.221
-0.2205
-0.2215
-0.228
-0.226
-0.223
-0.222
-0.2235
-0.218
-0.218
-0.221
-0.2155
-0.21
-0.209
-0.2135
-0.209
-0.2195
-0.227
-0.236
-0.2225
-0.202
-0.2135
-0.2065
-0.207
-0.2095
-0.2075
-0.2065
-0.2055
-0.2125
-0.2085
-0.208
-0.219
-0.222
-0.2185
-0.22
-0.2095
-0.2115
-0.223
-0.222
-0.228
-0.2315
-0.2365
-0.234
-0.2205
-0.219
-0.2135
-0.2115
-0.2185
-0.217
-0.213
-0.2165
-0.218
-0.222
-0.224
-0.215
-0.2155
-0.216
-0.213
-0.2105
-0.206
-0.2095
-0.2065
-0.2095
-0.213
-0.216
-0.2185
-0.2145
-0.218
-0.2135
-0.208
-0.206
-0.2105
-0.2165
-0.221
-0.226
-0.2175
-0.2145
-0.2225
-0.213
-0.204
-0.2105
-0.217
-0.2215
-0.2225
-0.2195
-0.2105
-0.215
-0.2205
-0.2225
-0.23
-0.228
-0.221
-0.2215
-0.215
-0.205
-0.215
-0.225
-0.2225
-0.2145
-0.215
-0.212
-0.2075
-0.204
-0.199
-0.2075
-0.2165
-0.2195
-0.2175
-0.215
-0.2195
-0.229
-0.23
-0.2265
-0.2275
-0.2215
-0.215
-0.215
-0.2165
-0.225
-0.227
-0.2275
-0.2345
-0.234
-0.24
-0.25
-0.242
-0.2305
-0.212
-0.1955
-0.1925
-0.1955
-0.2105
-0.2165
-0.222
-0.2225
-0.218
-0.2085
-0.201
-0.1995
-0.194
-0.194
-0.196
-0.2005
-0.194
-0.192
-0.192
-0.1875
-0.1815
-0.18
-0.1835
-0.1805
-0.1745
-0.1685
-0.166
-0.1685
-0.1705
-0.1645
-0.165
-0.1735
-0.1815
-0.178
-0.167
-0.165
-0.1685
-0.1725
-0.1615
-0.1535
-0.1595
-0.1575
-0.156
-0.1625
-0.1705
-0.165
-0.1615
-0.1705
-0.1705
-0.174
-0.175
-0.1765
-0.179
-0.1795
-0.187
-0.183
-0.175
-0.172
-0.1645
-0.159
-0.1575
-0.161
-0.158
-0.15
-0.149
-0.154
-0.162
-0.1705
-0.1715
-0.165
-0.1615
-0.158
-0.1565
-0.1615
-0.155
-0.1405
-0.148
-0.1545
-0.149
-0.147
-0.1605
-0.1705
-0.169
-0.1715
-0.1775
-0.181
-0.1825
-0.185
-0.1745
-0.174
-0.18
-0.179
-0.18
-0.181
-0.1755
-0.176
-0.187
-0.192
-0.199
-0.204
-0.2035
-0.2095
-0.212
-0.213
-0.2185
-0.228
-0.237
-0.241
-0.238
-0.223
-0.2175
-0.2215
-0.2235
-0.2295
-0.2315
-0.2325
-0.2325
-0.233
-0.238
-0.24
-0.239
-0.231
-0.2265
-0.2325
-0.234
-0.2325
-0.2365
-0.247
-0.256
-0.2555
-0.2585
-0.2495
-0.243
-0.2495
-0.2455
-0.2475
-0.2515
-0.253
-0.2565
-0.2585
-0.256
-0.2515
-0.2535
-0.2535
-0.2495
-0.238
-0.236
-0.237
-0.2325
-0.239
-0.2445
-0.248
-0.251
-0.249
-0.2435
-0.239
-0.232
-0.24
-0.248
-0.2395
-0.2375
-0.241
-0.2475
-0.2485
-0.242
-0.2325
-0.2385
-0.26
-0.2665
-0.2605
-0.2655
-0.2665
-0.2675
-0.2735
-0.2635
-0.26
-0.2725
-0.29
-0.3015
-0.3055
-0.3135
-0.3185
-0.3255
-0.3335
-0.334
-0.331
-0.3305
-0.3265
-0.317
-0.3165
-0.31
-0.2985
-0.2855
-0.254
-0.227
-0.19
-0.138
-0.098
-0.053
0.0035
0.0585
0.105
0.1485
0.2015
0.256
0.301
0.3505
0.3845
0.4135
0.4505
0.4665
0.477
0.491
0.5
0.5005
0.4795
0.4575
0.456
0.4495
0.44
0.41
0.3545
0.305
0.264
0.2105
0.133
0.0615
-0.001
-0.068
-0.132
-0.1625
-0.178
-0.1975
-0.219
-0.239
-0.244
-0.25
-0.2485
-0.2495
-0.2605
-0.2505
-0.229
-0.2165
-0.2145
-0.2215
-0.234
-0.236
-0.236
-0.245
-0.2425
-0.234
-0.231
-0.219
-0.201
-0.2105
-0.2225
-0.2265
-0.2365
-0.2325
-0.2275
-0.2325
-0.242
-0.245
-0.2445
-0.239
-0.23
-0.2265
-0.227
-0.23
-0.228
-0.234
-0.232
-0.225
-0.2275
-0.2275
-0.23
-0.2285
-0.2275
-0.229
-0.232
-0.238
-0.236
-0.2425
-0.241
-0.2335
-0.232
-0.233
-0.2385
-0.236
-0.2335
-0.2355
-0.239
-0.2435
-0.24
-0.2335
-0.235
-0.227
-0.216
-0.223
-0.231
-0.2385
-0.2415
-0.234
-0.2315
-0.2265
-0.227
-0.228
-0.2235
-0.2165
-0.22
-0.2305
-0.2235
-0.2205
-0.22
-0.2185
-0.2195
-0.2185
-0.2175
-0.2205
-0.217
-0.21
-0.212
-0.2155
-0.221
-0.223
-0.224
-0.2265
-0.2175
-0.203
-0.2015
-0.204
-0.196
-0.195
-0.2075
-0.214
-0.2155
-0.2135
-0.214
-0.218
-0.212
-0.2085
-0.2075
-0.204
-0.2085
-0.209
-0.2035
-0.194
-0.192
-0.1995
-0.1955
-0.1935
-0.189
-0.1875
-0.191
-0.19
-0.1885
-0.188
-0.2005
-0.203
-0.196
-0.203
-0.2045
-0.194
-0.181
-0.173
-0.1775
-0.183
-0.1795
-0.186
-0.186
-0.186
-0.184
-0.1715
-0.1745
-0.1685
-0.166
-0.1735
-0.1715
-0.1745
-0.18
-0.174
-0.167
-0.1645
-0.1485
-0.14
-0.1475
-0.148
-0.149
-0.1445
-0.1405
-0.147
-0.1445
-0.1425
-0.139
-0.139
-0.1455
-0.1365
-0.1385
-0.137
-0.132
-0.131
-0.119
-0.1115
-0.0995
-0.097
-0.0965
-0.093
-0.0975
-0.102
-0.1065
-0.1045
-0.106
-0.097
-0.0865
-0.0845
-0.08
-0.079
-0.0735
-0.07
-0.074
-0.0805
-0.075
-0.0625
-0.0595
-0.0525
-0.045
-0.046
-0.0485
-0.0465
-0.0355
-0.028
-0.017
-0.009
-0.01
-0.0055
-0.0025
-0.004
-0.0075
-0.0105
-0.004
0.0055
0.003
0.002
0.0045
0.0125
0.0305
0.0315
0.0255
0.031
0.03
0.02
0.02
0.023
0.025
0.0275
0.028
0.028
0.026
0.025
0.033
0.039
0.037
0.035
0.032
0.0335
0.0305
0.0315
0.038
0.04
0.034
0.0315
0.0305
0.015
0.012
0.013
0.0155
0.027
0.0245
0.018
0.025
0.0255
0.01
-0.001
-0.007
-0.0165
-0.0215
-0.0205
-0.02
-0.0275
-0.033
-0.036
-0.0435
-0.0505
-0.0615
-0.072
-0.079
-0.0865
-0.0845
-0.074
-0.078
-0.0875
-0.0925
-0.0995
-0.1105
-0.123
-0.1245
-0.1295
-0.137
-0.1355
-0.127
-0.1285
-0.143
-0.144
-0.1445
-0.1485
-0.1545
-0.1695
-0.167
-0.1575
-0.164
-0.1745
-0.1805
-0.1825
-0.1895
-0.189
-0.1855
-0.1885
-0.19
-0.19
-0.1835
-0.182
-0.1915
-0.192
-0.1905
-0.1895
-0.196
-0.2085
-0.2085
-0.2175
-0.223
-0.2155
-0.218
-0.225
-0.2175
-0.202
-0.196
-0.1975
-0.201
-0.2065
-0.2085
-0.2075
-0.2105
-0.218
-0.2175
-0.212
-0.2155
-0.22
-0.2175
-0.2105
-0.208
-0.2165
-0.219
-0.2135
-0.209
-0.21
-0.2165
-0.2225
-0.226
-0.223
-0.22
-0.219
-0.2165
-0.2175
-0.218
-0.2195
-0.2235
-0.2295
-0.2335
-0.229
-0.224
-0.221
-0.216
-0.219
-0.2255
-0.222
-0.222
-0.213
-0.2095
-0.218
-0.222
-0.226
-0.221
-0.2175
-0.219
-0.215
-0.2145
-0.2145
-0.213
-0.221
-0.2175
-0.213
-0.218
-0.22
-0.2215
-0.2205
-0.221
-0.2195
-0.214
-0.2145
-0.224
-0.229
-0.2235
-0.22
-0.219
-0.2205
-0.2205
-0.213
-0.212
-0.2065
-0.202
-0.206
-0.2065
-0.211
-0.2125
-0.2185
-0.218
-0.2095
-0.214
-0.218
-0.214
-0.2115
-0.218
-0.2305
-0.234
-0.2275
-0.223
-0.222
-0.223
-0.2145
-0.2125
-0.223
-0.23
-0.2285
-0.212
-0.2145
-0.2115
-0.2075
-0.222
-0.224
-0.224
-0.2095
-0.1905
-0.194
-0.203
-0.2105
-0.2175
-0.2155
-0.206
-0.2065
-0.2145
-0.215
-0.2135
-0.2165
-0.2155
-0.215
-0.2205
-0.217
-0.2155
-0.219
-0.2185
-0.2175
-0.2175
-0.2205
-0.222
-0.221
-0.2225
-0.2265
-0.2225
-0.224
-0.228
-0.2225
-0.215
-0.216
-0.2175
-0.212
-0.206
-0.2045
-0.211
-0.21
-0.216
-0.2225
-0.217
-0.211
-0.2165
-0.221
-0.214
-0.2155
-0.2205
-0.218
-0.2165
-0.2225
-0.2225
-0.2235
-0.2235
-0.2235
-0.2215
-0.2215
-0.221
-0.2165
-0.2265
-0.224
-0.216
-0.2195
-0.2215
-0.2225
-0.2215
-0.2245
-0.23
-0.227
-0.227
-0.228
-0.22
-0.219
-0.2175
-0.2165
-0.211
-0.201
-0.2
-0.199
-0.1955
-0.197
-0.201
-0.2045
-0.203
-0.193
-0.1865
-0.184
-0.188
-0.183
-0.17
-0.173
-0.1705
-0.1715
-0.1755
-0.171
-0.1755
-0.179
-0.1715
-0.1675
-0.1705
-0.1665
-0.1625
-0.1615
-0.1635
-0.161
-0.1565
-0.166
-0.1675
-0.163
-0.166
-0.169
-0.166
-0.1575
-0.1615
-0.1725
-0.1735
-0.174
-0.176
-0.1775
-0.1725
-0.16
-0.1565
-0.1555
-0.1595
-0.164
-0.16
-0.155
-0.146
-0.143
-0.148
-0.1545
-0.165
-0.172
-0.1765
-0.1745
-0.1675
-0.162
-0.16
-0.1575
-0.152
-0.1565
-0.16
-0.1545
-0.1535
-0.1555
-0.148
-0.141
-0.148
-0.154
-0.16
-0.1665
-0.1755
-0.1845
-0.1885
-0.19
-0.1845
-0.1705
-0.164
-0.1645
-0.1615
-0.1695
-0.176
-0.177
-0.1795
-0.1835
-0.1865
-0.1915
-0.19
-0.1875
-0.1945
-0.197
-0.2045
-0.216
-0.2225
-0.2275
-0.227
-0.226
-0.226
-0.2235
-0.2175
-0.221
-0.228
-0.2345
-0.239
-0.2365
-0.241
-0.2445
-0.239
-0.237
-0.2405
-0.244
-0.243
-0.2435
-0.2455
-0.2465
-0.2455
-0.242
-0.247
-0.2435
-0.2345
-0.234
-0.2395
-0.242
-0.2385
-0.236
-0.246
-0.253
-0.2475
-0.2425
-0.2385
-0.241
-0.2415
-0.2415
-0.241
-0.2385
-0.238
-0.238
-0.2445
-0.247
-0.2555
-0.2595
-0.2495
-0.2415
-0.2335
-0.2325
-0.2365
-0.2385
-0.2415
-0.2455
-0.2465
-0.248
-0.246
-0.244
-0.246
-0.247
-0.25
-0.2505
-0.2435
-0.2435
-0.2485
-0.256
-0.2595
-0.2585
-0.2585
-0.2715
-0.292
-0.3075
-0.3255
-0.3315
-0.333
-0.338
-0.347
-0.349
-0.341
-0.3365
-0.3365
-0.3385
-0.3345
-0.3265
-0.3115
-0.298
-0.2755
-0.24
-0.1995
-0.1545
-0.1065
-0.054
0.0035
0.0565
0.1045
0.1685
0.2175
0.2585
0.31
0.363
0.4125
0.4365
0.47
0.5065
0.522
0.537
0.545
0.5445
0.5425
0.5275
0.507
0.4865
0.475
0.468
0.436
0.386
0.341
0.298
0.236
0.1625
0.087
0.005
-0.0715
-0.129
-0.1595
-0.175
-0.184
-0.193
-0.2115
-0.212
-0.2115
-0.223
-0.23
-0.235
-0.2315
-0.2355
-0.2415
-0.2365
-0.229
-0.233
-0.231
-0.2135
-0.2145
-0.2145
-0.2135
-0.218
-0.215
-0.2165
-0.22
-0.227
-0.2345
-0.24
-0.233
-0.2195
-0.2165
-0.217
-0.22
-0.225
-0.2295
-0.2335
-0.24
-0.2365
-0.232
-0.2405
-0.245
-0.24
-0.229
-0.2325
-0.2285
-0.2205
-0.2225
-0.2205
-0.23
-0.2325
-0.2295
-0.226
-0.2215
-0.226
-0.2295
-0.2255
-0.2235
-0.226
-0.2295
-0.2335
-0.235
-0.2365
-0.237
-0.236
-0.2315
-0.228
-0.2345
-0.235
-0.229
-0.226
-0.223
-0.226
-0.231
-0.2345
-0.2335
-0.2285
-0.228
-0.226
-0.229
-0.236
-0.2345
-0.2285
-0.2295
-0.2255
-0.2055
-0.202
-0.213
-0.214
-0.2165
-0.221
-0.218
-0.2185
-0.2225
-0.2235
-0.224
-0.2175
-0.21
-0.2115
-0.2165
-0.2135
-0.2095
-0.2115
-0.2085
-0.2095
-0.2095
-0.21
-0.2085
-0.201
-0.203
-0.209
-0.216
-0.2185
-0.214
-0.212
-0.2085
-0.207
-0.198
-0.191
-0.1945
-0.1945
-0.19
-0.1855
-0.1855
-0.1845
-0.182
-0.1865
-0.193
-0.185
-0.1795
-0.1785
-0.174
-0.1765
-0.181
-0.1835
-0.187
-0.1835
-0.1815
-0.1795
-0.172
-0.1725
-0.1725
-0.1745
-0.176
-0.1735
-0.1735
-0.174
-0.17
-0.1645
-0.1625
-0.16
-0.1635
-0.174
-0.1785
-0.161
-0.146
-0.1475
-0.142
-0.1395
-0.142
-0.142
-0.1405
-0.1335
-0.1305
-0.13
-0.135
-0.137
-0.129
-0.1275
-0.1255
-0.1265
-0.122
-0.1155
-0.12
-0.126
-0.1205
-0.103
-0.0965
-0.0955
-0.097
-0.0975
-0.089
-0.0785
-0.075
-0.08
-0.08
-0.073
-0.0635
-0.0635
-0.066
-0.0595
-0.0565
-0.046
-0.0355
-0.0415
-0.04
-0.033
-0.03
-0.027
-0.03
-0.0245
-0.017
-0.02
-0.016
-0.01
-0.0155
-0.015
-0.006
-0.003
0.008
0.017
0.0095
0.011
0.014
0.015
0.016
0.0205
0.0285
0.0265
0.0225
0.0225
0.03
0.0395
0.0395
0.03
0.031
0.0325
0.042
0.062
0.064
0.0605
0.054
0.045
0.0475
0.0535
0.051
0.0545
0.06
0.0555
0.0485
0.0485
0.0445
0.036
0.037
0.0295
0.0285
0.033
0.0265
0.0245
0.021
0.021
0.0155
0.001
0.006
0.013
0.0035
-0.007
-0.018
-0.0175
-0.0245
-0.033
-0.0345
-0.049
-0.057
-0.0675
-0.0695
-0.065
-0.0625
-0.057
-0.0615
-0.07
-0.074
-0.078
-0.081
-0.0905
-0.1055
-0.11
-0.1155
-0.122
-0.126
-0.1215
-0.123
-0.139
-0.149
-0.151
-0.141
-0.141
-0.155
-0.1615
-0.1615
-0.167
-0.181
-0.1955
-0.1965
-0.1855
-0.1835
-0.1855
-0.189
-0.192
-0.1905
-0.1915
-0.193
-0.1975
-0.201
-0.195
-0.191
-0.1885
-0.189
-0.1975
-0.201
-0.207
-0.21
-0.2025
-0.199
-0.1995
-0.202
-0.2045
-0.2035
-0.203
-0.204
-0.203
-0.2045
-0.209
-0.212
-0.204
-0.1955
-0.2015
-0.204
-0.202
-0.2085
-0.208
-0.205
-0.2075
-0.206
-0.207
-0.211
-0.212
-0.2085
-0.209
-0.2105
-0.2075
-0.206
-0.212
-0.2155
-0.21
-0.2035
-0.2085
-0.2175
-0.212
-0.21
-0.215
-0.216
-0.2085
-0.208
-0.219
-0.2245
-0.228
-0.221
-0.2145
-0.2155
-0.2175
-0.217
-0.2085
-0.21
-0.205
-0.205
-0.213
-0.209
-0.2065
-0.2095
-0.2165
-0.217
-0.218
-0.2195
-0.2235
-0.2265
-0.2135
-0.2095
-0.213
-0.2125
-0.214
-0.2125
-0.211
-0.2125
-0.213
-0.214
-0.2145
-0.2105
-0.2065
-0.2085
-0.214
-0.212
-0.214
-0.219
-0.2215
-0.223
-0.2215
-0.2185
-0.211
-0.1955
-0.1895
-0.2025
-0.2125
-0.22
-0.2295
-0.2305
-0.2195
-0.2115
-0.213
-0.2195
-0.219
-0.216
-0.2195
-0.218
-0.214
-0.2085
-0.206
-0.2075
-0.207
-0.208
-0.2145
-0.212
-0.206
-0.2095
-0.21
-0.213
-0.2155
-0.2155
-0.216
-0.2115
-0.208
-0.2105
-0.2075
-0.205
-0.206
-0.2055
-0.207
-0.21
-0.2095
-0.209
-0.212
-0.2105
-0.2105
-0.212
-0.209
-0.21
-0.208
-0.211
-0.2145
-0.214
-0.214
-0.209
-0.213
-0.216
-0.214
-0.2135
-0.212
-0.216
-0.2165
-0.221
-0.23
-0.2245
-0.219
-0.2205
-0.221
-0.2215
-0.2145
-0.21
-0.207
-0.2055
-0.211
-0.2155
-0.214
-0.214
-0.218
-0.22
-0.22
-0.221
-0.2225
-0.2235
-0.2265
-0.2275
-0.229
-0.227
-0.223
-0.2205
-0.2175
-0.217
-0.218
-0.221
-0.2255
-0.2255
-0.2275
-0.225
-0.224
-0.222
-0.211
-0.2125
-0.214
-0.216
-0.2245
-0.2265
-0.222
-0.221
-0.217
-0.211
-0.2155
-0.221
-0.222
-0.219
-0.2175
-0.219
-0.22
-0.2235
-0.2215
-0.2185
-0.226
-0.227
-0.22
-0.2135
-0.214
-0.2155
-0.2155
-0.218
-0.2175
-0.2145
-0.214
-0.2145
-0.212
-0.206
-0.2035
-0.2045
-0.205
-0.1985
-0.1905
-0.192
-0.191
-0.1855
-0.179
-0.1695
-0.167
-0.1705
-0.17
-0.168
-0.166
-0.1675
-0.17
-0.1765
-0.1795
-0.1735
-0.169
-0.165
-0.1625
-0.161
-0.1595
-0.161
-0.167
-0.172
-0.1765
-0.1765
-0.1745
-0.168
-0.1595
-0.151
-0.1425
-0.145
-0.1435
-0.1475
-0.149
-0.142
-0.1425
-0.145
-0.149
-0.147
-0.1455
-0.1495
-0.1485
-0.145
-0.1475
-0.155
-0.162
-0.1625
-0.162
-0.17
-0.18
-0.1715
-0.1555
-0.1605
-0.1685
-0.1625
-0.158
-0.1555
-0.1555
-0.1625
-0.1635
-0.1625
-0.157
-0.149
-0.158
-0.169
-0.1755
-0.1685
-0.1545
-0.16
-0.1645
-0.1685
-0.17
-0.1635
-0.1645
-0.171
-0.1715
-0.167
-0.168
-0.1735
-0.1765
-0.173
-0.181
-0.1935
-0.1995
-0.205
-0.2095
-0.2145
-0.226
-0.24
-0.2385
-0.228
-0.2215
-0.2225
-0.2275
-0.228
-0.226
-0.2285
-0.2325
-0.2365
-0.237
-0.2365
-0.2395
-0.241
-0.2355
-0.229
-0.2315
-0.23
-0.232
-0.236
-0.2345
-0.2445
-0.242
-0.2335
-0.2385
-0.2385
-0.2405
-0.243
-0.246
-0.2445
-0.2455
-0.2405
-0.2235
-0.2255
-0.235
-0.2345
-0.234
-0.2315
-0.2295
-0.231
-0.233
-0.2375
-0.2385
-0.2355
-0.236
-0.235
-0.236
-0.2465
-0.2545
-0.255
-0.252
-0.251
-0.241
-0.231
-0.2395
-0.2435
-0.244
-0.2425
-0.2395
-0.2435
-0.2415
-0.2385
-0.246
-0.2495
-0.246
-0.239
-0.2365
-0.24
-0.2505
-0.2665
-0.2715
-0.2755
-0.2855
-0.285
-0.2815
-0.2945
-0.313
-0.327
-0.337
-0.3505
-0.361
-0.3535
-0.338
-0.3305
-0.3365
-0.3395
-0.3245
-0.3035
-0.29
-0.2695
-0.2335
-0.202
-0.1635
-0.1125
-0.0605
0.0005
0.067
0.122
0.1765
0.2265
0.274
0.3325
0.3865
0.4395
0.474
0.4965
0.5285
0.5575
0.5705
0.5785
0.5895
0.5975
0.588
0.5675
0.555
0.5425
0.5295
0.489
0.437
0.394
0.335
0.2545
0.176
0.111
0.042
-0.0295
-0.103
-0.152
-0.181
-0.1945
-0.1945
-0.212
-0.218
-0.2085
-0.21
-0.214
-0.2145
-0.2145
-0.218
-0.224
-0.233
-0.2395
-0.239
-0.2345
-0.2345
-0.229
-0.2245
-0.231
-0.23
-0.225
-0.2195
-0.2135
-0.2145
-0.2205
-0.229
-0.2335
-0.233
-0.2345
-0.2335
-0.2335
-0.232
-0.2325
-0.225
-0.2165
-0.221
-0.222
-0.2215
-0.2215
-0.224
-0.2245
-0.225
-0.226
-0.227
-0.2305
-0.23
-0.2245
-0.2325
-0.238
-0.2355
-0.2375
-0.229
-0.223
-0.221
-0.2215
-0.2225
-0.224
-0.2255
-0.2265
-0.231
-0.2325
-0.232
-0.231
-0.2335
-0.229
-0.2265
-0.236
-0.231
-0.222
-0.2215
-0.2185
-0.222
-0.218
-0.204
-0.206
-0.2115
-0.213
-0.214
-0.2175
-0.2185
-0.207
-0.205
-0.21
-0.219
-0.2275
-0.2185
-0.216
-0.213
-0.211
-0.2155
-0.21
-0.212
-0.2175
-0.2155
-0.2125
-0.2145
-0.2145
-0.207
-0.204
-0.205
-0.2075
-0.206
-0.1945
-0.1955
-0.2045
-0.2015
-0.199
-0.194
-0.1935
-0.2025
-0.1995
-0.2
-0.204
-0.1985
-0.1975
-0.2005
-0.2025
-0.2095
-0.21
-0.203
-0.1955
-0.186
-0.1885
-0.1955
-0.196
-0.193
-0.19
-0.188
-0.181
-0.1735
-0.1795
-0.179
-0.171
-0.171
-0.165
-0.1595
-0.1625
-0.168
-0.1715
-0.1695
-0.168
-0.168
-0.165
-0.1655
-0.1645
-0.159
-0.161
-0.1575
-0.1565
-0.1645
-0.157
-0.1505
-0.15
-0.139
-0.127
-0.1265
-0.1355
-0.143
-0.1455
-0.14
-0.1365
-0.1365
-0.138
-0.1375
-0.134
-0.124
-0.1195
-0.1225
-0.1155
-0.105
-0.1025
-0.0995
-0.096
-0.097
-0.0915
-0.089
-0.0875
-0.085
-0.081
-0.071
-0.065
-0.0625
-0.0615
-0.0615
-0.064
-0.063
-0.0565
-0.05
-0.0375
-0.0325
-0.0325
-0.0255
-0.024
-0.0205
-0.015
-0.0145
-0.0195
-0.016
-0.01
-0.0185
-0.016
-0.006
0.001
0.0045
0.011
0.0275
0.0315
0.0305
0.0355
0.0295
0.029
0.03
0.0245
0.03
0.035
0.035
0.0325
0.029
0.031
0.0405
0.053
0.055
0.0575
0.0605
0.049
0.043
0.05
0.0575
0.0675
0.0735
0.0735
0.0795
0.076
0.0635
0.0645
0.068
0.067
0.065
0.0655
0.0665
0.059
0.0485
0.044
0.0475
0.046
0.0425
0.0405
0.036
0.035
0.0295
0.0255
0.026
0.016
0.0075
0.004
0.0005
-0.0025
-0.006
-0.011
-0.015
-0.02
-0.0335
-0.0435
-0.044
-0.0435
-0.0445
-0.0505
-0.06
-0.0715
-0.0745
-0.0795
-0.091
-0.096
-0.1005
-0.106
-0.1115
-0.1165
-0.118
-0.1245
-0.133
-0.134
-0.1395
-0.1505
-0.1575
-0.161
-0.169
-0.1775
-0.172
-0.165
-0.173
-0.178
-0.1615
-0.155
-0.1555
-0.1575
-0.169
-0.173
-0.182
-0.189
-0.189
-0.185
-0.185
-0.192
-0.1915
-0.193
-0.191
-0.1905
-0.1945
-0.1925
-0.198
-0.2045
-0.2045
-0.203
-0.2055
-0.2095
-0.207
-0.206
-0.2075
-0.206
-0.202
-0.2035
-0.201
-0.199
-0.2035
-0.203
-0.2025
-0.205
-0.2025
-0.2075
-0.2145
-0.209
-0.204
-0.2085
-0.209
-0.202
-0.2005
-0.2
-0.206
-0.209
-0.2085
-0.2125
-0.2135
-0.211
-0.214
-0.2165
-0.215
-0.2125
-0.1995
-0.1985
-0.201
-0.2005
-0.208
-0.2135
-0.218
-0.215
-0.2155
-0.218
-0.2155
-0.2145
-0.2095
-0.2105
-0.2175
-0.218
-0.2215
-0.216
-0.2055
-0.2135
-0.2175
-0.2145
-0.2125
-0.215
-0.213
-0.2085
-0.208
-0.2025
-0.2035
-0.2045
-0.1995
-0.2045
-0.208
-0.1985
-0.1945
-0.205
-0.2195
-0.222
-0.218
-0.213
-0.215
-0.221
-0.2175
-0.212
-0.2135
-0.213
-0.2125
-0.218
-0.2225
-0.2225
-0.2175
-0.2085
-0.2055
-0.2105
-0.214
-0.2115
-0.2135
-0.2175
-0.216
-0.212
-0.2095
-0.2085
-0.2085
-0.211
-0.212
-0.21
-0.203
-0.1995
-0.2065
-0.2045
-0.205
-0.2115
-0.209
-0.213
-0.2165
-0.2105
-0.2105
-0.215
-0.2215
-0.2205
-0.219
-0.2295
-0.2335
-0.229
-0.2145
-0.2005
-0.2025
-0.2085
-0.2065
-0.2025
-0.2065
-0.2095
-0.206
-0.2035
-0.204
-0.2035
-0.2045
-0.207
-0.2055
-0.212
-0.2185
-0.2155
-0.2155
-0.21
-0.215
-0.223
-0.228
-0.237
-0.233
-0.216
-0.2015
-0.201
-0.1955
-0.201
-0.2135
-0.212
-0.2135
-0.212
-0.2165
-0.2225
-0.2205
-0.22
-0.217
-0.2105
-0.2115
-0.215
-0.218
-0.219
-0.2175
-0.224
-0.222
-0.214
-0.2135
-0.2155
-0.2235
-0.2265
-0.2255
-0.223
-0.221
-0.2205
-0.216
-0.2125
-0.22
-0.223
-0.2145
-0.215
-0.224
-0.2255
-0.223
-0.227
-0.2375
-0.242
-0.2355
-0.231
-0.2335
-0.231
-0.2165
-0.2145
-0.216
-0.21
-0.2115
-0.2135
-0.213
-0.2175
-0.221
-0.222
-0.2305
-0.232
-0.2255
-0.2235
-0.2145
-0.211
-0.2095
-0.214
-0.223
-0.221
-0.223
-0.2235
-0.2195
-0.218
-0.222
-0.2215
-0.2175
-0.2185
-0.2145
-0.2115
-0.213
-0.2105
-0.2055
-0.2045
-0.21
-0.2145
-0.2055
-0.191
-0.188
-0.187
-0.179
-0.173
-0.166
-0.166
-0.1765
-0.1795
-0.1815
-0.1815
-0.1785
-0.179
-0.1765
-0.1735
-0.1755
-0.1755
-0.1745
-0.1665
-0.1545
-0.1575
-0.162
-0.1585
-0.1625
-0.166
-0.1625
-0.1605
-0.1595
-0.162
-0.16
-0.1525
-0.148
-0.1435
-0.1385
-0.141
-0.1515
-0.1505
-0.15
-0.1535
-0.1535
-0.1565
-0.1445
-0.1355
-0.14
-0.151
-0.1605
-0.1585
-0.1545
-0.154
-0.1535
-0.153
-0.161
-0.1615
-0.1645
-0.1675
-0.161
-0.157
-0.154
-0.1485
-0.145
-0.147
-0.1545
-0.167
-0.167
-0.157
-0.155
-0.158
-0.1585
-0.16
-0.1635
-0.161
-0.162
-0.1655
-0.169
-0.168
-0.1665
-0.168
-0.1675
-0.1725
-0.1805
-0.19
-0.2
-0.203
-0.2
-0.209
-0.216
-0.2165
-0.223
-0.2265
-0.2275
-0.2235
-0.2335
-0.2365
-0.222
-0.2165
-0.229
-0.253
-0.2585
-0.2515
-0.2465
-0.2405
-0.228
-0.2135
-0.218
-0.2255
-0.2305
-0.235
-0.2385
-0.2465
-0.251
-0.243
-0.2315
-0.225
-0.223
-0.2235
-0.228
-0.2215
-0.213
-0.2245
-0.2365
-0.2455
-0.2475
-0.249
-0.2475
-0.248
-0.2505
-0.241
-0.2395
-0.242
-0.245
-0.249
-0.247
-0.244
-0.24
-0.241
-0.234
-0.2215
-0.2265
-0.239
-0.2445
-0.2435
-0.245
-0.239
-0.237
-0.2445
-0.2485
-0.252
-0.248
-0.2455
-0.247
-0.2485
-0.2465
-0.2445
-0.243
-0.2435
-0.2465
-0.245
-0.2485
-0.249
-0.2495
-0.251
-0.255
-0.27
-0.2765
-0.291
-0.31
-0.319
-0.3285
-0.3315
-0.339
-0.3495
-0.3515
-0.343
-0.338
-0.343
-0.3495
-0.349
-0.331
-0.3105
-0.2845
-0.2405
-0.201
-0.166
-0.12
-0.0675
-0.012
0.052
0.1135
0.163
0.2145
0.2665
0.3175
0.3675
0.424
0.4695
0.498
0.5435
0.5735
0.5845
0.6075
0.613
0.6035
0.596
0.5825
0.5635
0.5405
0.5215
0.494
0.4395
0.3865
0.332
0.258
0.191
0.132
0.0645
-0.02
-0.092
-0.1345
-0.166
-0.1915
-0.2085
-0.212
-0.212
-0.2135
-0.217
-0.2315
-0.244
-0.2385
-0.231
-0.231
-0.2365
-0.2365
-0.2255
-0.2255
-0.23
-0.221
-0.215
-0.225
-0.23
-0.2235
-0.2245
-0.236
-0.239
-0.231
-0.2305
-0.2295
-0.224
-0.224
-0.2215
-0.2135
-0.2165
-0.2275
-0.229
-0.2295
-0.232
-0.2295
-0.227
-0.225
-0.2215
-0.221
-0.226
-0.2235
-0.2225
-0.2265
-0.229
-0.2355
-0.2375
-0.2305
-0.223
-0.224
-0.225
-0.2175
-0.218
-0.229
-0.241
-0.243
-0.238
-0.233
-0.2345
-0.2335
-0.2195
-0.2175
-0.2215
-0.224
-0.233
-0.232
-0.2205
-0.222
-0.2275
-0.2285
-0.2275
-0.218
-0.22
-0.2165
-0.216
-0.223
-0.2145
-0.214
-0.2215
-0.2195
-0.209
-0.21
-0.214
-0.2115
-0.2105
-0.2095
-0.2115
-0.213
-0.2135
-0.2095
-0.209
-0.209
-0.2045
-0.202
-0.1965
-0.194
-0.1925
-0.198
-0.2065
-0.203
-0.204
-0.208
-0.2095
-0.2105
-0.205
-0.2065
-0.2055
-0.199
-0.199
-0.2005
-0.201
-0.2015
-0.203
-0.197
-0.2005
-0.208
-0.209
-0.2095
-0.2015
-0.187
-0.181
-0.1855
-0.182
-0.1825
-0.1765
-0.1635
-0.166
-0.178
-0.181
-0.1825
-0.1775
-0.165
-0.166
-0.17
-0.1755
-0.171
-0.166
-0.1715
-0.166
-0.16
-0.165
-0.1695
-0.164
-0.1575
-0.156
-0.1555
-0.152
-0.1515
-0.15
-0.1475
-0.1455
-0.1435
-0.143
-0.1395
-0.1365
-0.127
-0.1315
-0.135
-0.127
-0.1295
-0.1355
-0.128
-0.1195
-0.117
-0.111
-0.105
-0.0995
-0.099
-0.102
-0.095
-0.086
-0.0855
-0.0855
-0.0805
-0.076
-0.072
-0.0705
-0.069
-0.066
-0.067
-0.063
-0.0635
-0.061
-0.0545
-0.0475
-0.0455
-0.049
-0.047
-0.0475
-0.0385
-0.0335
-0.0265
-0.019
-0.0225
-0.0125
0.0
-0.001
-0.001
0.005
0.014
0.0175
0.0135
0.015
0.0165
0.024
0.034
0.0385
0.039
0.039
0.048
0.0475
0.0455
0.0495
0.053
0.0515
0.055
0.0655
0.0645
0.0635
0.063
0.06
0.0645
0.0595
0.052
0.0525
0.0585
0.0685
0.079
0.0845
0.0775
0.074
0.072
0.067
0.063
0.0665
0.071
0.0685
0.073
0.0685
0.069
0.0735
0.063
0.0615
0.0585
0.053
0.05
0.0415
0.0335
0.0295
0.0295
0.0205
0.016
0.0175
0.0235
0.028
0.0205
0.0105
0.005
-0.0075
-0.017
-0.015
-0.023
-0.0335
-0.043
-0.0445
-0.0505
-0.063
-0.068
-0.074
-0.079
-0.085
-0.091
-0.0965
-0.0965
-0.0985
-0.11
-0.116
-0.1245
-0.129
-0.131
-0.1345
-0.1355
-0.14
-0.1445
-0.147
-0.151
-0.1515
-0.1565
-0.162
-0.163
-0.167
-0.1625
-0.1645
-0.1695
-0.177
-0.1825
-0.184
-0.19
-0.191
-0.1855
-0.1805
-0.188
-0.193
-0.193
-0.1965
-0.1945
-0.192
-0.195
-0.199
-0.2015
-0.1985
-0.195
-0.194
-0.1885
-0.1925
-0.206
-0.207
-0.2125
-0.2145
-0.213
-0.212
-0.2095
-0.2065
-0.203
-0.2055
-0.2085
-0.2105
-0.2105
-0.2155
-0.217
-0.2145
-0.2165
-0.2165
-0.2195
-0.2175
-0.215
-0.2145
-0.2115
-0.2125
-0.213
-0.218
-0.212
-0.2095
-0.217
-0.216
-0.2155
-0.2125
-0.213
-0.2065
-0.196
-0.1995
-0.1995
-0.2035
-0.213
-0.213
-0.217
-0.2185
-0.2195
-0.2195
-0.2195
-0.229
-0.2315
-0.225
-0.213
-0.209
-0.2095
-0.2065
-0.208
-0.2115
-0.2095
-0.21
-0.2135
-0.196
-0.191
-0.2105
-0.2145
-0.217
-0.222
-0.2145
-0.2125
-0.2175
-0.221
-0.2205
-0.218
-0.212
-0.2105
-0.213
-0.214
-0.2155
-0.2175
-0.2155
-0.203
-0.2055
-0.2075
-0.198
-0.197
-0.2065
-0.2155
-0.211
-0.217
-0.2225
-0.205
-0.1965
-0.2065
-0.208
-0.2125
-0.217
-0.217
-0.2175
-0.206
-0.1985
-0.198
-0.2035
-0.2065
-0.2065
-0.2145
-0.2155
-0.208
-0.209
-0.218
-0.2155
-0.2155
-0.2135
-0.2005
-0.195
-0.1995
-0.2055
-0.2055
-0.208
-0.2085
-0.207
-0.2025
-0.201
-0.211
-0.208
-0.2055
-0.206
-0.206
-0.2125
-0.212
-0.213
-0.2075
-0.204
-0.215
-0.218
-0.221
-0.2205
-0.2135
-0.21
-0.213
-0.2165
-0.208
-0.202
-0.2055
-0.2115
-0.2195
-0.215
-0.2095
-0.2085
-0.214
-0.2255
-0.2195
-0.2125
-0.2165
-0.2165
-0.2175
-0.22
-0.2235
-0.2305
-0.237
-0.236
-0.2345
-0.2365
-0.2225
-0.2055
-0.201
-0.2065
-0.2105
-0.2105
-0.2115
-0.217
-0.22
-0.217
-0.223
-0.221
-0.2185
-0.2205
-0.222
-0.222
-0.2125
-0.213
-0.2145
-0.2125
-0.2085
-0.206
-0.2175
-0.2235
-0.2145
-0.215
-0.223
-0.2155
-0.2105
-0.214
-0.2145
-0.218
-0.215
-0.209
-0.207
-0.215
-0.2265
-0.2235
-0.217
-0.216
-0.222
-0.2215
-0.216
-0.2215
-0.227
-0.228
-0.2265
-0.2295
-0.232
-0.229
-0.227
-0.224
-0.223
-0.22
-0.216
-0.219
-0.2195
-0.224
-0.2245
-0.223
-0.2185
-0.2175
-0.2225
-0.2165
-0.2115
-0.2105
-0.2145
-0.2155
-0.215
-0.2115
-0.2065
-0.209
-0.196
-0.1845
-0.1875
-0.1895
-0.1945
-0.193
-0.185
-0.189
-0.1925
-0.184
-0.18
-0.1765
-0.177
-0.1785
-0.1705
-0.1685
-0.165
-0.1685
-0.1725
-0.1755
-0.181
-0.1745
-0.1605
-0.1555
-0.157
-0.1515
-0.154
-0.164
-0.167
-0.1615
-0.164
-0.162
-0.1485
-0.1415
-0.141
-0.143
-0.143
-0.147
-0.146
-0.146
-0.141
-0.1455
-0.144
-0.143
-0.1495
-0.1415
-0.1445
-0.1485
-0.1635
-0.1695
-0.162
-0.158
-0.157
-0.157
-0.1515
-0.155
-0.1525
-0.1485
-0.1465
-0.146
-0.1465
-0.1465
-0.148
-0.1495
-0.156
-0.1555
-0.154
-0.1535
-0.157
-0.161
-0.163
-0.16
-0.162
-0.1755
-0.181
-0.187
-0.191
-0.184
-0.1745
-0.172
-0.1695
-0.1775
-0.183
-0.181
-0.189
-0.193
-0.2075
-0.216
-0.213
-0.216
-0.221
-0.224
-0.2225
-0.2225
-0.2235
-0.226
-0.2325
-0.235
-0.232
-0.233
-0.233
-0.2335
-0.2405
-0.2395
-0.235
-0.225
-0.222
-0.227
-0.2235
-0.2275
-0.2345
-0.242
-0.2425
-0.2385
-0.2355
-0.232
-0.238
-0.2455
-0.2455
-0.239
-0.2395
-0.239
-0.236
-0.237
-0.2415
-0.2465
-0.2505
-0.25
-0.2475
-0.249
-0.2475
-0.246
-0.247
-0.245
-0.2455
-0.2465
-0.242
-0.2375
-0.2355
-0.2395
-0.243
-0.248
-0.2475
-0.2385
-0.242
-0.249
-0.243
-0.238
-0.2375
-0.235
-0.2405
-0.241
-0.236
-0.238
-0.2375
-0.24
-0.236
-0.244
-0.257
-0.2505
-0.2475
-0.248
-0.249
-0.251
-0.2585
-0.2665
-0.2805
-0.302
-0.317
-0.3295
-0.335
-0.338
-0.345
-0.351
-0.3415
-0.3325
-0.341
-0.353
-0.3475
-0.3375
-0.332
-0.3075
-0.2815
-0.2475
-0.2055
-0.1725
-0.129
-0.0825
-0.0345
0.028
0.092
0.1515
0.2015
0.2455
0.3025
0.3605
0.417
0.4635
0.4995
0.5345
0.551
0.563
0.5865
0.5965
0.5945
0.5765
0.5525
0.5465
0.541
0.537
0.505
0.438
0.378
0.326
0.252
0.1835
0.134
0.0665
-0.005
-0.078
-0.1405
-0.178
-0.2015
-0.216
-0.2315
-0.245
-0.244
-0.242
-0.244
-0.246
-0.247
-0.24
-0.245
-0.2515
-0.253
-0.2515
-0.2505
-0.2425
-0.232
-0.236
-0.2275
-0.2255
-0.2365
-0.2355
-0.232
-0.2275
-0.2255
-0.231
-0.232
-0.2245
-0.218
-0.211
-0.215
-0.2225
-0.226
-0.227
-0.225
-0.221
-0.2215
-0.2325
-0.234
-0.23
-0.2345
-0.235
-0.2275
-0.2225
-0.2155
-0.2185
-0.2245
-0.2245
-0.2335
-0.2385
-0.2325
-0.23
-0.229
-0.218
-0.214
-0.2165
-0.217
-0.227
-0.23
-0.2235
-0.2325
-0.2365
-0.223
-0.22
-0.2165
-0.2205
-0.23
-0.23
-0.226
-0.226
-0.225
-0.222
-0.228
-0.2205
-0.2155
-0.2245
-0.2235
-0.2165
-0.2215
-0.224
-0.2195
-0.2195
-0.2195
-0.2155
-0.2095
-0.206
-0.201
-0.197
-0.195
-0.199
-0.204
-0.2075
-0.2085
-0.2015
-0.2025
-0.2125
-0.2125
-0.2055
-0.1985
-0.198
-0.205
-0.21
-0.206
-0.192
-0.188
-0.1905
-0.1975
-0.201
-0.201
-0.216
-0.2175
-0.201
-0.1965
-0.189
-0.1775
-0.182
-0.1845
-0.191
-0.1965
-0.1985
-0.2025
-0.198
-0.194
-0.1875
-0.1785
-0.1725
-0.174
-0.1745
-0.184
-0.1915
-0.1805
-0.1735
-0.161
-0.1595
-0.1685
-0.1625
-0.1645
-0.163
-0.1685
-0.181
-0.1705
-0.1695
-0.1605
-0.1405
-0.152
-0.1535
-0.1445
-0.149
-0.15
-0.152
-0.1535
-0.1535
-0.1585
-0.159
-0.1535
-0.148
-0.1475
-0.145
-0.1405
-0.13
-0.125
-0.1285
-0.122
-0.112
-0.1075
-0.1055
-0.1
-0.1055
-0.109
-0.1015
-0.097
-0.09
-0.0885
-0.093
-0.0895
-0.0875
-0.0775
-0.0815
-0.082
-0.0695
-0.073
-0.0685
-0.067
-0.0645
-0.058
-0.0595
-0.0605
-0.051
-0.046
-0.0445
-0.032
-0.027
-0.021
-0.0165
-0.0175
-0.018
-0.017
-0.014
-0.0135
-0.011
-0.005
0.004
0.0075
0.01
0.015
0.0175
0.0165
0.0175
0.0165
0.0235
0.0345
0.0325
0.0265
0.03
0.033
0.0435
0.063
0.0655
0.0675
0.056
0.0615
0.076
0.071
0.067
0.0705
0.082
0.073
0.076
0.0805
0.0725
0.075
0.0745
0.076
0.073
0.061
0.0615
0.072
0.073
0.0655
0.058
0.06
0.058
0.058
0.0615
0.0535
0.0495
0.0425
0.0385
0.0375
0.0355
0.036
0.035
0.03
0.019
0.0135
0.0045
-0.0025
-0.0025
-0.0125
-0.0155
-0.0195
-0.0255
-0.03
-0.038
-0.045
-0.047
-0.0525
-0.0715
-0.074
-0.073
-0.0845
-0.0935
-0.095
-0.095
-0.1
-0.105
-0.1065
-0.111
-0.126
-0.1285
-0.132
-0.144
-0.1555
-0.1535
-0.1525
-0.1565
-0.1535
-0.159
-0.158
-0.1615
-0.169
-0.171
-0.17
-0.169
-0.1685
-0.175
-0.1815
-0.1795
-0.1885
-0.191
-0.191
-0.1935
-0.191
-0.1935
-0.198
-0.2005
-0.1995
-0.1965
-0.1995
-0.2005
-0.2015
-0.203
-0.1965
-0.1925
-0.188
-0.188
-0.1995
-0.2055
-0.2085
-0.207
-0.2085
-0.2175
-0.218
-0.214
-0.2105
-0.208
-0.2065
-0.1975
-0.1955
-0.2005
-0.212
-0.2215
-0.218
-0.2245
-0.22
-0.2145
-0.2145
-0.2065
-0.212
-0.2065
-0.2035
-0.2065
-0.2105
-0.22
-0.219
-0.223
-0.228
-0.234
-0.2285
-0.2205
-0.222
-0.222
-0.224
-0.215
-0.2125
-0.2105
-0.2025
-0.203
-0.2115
-0.214
-0.2135
-0.216
-0.2225
-0.23
-0.2215
-0.2155
-0.216
-0.2125
-0.2185
-0.2285
-0.227
-0.2105
-0.2045
-0.2085
-0.221
-0.2295
-0.209
-0.201
-0.2095
-0.218
-0.221
-0.208
-0.2025
-0.2015
-0.205
-0.2105
-0.212
-0.206
-0.203
-0.2115
-0.209
-0.2125
-0.2185
-0.2135
-0.2155
-0.214
-0.2105
-0.2125
-0.208
-0.2025
-0.2085
-0.2085
-0.199
-0.1985
-0.2015
-0.2015
-0.2125
-0.215
-0.214
-0.2165
-0.2145
-0.217
-0.2025
-0.2045
-0.2145
-0.2075
-0.203
-0.1975
-0.1955
-0.1955
-0.197
-0.2015
-0.2025
-0.205
-0.213
-0.2155
-0.214
-0.217
-0.217
-0.21
-0.218
-0.226
-0.2225
-0.217
-0.205
-0.208
-0.213
-0.2055
-0.205
-0.2085
-0.207
-0.207
-0.2075
-0.2065
-0.202
-0.1985
-0.204
-0.2085
-0.2175
-0.2265
-0.221
-0.2155
-0.2165
-0.205
-0.2055
-0.213
-0.211
-0.2165
-0.2185
-0.2165
-0.213
-0.2085
-0.212
-0.208
-0.2125
-0.2295
-0.2245
-0.225
-0.226
-0.222
-0.215
-0.1995
-0.2
-0.21
-0.219
-0.223
-0.217
-0.2135
-0.223
-0.2235
-0.2195
-0.216
-0.2105
-0.2205
-0.2265
-0.2275
-0.2265
-0.2105
-0.1985
-0.201
-0.196
-0.199
-0.2095
-0.2115
-0.2255
-0.2315
-0.233
-0.238
-0.2375
-0.2325
-0.221
-0.211
-0.2055
-0.2035
-0.2075
-0.217
-0.2205
-0.2235
-0.218
-0.2215
-0.2285
-0.2225
-0.2225
-0.222
-0.225
-0.2325
-0.2435
-0.2405
-0.226
-0.2275
-0.23
-0.219
-0.215
-0.2185
-0.2115
-0.217
-0.2185
-0.206
-0.2065
-0.2205
-0.2185
-0.2105
-0.211
-0.2115
-0.2065
-0.1965
-0.199
-0.192
-0.188
-0.1975
-0.186
-0.173
-0.18
-0.183
-0.182
-0.189
-0.188
-0.1785
-0.1655
-0.1545
-0.157
-0.1585
-0.152
-0.153
-0.1595
-0.1565
-0.1585
-0.1625
-0.1575
-0.161
-0.1615
-0.1535
-0.159
-0.1625
-0.168
-0.1685
-0.1535
-0.158
-0.16
-0.1605
-0.1665
-0.162
-0.16
-0.1565
-0.167
-0.172
-0.161
-0.1645
-0.1715
-0.1635
-0.1535
-0.154
-0.1625
-0.1645
-0.163
-0.1765
-0.1735
-0.165
-0.166
-0.161
-0.1625
-0.1565
-0.1515
-0.153
-0.1465
-0.1425
-0.1475
-0.1465
-0.149
-0.157
-0.1525
-0.15
-0.15
-0.1545
-0.1675
-0.1695
-0.1655
-0.172
-0.174
-0.161
-0.1565
-0.163
-0.165
-0.163
-0.168
-0.1775
-0.181
-0.1825
-0.187
-0.1915
-0.2035
-0.2105
-0.2005
-0.1965
-0.202
-0.2145
-0.219
-0.2175
-0.217
-0.225
-0.2445
-0.252
-0.2525
-0.2425
-0.2245
-0.2175
-0.2265
-0.234
-0.236
-0.2355
-0.235
-0.24
-0.239
-0.2315
-0.2275
-0.228
-0.227
-0.239
-0.2415
-0.233
-0.238
-0.235
-0.2275
-0.223
-0.2245
-0.226
-0.2265
-0.224
-0.229
-0.2335
-0.236
-0.2455
-0.2455
-0.252
-0.249
-0.247
-0.2505
-0.251
-0.252
-0.2445
-0.2495
-0.253
-0.2425
-0.2405
-0.2435
-0.239
-0.2355
-0.2325
-0.2335
-0.236
-0.2315
-0.2295
-0.237
-0.2435
-0.24
-0.242
-0.251
-0.2505
-0.248
-0.247
-0.25
-0.258
-0.257
-0.2575
-0.2585
-0.2575
-0.26
-0.2585
-0.271
-0.287
-0.296
-0.3085
-0.326
-0.3375
-0.3435
-0.354
-0.3505
-0.3425
-0.3405
-0.3395
-0.3345
-0.3305
-0.3155
-0.294
-0.281
-0.255
-0.223
-0.184
-0.1335
-0.085
-0.04
0.0155
0.073
0.119
0.165
0.2175
0.2715
0.323
0.3745
0.418
0.453
0.487
0.514
0.5175
0.524
0.5395
0.538
0.522
0.4975
0.4845
0.479
0.475
0.449
0.386
0.329
0.2745
0.2155
0.172
0.113
0.041
-0.0345
-0.1095
-0.1575
-0.1955
-0.213
-0.2215
-0.23
-0.235
-0.2505
-0.2475
-0.2385
-0.2495
-0.251
-0.248
-0.242
-0.2305
-0.233
-0.2315
-0.229
-0.228
-0.224
-0.2265
-0.228
-0.226
-0.2235
-0.2155
-0.2195
-0.2245
-0.2265
-0.2325
-0.2275
-0.2375
-0.244
-0.232
-0.2245
-0.2225
-0.2235
-0.2265
-0.2275
-0.2285
-0.229
-0.2285
-0.231
-0.229
-0.2295
-0.2315
-0.2325
-0.2335
-0.23
-0.228
-0.23
-0.233
-0.231
-0.232
-0.234
-0.236
-0.2315
-0.2245
-0.2255
-0.221
-0.211
-0.215
-0.221
-0.211
-0.222
-0.2285
-0.222
-0.2295
-0.2295
-0.231
-0.235
-0.2395
-0.2385
-0.232
-0.228
-0.2255
-0.2185
-0.2115
-0.217
-0.2195
-0.2205
-0.2125
-0.213
-0.23
-0.237
-0.2405
-0.2325
-0.221
-0.213
-0.2065
-0.206
-0.211
-0.211
-0.201
-0.2065
-0.2125
-0.2095
-0.21
-0.2095
-0.212
-0.2085
-0.206
-0.2
-0.1925
-0.1955
-0.1995
-0.199
-0.202
-0.2025
-0.2
-0.1915
-0.177
-0.1845
-0.191
-0.193
-0.1955
-0.1905
-0.193
-0.193
-0.191
-0.195
-0.191
-0.1935
-0.2005
-0.1935
-0.181
-0.1895
-0.198
-0.187
-0.1845
-0.1915
-0.196
-0.192
-0.1855
-0.181
-0.1755
-0.1735
-0.1745
-0.182
-0.1885
-0.177
-0.1675
-0.176
-0.1785
-0.1675
-0.1625
-0.1615
-0.159
-0.16
-0.167
-0.1605
-0.1515
-0.16
-0.161
-0.156
-0.157
-0.1555
-0.153
-0.1505
-0.145
-0.1435
-0.1455
-0.1485
-0.144
-0.1375
-0.1365
-0.1335
-0.1275
-0.1225
-0.125
-0.1265
-0.1235
-0.108
-0.1025
-0.1155
-0.1085
-0.1035
-0.1035
-0.098
-0.097
-0.089
-0.084
-0.0865
-0.0975
-0.106
-0.0965
-0.079
-0.059
-0.0495
-0.051
-0.0555
-0.053
-0.044
-0.0415
-0.05
-0.0495
-0.0315
-0.023
-0.0265
-0.024
-0.0185
-0.0115
-0.005
-0.011
-0.015
-0.0105
-0.0155
-0.0225
-0.0135
0.0035
0.017
0.0125
0.0095
0.013
0.011
0.011
0.01
0.016
0.0235
0.0325
0.0355
0.0325
0.04
0.04
0.0345
0.034
0.0345
0.032
0.0335
0.044
0.0535
0.0615
0.06
0.058
0.0545
0.048
0.0565
0.0595
0.05
0.056
0.0645
0.0565
0.061
0.062
0.049
0.0465
0.042
0.036
0.0335
0.03
0.0305
0.029
0.0165
0.0085
0.0
-0.0025
-0.0005
-0.0055
-0.0065
-0.022
-0.034
-0.0335
-0.0455
-0.047
-0.0415
-0.036
-0.033
-0.045
-0.056
-0.051
-0.0635
-0.0905
-0.0845
-0.083
-0.091
-0.0935
-0.1045
-0.11
-0.1095
-0.1105
-0.122
-0.127
-0.1205
-0.122
-0.1355
-0.15
-0.153
-0.154
-0.167
-0.175
-0.1655
-0.17
-0.184
-0.189
-0.1975
-0.191
-0.1765
-0.1695
-0.172
-0.1905
-0.194
-0.1875
-0.1835
-0.1815
-0.1815
-0.1865
-0.1895
-0.1915
-0.2
-0.208
-0.21
-0.2045
-0.1925
-0.189
-0.196
-0.189
-0.191
-0.198
-0.2005
-0.2095
-0.2065
-0.2075
-0.2095
-0.215
-0.2105
-0.1985
-0.208
-0.2045
-0.204
-0.21
-0.2065
-0.2165
-0.2125
-0.2
-0.206
-0.21
-0.2055
-0.2085
-0.2065
-0.2045
-0.211
-0.218
-0.2205
-0.2135
-0.2195
-0.2295
-0.226
-0.22
-0.2125
-0.2175
-0.2225
-0.215
-0.208
-0.2125
-0.209
-0.2155
-0.228
-0.2195
-0.2265
-0.225
-0.215
-0.2145
-0.213
-0.2125
-0.207
-0.2045
-0.2075
-0.208
-0.2035
-0.2065
-0.208
-0.214
-0.221
-0.221
-0.2285
-0.23
-0.2215
-0.2125
-0.212
-0.207
-0.2115
-0.2195
-0.206
-0.2045
-0.205
-0.197
-0.204
-0.212
-0.2205
-0.2215
-0.21
-0.2165
-0.217
-0.2185
-0.2215
-0.212
-0.2085
-0.199
-0.2075
-0.2145
-0.209
-0.2155
-0.217
-0.2195
-0.216
-0.2105
-0.197
-0.1885
-0.205
-0.211
-0.2155
-0.219
-0.217
-0.219
-0.229
-0.228
-0.215
-0.2105
-0.2035
-0.2085
-0.215
-0.2085
-0.2105
-0.2095
-0.197
-0.1925
-0.2025
-0.205
-0.2075
-0.2095
-0.2015
-0.2065
-0.2075
-0.2095
-0.2195
-0.204
-0.2035
-0.215
-0.202
-0.1985
-0.205
-0.2095
-0.213
-0.211
-0.212
-0.21
-0.205
-0.2125
-0.2155
-0.212
-0.2165
-0.219
-0.216
-0.215
-0.215
-0.2165
-0.216
-0.204
-0.207
-0.2095
-0.1995
-0.2115
-0.216
-0.2115
-0.2045
-0.2065
-0.2115
-0.205
-0.208
-0.222
-0.231
-0.2165
-0.205
-0.206
-0.2145
-0.223
-0.22
-0.2215
-0.2225
-0.2185
-0.216
-0.2185
-0.224
-0.2285
-0.2285
-0.2235
-0.2215
-0.2185
-0.216
-0.211
-0.2105
-0.207
-0.208
-0.221
-0.2155
-0.223
-0.2245
-0.224
-0.235
-0.2235
-0.2195
-0.229
-0.2275
-0.2275
-0.2285
-0.223
-0.225
-0.225
-0.219
-0.212
-0.208
-0.211
-0.2125
-0.2105
-0.2065
-0.215
-0.2145
-0.2065
-0.2195
-0.221
-0.2165
-0.2165
-0.215
-0.2205
-0.2095
-0.209
-0.21
-0.186
-0.1815
-0.1905
-0.1885
-0.1915
-0.1975
-0.193
-0.1935
-0.1885
-0.1855
-0.1855
-0.181
-0.189
-0.1865
-0.184
-0.1725
-0.173
-0.175
-0.1615
-0.1735
-0.177
-0.1795
-0.173
-0.169
-0.1685
-0.149
-0.1455
-0.148
-0.16
-0.167
-0.1675
-0.1705
-0.157
-0.148
-0.156
-0.1625
-0.1575
-0.1425
-0.145
-0.16
-0.158
-0.163
-0.1705
-0.166
-0.159
-0.156
-0.159
-0.1575
-0.1485
-0.147
-0.1585
-0.163
-0.1675
-0.172
-0.174
-0.175
-0.164
-0.158
-0.157
-0.1615
-0.1565
-0.144
-0.1385
-0.142
-0.1475
-0.143
-0.1435
-0.1465
-0.1485
-0.1505
-0.1535
-0.166
-0.1705
-0.174
-0.1795
-0.176
-0.183
-0.174
-0.1635
-0.166
-0.16
-0.167
-0.1655
-0.1535
-0.1585
-0.162
-0.162
-0.1725
-0.1855
-0.1935
-0.2005
-0.2105
-0.208
-0.203
-0.207
-0.2105
-0.2155
-0.221
-0.2305
-0.2335
-0.236
-0.231
-0.2245
-0.23
-0.2305
-0.237
-0.2315
-0.2235
-0.2285
-0.2265
-0.2225
-0.2265
-0.237
-0.2315
-0.226
-0.233
-0.2295
-0.2295
-0.2355
-0.232
-0.2335
-0.2295
-0.2235
-0.232
