ECG
0.446
0.445
0.449
0.4515
0.4585
0.4565
0.45
0.459
0.4605
0.4565
0.463
0.466
0.4685
0.4645
0.465
0.4695
0.4785
0.4815
0.476
0.483
0.4825
0.4815
0.487
0.4925
0.5005
0.5035
0.501
0.496
0.501
0.5055
0.5035
0.508
0.5145
0.518
0.517
0.513
0.512
0.5145
0.5185
0.524
0.5285
0.528
0.523
0.525
0.5295
0.5295
0.531
0.534
0.536
0.5385
0.539
0.5365
0.539
0.5375
0.5345
0.5415
0.545
0.5395
0.5405
0.542
0.541
0.543
0.5415
0.5455
0.553
0.5555
0.551
0.546
0.5475
0.5505
0.548
0.5485
0.551
0.5475
0.5475
0.543
0.5375
0.5365
0.539
0.5355
0.5365
0.5375
0.529
0.527
0.5245
0.5235
0.5205
0.511
0.51
0.5135
0.5075
0.498
0.5025
0.5
0.49
0.487
0.4865
0.487
0.4775
0.475
0.475
0.4665
0.4665
0.4635
0.4535
0.45
0.448
0.4455
0.4425
0.4395
0.44
0.4355
0.4325
0.43
0.4225
0.4185
0.415
0.42
0.421
0.407
0.4
0.404
0.4055
0.4055
0.4045
0.396
0.3915
0.3885
0.3855
0.3905
0.39
0.3845
0.383
0.385
0.3835
0.3795
0.379
0.379
0.3825
0.3855
0.3805
0.3765
0.3775
0.3775
0.3765
0.378
0.3755
0.375
0.375
0.373
0.371
0.37
0.3735
0.37
0.367
0.37
0.3685
0.3655
0.3655
0.3675
0.3695
0.369
0.37
0.3685
0.369
0.37
0.3665
0.3615
0.3605
0.364
0.365
0.363
0.3615
0.3605
0.3605
0.361
0.361
0.3605
0.36
0.3585
0.3625
0.364
0.3615
0.3625
0.3615
0.3625
0.3605
0.36
0.3605
0.3595
0.3645
0.365
0.364
0.364
0.363
0.3625
0.3635
0.365
0.369
0.3725
0.366
0.3675
0.3695
0.3685
0.371
0.368
0.3655
0.3655
0.3645
0.3625
0.3625
0.365
0.3655
0.366
0.366
0.3675
0.368
0.3645
0.363
0.3655
0.3655
0.365
0.3625
0.363
0.365
0.3665
0.369
0.37
0.369
0.3635
0.3625
0.3675
0.369
0.368
0.3685
0.3665
0.37
0.3705
0.371
0.3755
0.3685
0.37
0.374
0.3695
0.369
0.377
0.383
0.378
0.37
0.3675
0.3695
0.3685
0.365
0.365
0.367
0.3625
0.3635
0.3705
0.374
0.3705
0.369
0.372
0.369
0.3715
0.371
0.369
0.3725
0.372
0.368
0.3675
0.3695
0.3715
0.3705
0.366
0.368
0.3715
0.3725
0.372
0.371
0.371
0.372
0.3735
0.3735
0.371
0.371
0.3695
0.369
0.374
0.375
0.3715
0.3695
0.372
0.3755
0.367
0.363
0.367
0.3685
0.3685
0.365
0.3655
0.3655
0.366
0.368
0.3685
0.368
0.369
0.3685
0.3655
0.369
0.3705
0.368
0.3695
0.37
0.367
0.3685
0.3715
0.3705
0.368
0.365
0.368
0.366
0.361
0.366
0.3675
0.365
0.3695
0.371
0.374
0.371
0.3705
0.375
0.3715
0.3705
0.3705
0.3685
0.367
0.3685
0.371
0.371
0.3725
0.3715
0.365
0.363
0.366
0.3655
0.3635
0.368
0.371
0.37
0.371
0.373
0.371
0.3675
0.368
0.3695
0.369
0.3655
0.363
0.366
0.3685
0.3645
0.364
0.365
0.362
0.361
0.3675
0.3715
0.367
0.3655
0.364
0.365
0.367
0.365
0.3655
0.364
0.361
0.364
0.3665
0.3675
0.368
0.3705
0.368
0.3645
0.3695
0.366
0.3645
0.369
0.368
0.3665
0.367
0.365
0.3625
0.362
0.3655
0.3705
0.3625
0.3605
0.366
0.363
0.3625
0.367
0.3675
0.364
0.3635
0.364
0.3665
0.367
0.3685
0.3705
0.368
0.3685
0.373
0.367
0.361
0.3625
0.3585
0.358
0.361
0.361
0.366
0.37
0.3705
0.3685
0.3675
0.367
0.366
0.3625
0.3605
0.363
0.3605
0.3575
0.3595
0.3615
0.359
0.359
0.364
0.3635
0.3635
0.368
0.3695
0.3685
0.365
0.3645
0.366
0.3625
0.36
0.365
0.367
0.3655
0.3675
0.3685
0.3695
0.369
0.369
0.3695
0.3685
0.368
0.37
0.3715
0.3695
0.372
0.3775
0.375
0.368
0.3665
0.3635
0.36
0.361
0.3625
0.3645
0.3615
0.363
0.3615
0.3605
0.3665
0.366
0.367
0.3665
0.3635
0.361
0.358
0.364
0.367
0.362
0.363
0.365
0.3635
0.363
0.3655
0.367
0.368
0.364
0.359
0.36
0.3605
0.364
0.3645
0.3575
0.3605
0.3645
0.3635
0.367
0.3615
0.3605
0.3645
0.364
0.366
0.3605
0.36
0.3645
0.3615
0.367
0.366
0.366
0.366
0.361
0.3655
0.3695
0.37
0.3645
0.3665
0.3685
0.36
0.362
0.3665
0.362
0.3615
0.3665
0.3675
0.3695
0.371
0.3665
0.365
0.3665
0.3695
0.3705
0.37
0.3675
0.368
0.3715
0.3735
0.3725
0.374
0.376
0.374
0.3745
0.375
0.3745
0.377
0.375
0.369
0.3705
0.3715
0.369
0.369
0.368
0.3725
0.373
0.3655
0.366
0.371
0.3725
0.3775
0.3825
0.3825
0.3855
0.3895
0.388
0.3835
0.3825
0.3895
0.3955
0.3935
0.391
0.392
0.3915
0.3885
0.3895
0.388
0.3865
0.386
0.3855
0.3885
0.389
0.3855
0.3825
0.384
0.386
0.3895
0.3935
0.3955
0.3985
0.4065
0.412
0.4125
0.4105
0.4045
0.4035
0.4045
0.405
0.4055
0.405
0.4055
0.3995
0.396
0.3955
0.39
0.382
0.3745
0.373
0.372
0.368
0.366
0.364
0.3655
0.364
0.3665
0.372
0.3685
0.364
0.3595
0.3565
0.3605
0.362
0.354
0.353
0.3545
0.353
0.3565
0.36
0.3565
0.3555
0.3575
0.3585
0.36
0.3605
0.3605
0.3595
0.357
0.3515
0.3515
0.355
0.3575
0.3575
0.3565
0.358
0.3585
0.3575
0.3615
0.361
0.357
0.357
0.357
0.3565
0.3545
0.3555
0.3555
0.3545
0.356
0.356
0.3555
0.355
0.355
0.3505
0.3495
0.3545
0.354
0.355
0.352
0.347
0.35
0.351
0.346
0.3505
0.3525
0.352
0.3545
0.353
0.3535
0.357
0.3585
0.3535
0.3535
0.353
0.3525
0.3545
0.352
0.352
0.345
0.339
0.34
0.3425
0.3395
0.3355
0.336
0.3405
0.345
0.3475
0.352
0.353
0.3575
0.366
0.3785
0.3905
0.4005
0.421
0.439
0.462
0.4795
0.4905
0.5025
0.513
0.5335
0.5515
0.5705
0.59
0.6165
0.642
0.6615
0.678
0.69
0.707
0.7155
0.7245
0.74
0.7425
0.74
0.735
0.7185
0.707
0.687
0.655
0.6195
0.5885
0.5685
0.5365
0.501
0.468
0.443
0.4205
0.394
0.379
0.364
0.344
0.3245
0.3085
0.2985
0.2945
0.301
0.3065
0.3035
0.2995
0.295
0.2965
0.312
0.331
0.349
0.367
0.381
0.3955
0.4015
0.4095
0.4195
0.424
0.4275
0.428
0.429
0.432
0.433
0.4285
0.4255
0.4195
0.412
0.408
0.4085
0.409
0.4045
0.401
0.398
0.4
0.4
0.3945
0.3975
0.397
0.3935
0.3895
0.388
0.3885
0.3885
0.388
0.3875
0.389
0.387
0.385
0.3865
0.388
0.3905
0.39
0.39
0.39
0.3915
0.3945
0.3945
0.3955
0.3935
0.39
0.396
0.399
0.392
0.3905
0.3905
0.3935
0.397
0.397
0.3935
0.3875
0.384
0.387
0.3905
0.39
0.3925
0.3925
0.391
0.39
0.3915
0.3945
0.393
0.394
0.398
0.4
0.3985
0.397
0.3955
0.395
0.3985
0.3995
0.398
0.4025
0.4035
0.4065
0.406
0.4
0.4025
0.403
0.4045
0.4075
0.4085
0.405
0.408
0.409
0.402
0.4045
0.409
0.4125
0.4125
0.4115
0.412
0.411
0.4115
0.4145
0.4165
0.417
0.418
0.4145
0.4145
0.422
0.424
0.423
0.4205
0.416
0.4175
0.421
0.4195
0.4175
0.4175
0.42
0.4225
0.4215
0.4235
0.425
0.4255
0.427
0.425
0.4255
0.43
0.4335
0.433
0.4335
0.4365
0.438
0.4395
0.4405
0.441
0.441
0.442
0.445
0.448
0.4485
0.446
0.4535
0.456
0.456
0.4625
0.4615
0.462
0.4685
0.468
0.464
0.4665
0.4705
0.4745
0.479
0.4775
0.476
0.4805
0.4835
0.488
0.4935
0.4955
0.4975
0.5
0.501
0.504
0.51
0.51
0.5095
0.515
0.517
0.517
0.52
0.524
0.528
0.529
0.5285
0.5275
0.5275
0.534
0.535
0.5345
0.534
0.534
0.5365
0.536
0.5385
0.5405
0.5435
0.5455
0.5465
0.55
0.5515
0.5455
0.5415
0.5465
0.554
0.5565
0.5545
0.5535
0.5535
0.5505
0.546
0.546
0.547
0.544
0.5445
0.548
0.5485
0.5485
0.5445
0.5435
0.546
0.544
0.5425
0.54
0.5385
0.537
0.534
0.5305
0.5255
0.522
0.523
0.519
0.512
0.5105
0.5085
0.507
0.4985
0.497
0.495
0.4895
0.4895
0.4825
0.4785
0.479
0.4765
0.47
0.466
0.461
0.453
0.453
0.451
0.446
0.4445
0.442
0.4375
0.434
0.431
0.427
0.426
0.428
0.4245
0.415
0.4115
0.406
0.4015
0.404
0.4
0.396
0.3955
0.392
0.3905
0.3915
0.389
0.388
0.3875
0.381
0.381
0.3805
0.38
0.38
0.375
0.378
0.3825
0.384
0.3855
0.3855
0.3815
0.3755
0.3765
0.3775
0.378
0.378
0.377
0.378
0.379
0.3795
0.3765
0.3745
0.377
0.3785
0.376
0.3735
0.3745
0.3765
0.3745
0.377
0.372
0.3645
0.374
0.377
0.3755
0.3725
0.37
0.373
0.3725
0.376
0.3775
0.373
0.3695
0.368
0.3705
0.3715
0.368
0.3695
0.3725
0.375
0.375
0.3745
0.376
0.376
0.375
0.372
0.3745
0.3785
0.374
0.3705
0.371
0.374
0.3765
0.375
0.3735
0.371
0.3695
0.3715
0.3725
0.372
0.37
0.3705
0.3725
0.3705
0.3675
0.3705
0.373
0.376
0.38
0.377
0.3725
0.3695
0.3695
0.3695
0.372
0.3735
0.3715
0.3745
0.375
0.373
0.3735
0.3725
0.3725
0.3745
0.3745
0.376
0.376
0.3725
0.372
0.373
0.3725
0.3675
0.3675
0.3755
0.3745
0.37
0.3735
0.3745
0.3725
0.374
0.373
0.3725
0.373
0.3715
0.3725
0.375
0.37
0.3655
0.3665
0.3675
0.3715
0.375
0.3735
0.374
0.3755
0.3745
0.376
0.3765
0.373
0.3735
0.3785
0.3795
0.3755
0.372
0.37
0.37
0.373
0.3765
0.3705
0.365
0.3685
0.3675
0.369
0.3715
0.373
0.374
0.372
0.372
0.3725
0.3705
0.3715
0.3725
0.374
0.374
0.373
0.3745
0.375
0.377
0.3775
0.379
0.3785
0.374
0.372
0.368
0.368
0.371
0.37
0.3715
0.371
0.3715
0.373
0.3745
0.375
0.3655
0.364
0.3695
0.3675
0.368
0.3675
0.3675
0.368
0.368
0.3675
0.3685
0.3715
0.369
0.371
0.371
0.3685
0.372
0.373
0.37
0.3695
0.3695
0.37
0.37
0.367
0.367
0.3665
0.366
0.3695
0.373
0.3705
0.3685
0.37
0.365
0.362
0.3625
0.3665
0.3675
0.362
0.3635
0.364
0.3635
0.3675
0.3655
0.3615
0.361
0.3585
0.3565
0.3585
0.3585
0.364
0.3635
0.3585
0.363
0.365
0.3655
0.365
0.364
0.3615
0.361
0.3625
0.363
0.361
0.361
0.364
0.3675
0.368
0.3665
0.3665
0.363
0.36
0.3595
0.3585
0.361
0.363
0.362
0.362
0.3635
0.3655
0.3655
0.364
0.362
0.363
0.3635
0.361
0.36
0.3585
0.3575
0.357
0.356
0.356
0.362
0.363
0.357
0.3555
0.3555
0.355
0.3575
0.36
0.357
0.356
0.3585
0.3585
0.361
0.36
0.357
0.359
0.3595
0.358
0.358
0.357
0.356
0.357
0.354
0.354
0.358
0.3585
0.3605
0.3605
0.3615
0.36
0.3575
0.356
0.3535
0.355
0.3555
0.355
0.3565
0.355
0.3575
0.3575
0.358
0.361
0.357
0.355
0.355
0.3545
0.3555
0.3575
0.3605
0.362
0.359
0.3575
0.354
0.3505
0.353
0.3515
0.352
0.3535
0.355
0.3555
0.3535
0.353
0.354
0.355
0.357
0.356
0.3545
0.355
0.3545
0.3555
0.3525
0.35
0.3505
0.3505
0.351
0.3505
0.3495
0.3495
0.349
0.348
0.3505
0.3505
0.3515
0.3545
0.3545
0.3525
0.354
0.356
0.355
0.3535
0.3515
0.3525
0.3555
0.3565
0.3565
0.353
0.351
0.351
0.353
0.3535
0.355
0.3555
0.355
0.3555
0.354
0.355
0.3545
0.354
0.3565
0.3575
0.3555
0.355
0.355
0.355
0.3605
0.3615
0.357
0.3565
0.356
0.3565
0.358
0.3565
0.354
0.355
0.3565
0.3545
0.3555
0.3515
0.3505
0.352
0.3525
0.3535
0.3535
0.3555
0.355
0.3565
0.359
0.3565
0.358
0.358
0.3565
0.357
0.3565
0.3575
0.36
0.359
0.3575
0.3615
0.363
0.357
0.3545
0.3545
0.3525
0.3525
0.3565
0.3585
0.3565
0.3545
0.352
0.351
0.353
0.354
0.3545
0.354
0.3565
0.3605
0.3605
0.361
0.3635
0.3595
0.3565
0.3555
0.3585
0.363
0.3655
0.366
0.3615
0.3625
0.3655
0.3635
0.3595
0.3565
0.355
0.3575
0.3575
0.3565
0.359
0.363
0.366
0.3625
0.3615
0.366
0.371
0.377
0.378
0.38
0.38
0.38
0.382
0.383
0.387
0.3855
0.3835
0.387
0.3865
0.3805
0.378
0.3775
0.377
0.38
0.379
0.377
0.379
0.376
0.375
0.378
0.3785
0.3805
0.384
0.3895
0.3915
0.3965
0.4045
0.405
0.4055
0.4045
0.4105
0.411
0.401
0.398
0.402
0.403
0.3985
0.3905
0.384
0.386
0.381
0.371
0.3665
0.3595
0.3555
0.3575
0.353
0.3475
0.3485
0.3495
0.3495
0.3495
0.3465
0.351
0.351
0.341
0.338
0.3405
0.3425
0.3405
0.339
0.338
0.3405
0.3445
0.344
0.3455
0.342
0.34
0.343
0.344
0.3455
0.345
0.3435
0.343
0.344
0.341
0.3405
0.347
0.346
0.342
0.341
0.3415
0.34
0.3425
0.344
0.344
0.346
0.3455
0.346
0.343
0.34
0.3405
0.34
0.3395
0.34
0.343
0.3445
0.341
0.34
0.3415
0.342
0.3435
0.344
0.3445
0.3455
0.3405
0.34
0.343
0.339
0.3355
0.3355
0.3355
0.3345
0.336
0.3355
0.334
0.3355
0.336
0.336
0.3365
0.338
0.336
0.33
0.325
0.3235
0.3245
0.323
0.324
0.3285
0.3285
0.3295
0.3355
0.342
0.3495
0.3535
0.3605
0.3775
0.3905
0.4065
0.43
0.4445
0.4615
0.477
0.488
0.5035
0.519
0.5365
0.551
0.5715
0.604
0.628
0.6485
0.6685
0.6855
0.7055
0.7195
0.7285
0.7465
0.7615
0.7565
0.748
0.741
0.728
0.7125
0.679
0.6405
0.6125
0.587
0.558
0.521
0.488
0.46
0.435
0.4065
0.3845
0.365
0.338
0.321
0.298
0.2785
0.28
0.2805
0.28
0.2845
0.2885
0.2845
0.286
0.3025
0.32
0.336
0.353
0.369
0.3755
0.381
0.395
0.404
0.408
0.419
0.4255
0.424
0.4195
0.416
0.4165
0.411
0.4035
0.4005
0.397
0.3915
0.389
0.388
0.387
0.386
0.3825
0.3825
0.3825
0.381
0.38
0.3815
0.377
0.37
0.3705
0.371
0.3705
0.3715
0.374
0.3715
0.37
0.3725
0.3715
0.3725
0.375
0.374
0.3715
0.3715
0.376
0.3765
0.371
0.3725
0.3775
0.379
0.3785
0.3785
0.3755
0.3735
0.3725
0.374
0.3745
0.375
0.3765
0.379
0.381
0.376
0.377
0.378
0.375
0.376
0.3755
0.3745
0.379
0.381
0.3775
0.377
0.378
0.38
0.3785
0.3795
0.383
0.3825
0.3815
0.381
0.382
0.382
0.383
0.3865
0.385
0.384
0.386
0.385
0.384
0.383
0.382
0.382
0.381
0.3825
0.386
0.3855
0.3865
0.39
0.392
0.391
0.3895
0.3925
0.3935
0.394
0.3955
0.395
0.393
0.395
0.3965
0.3965
0.399
0.3985
0.397
0.4
0.3985
0.395
0.3985
0.398
0.397
0.3995
0.4025
0.408
0.4125
0.4125
0.4085
0.4095
0.414
0.414
0.416
0.415
0.4145
0.414
0.4175
0.425
0.4235
0.425
0.4275
0.429
0.432
0.4305
0.4335
0.4365
0.4365
0.4405
0.4435
0.442
0.4415
0.4435
0.448
0.4535
0.4555
0.4555
0.4545
0.454
0.4535
0.4585
0.462
0.465
0.467
0.469
0.4715
0.474
0.48
0.4815
0.481
0.4815
0.4835
0.4875
0.49
0.493
0.4955
0.4935
0.4925
0.4985
0.5075
0.5085
0.5035
0.509
0.5165
0.5155
0.5125
0.5125
0.5155
0.515
0.519
0.524
0.524
0.524
0.523
0.525
0.528
0.5285
0.531
0.531
0.532
0.536
0.5335
0.5335
0.532
0.5275
0.531
0.531
0.531
0.531
0.53
0.5305
0.5315
0.5295
0.528
0.53
0.527
0.5265
0.526
0.524
0.5235
0.5235
0.5235
0.5205
0.516
0.5115
0.5125
0.512
0.51
0.5055
0.5005
0.498
0.494
0.493
0.49
0.4885
0.4855
0.483
0.48
0.473
0.469
0.4645
0.461
0.454
0.449
0.448
0.445
0.4405
0.4355
0.4285
0.425
0.4265
0.4255
0.425
0.4205
0.4135
0.407
0.4065
0.409
0.4055
0.3995
0.3945
0.3935
0.3895
0.385
0.384
0.3795
0.376
0.3735
0.375
0.3755
0.3715
0.3695
0.3665
0.368
0.3685
0.3645
0.364
0.3635
0.361
0.359
0.357
0.3555
0.357
0.358
0.3565
0.3545
0.357
0.3565
0.355
0.356
0.3555
0.355
0.353
0.3525
0.352
0.349
0.3475
0.3525
0.354
0.3525
0.3525
0.3515
0.3505
0.3475
0.347
0.3465
0.347
0.347
0.352
0.351
0.348
0.349
0.3475
0.3475
0.349
0.35
0.3495
0.3475
0.348
0.3525
0.3505
0.3495
0.35
0.35
0.35
0.349
0.3495
0.349
0.3485
0.3455
0.345
0.347
0.3475
0.348
0.3485
0.35
0.35
0.348
0.3485
0.354
0.3515
0.3485
0.3515
0.3475
0.3495
0.352
0.348
0.344
0.3435
0.3465
0.3465
0.35
0.349
0.3515
0.35
0.3425
0.346
0.349
0.3505
0.3475
0.344
0.3465
0.349
0.353
0.3525
0.353
0.3565
0.3535
0.35
0.353
0.354
0.3525
0.354
0.351
0.3505
0.351
0.349
0.3505
0.351
0.352
0.353
0.3485
0.348
0.3495
0.348
0.3465
0.3445
0.347
0.35
0.3485
0.349
0.351
0.3475
0.3475
0.353
0.3545
0.3525
0.3535
0.3565
0.354
0.351
0.3485
0.345
0.347
0.3505
0.354
0.356
0.353
0.351
0.354
0.3555
0.353
0.353
0.355
0.3505
0.3515
0.35
0.3435
0.344
0.3445
0.3455
0.3465
0.35
0.3505
0.3475
0.349
0.3505
0.3495
0.3525
0.3535
0.3495
0.3495
0.3505
0.348
0.347
0.349
0.352
0.35
0.346
0.3465
0.3475
0.3485
0.35
0.3495
0.3455
0.348
0.3515
0.35
0.3495
0.3475
0.3455
0.3445
0.3435
0.3445
0.3445
0.3465
0.3445
0.346
0.349
0.349
0.3465
0.3455
0.345
0.343
0.3445
0.346
0.3485
0.349
0.349
0.355
0.3535
0.345
0.343
0.3455
0.3475
0.3435
0.343
0.346
0.3475
0.346
0.3455
0.348
0.344
0.3425
0.3405
0.3415
0.346
0.3485
0.348
0.346
0.347
0.345
0.3445
0.344
0.3465
0.3495
0.344
0.3425
0.3465
0.347
0.3425
0.341
0.3425
0.3405
0.338
0.339
0.3425
0.341
0.3375
0.335
0.3365
0.34
0.339
0.3405
0.3405
0.3385
0.338
0.3365
0.336
0.3405
0.3415
0.3395
0.3425
0.3405
0.3385
0.3395
0.3375
0.338
0.3375
0.3375
0.3405
0.338
0.3375
0.3435
0.3435
0.3395
0.337
0.3345
0.3315
0.3345
0.3365
0.3365
0.3405
0.3425
0.341
0.3375
0.3365
0.3385
0.3395
0.343
0.3445
0.343
0.3395
0.3415
0.3425
0.3385
0.3395
0.343
0.3445
0.341
0.3425
0.344
0.3405
0.3375
0.3375
0.338
0.338
0.337
0.3375
0.3415
0.3385
0.3375
0.3405
0.342
0.3375
0.336
0.3355
0.3345
0.337
0.3375
0.339
0.34
0.336
0.336
0.3365
0.3325
0.3375
0.3425
0.337
0.3345
0.334
0.3365
0.339
0.339
0.3395
0.3375
0.3375
0.3365
0.3355
0.338
0.338
0.3335
0.3335
0.34
0.3415
0.343
0.3445
0.3395
0.3395
0.339
0.3395
0.339
0.3365
0.3375
0.3395
0.3365
0.336
0.3425
0.342
0.3415
0.3415
0.341
0.341
0.3355
0.3355
0.338
0.338
0.335
0.333
0.3345
0.3335
0.332
0.335
0.333
0.3305
0.3345
0.3355
0.3315
0.326
0.3275
0.33
0.3315
0.331
0.3305
0.3305
0.331
0.336
0.3305
0.329
0.3315
0.3295
0.331
0.33
0.332
0.335
0.3325
0.3335
0.334
0.3315
0.33
0.33
0.334
0.3355
0.33
0.3295
0.3375
0.338
0.3395
0.337
0.335
0.3405
0.3325
0.3295
0.3355
0.336
0.331
0.327
0.331
0.331
0.3305
0.331
0.3305
0.3315
0.334
0.336
0.3335
0.331
0.329
0.329
0.3265
0.3225
0.3265
0.336
0.337
0.3325
0.3305
0.327
0.325
0.3265
0.329
0.327
0.329
0.3355
0.3385
0.3335
0.33
0.3315
0.331
0.338
0.3415
0.336
0.338
0.339
0.335
0.337
0.3415
0.3445
0.341
0.3415
0.344
0.3405
0.3375
0.342
0.3395
0.335
0.3395
0.3405
0.34
0.3375
0.3405
0.344
0.3435
0.344
0.3505
0.3505
0.349
0.3565
0.3575
0.3605
0.3615
0.366
0.3705
0.367
0.3635
0.3595
0.3575
0.358
0.3645
0.3605
0.3565
0.3565
0.355
0.3555
0.353
0.35
0.35
0.3515
0.356
0.3665
0.3705
0.3655
0.371
0.3825
0.3825
0.383
0.3875
0.3875
0.3865
0.3885
0.3855
0.38
0.3835
0.379
0.373
0.378
0.371
0.3585
0.353
0.3495
0.347
0.343
0.334
0.3295
0.327
0.326
0.327
0.324
0.327
0.329
0.328
0.324
0.322
0.3195
0.315
0.3175
0.318
0.3185
0.3185
0.32
0.3255
0.3265
0.3245
0.324
0.328
0.329
0.3255
0.3265
0.325
0.327
0.328
0.3175
0.3195
0.3245
0.325
0.3235
0.3235
0.327
0.3225
0.32
0.3195
0.323
0.3265
0.324
0.3225
0.3235
0.322
0.32
0.3205
0.3185
0.3195
0.321
0.3245
0.3215
0.3185
0.321
0.3215
0.323
0.324
0.3245
0.321
0.321
0.325
0.322
0.3205
0.321
0.3135
0.3145
0.3175
0.319
0.325
0.321
0.317
0.3185
0.3205
0.3205
0.315
0.312
0.315
0.313
0.3075
0.3065
0.3025
0.3055
0.3085
0.3095
0.31
0.31
0.3145
0.315
0.3245
0.333
0.3355
0.35
0.3635
0.3795
0.3995
0.4195
0.4455
0.458
0.47
0.4845
0.492
0.506
0.528
0.547
0.569
0.602
0.6235
0.641
0.658
0.6765
0.692
0.7
0.71
0.724
0.7295
0.717
0.708
0.6965
0.6805
0.655
0.6135
0.576
0.5525
0.527
0.497
0.461
0.4275
0.3995
0.378
0.3605
0.3365
0.3165
0.297
0.275
0.2565
0.252
0.2515
0.255
0.2655
0.2675
0.2665
0.2615
0.2675
0.283
0.301
0.324
0.335
0.344
0.3505
0.357
0.375
0.3865
0.388
0.389
0.3925
0.398
0.4
0.396
0.3935
0.387
0.379
0.372
0.3665
0.369
0.3715
0.368
0.3675
0.363
0.3575
0.363
0.359
0.353
0.3575
0.3545
0.356
0.359
0.3545
0.3555
0.356
0.3515
0.3435
0.342
0.3465
0.3485
0.3495
0.35
0.348
0.346
0.3455
0.348
0.348
0.345
0.348
0.345
0.3485
0.352
0.345
0.347
0.349
0.351
0.3495
0.347
0.3515
0.3535
0.361
0.362
0.3575
0.359
0.357
0.356
0.3565
0.3575
0.356
0.352
0.351
0.358
0.3605
0.3525
0.353
0.359
0.3605
0.3505
0.3435
0.3515
0.3555
0.355
0.358
0.362
0.3615
0.3595
0.358
0.3625
0.3655
0.359
0.36
0.3605
0.36
0.3625
0.3635
0.361
0.3595
0.362
0.365
0.3675
0.366
0.367
0.369
0.3705
0.373
0.366
0.363
0.3695
0.366
0.3665
0.3725
0.3715
0.373
0.375
0.3735
0.376
0.3775
0.3765
0.3755
0.376
0.3805
0.381
0.379
0.379
0.3825
0.3855
0.388
0.3935
0.392
0.387
0.3875
0.39
0.391
0.391
0.394
0.3955
0.4015
0.4065
0.4055
0.408
0.4045
0.401
0.405
0.41
0.414
0.415
0.4165
0.4145
0.4125
0.4185
0.4225
0.424
0.4265
0.4245
0.426
0.4305
0.4335
0.4365
0.4395
0.4425
0.4435
0.4485
0.452
0.449
0.4495
0.453
0.465
0.468
0.4605
0.4635
0.4665
0.463
0.466
0.472
0.4755
0.4775
0.478
0.4835
0.482
0.482
0.4915
0.4945
0.496
0.4965
0.4935
0.4915
0.493
0.5005
0.5075
0.501
0.497
0.501
0.508
0.5155
0.514
0.509
0.511
0.5065
0.5035
0.514
0.5145
0.511
0.511
0.51
0.516
0.5135
0.5085
0.5145
0.5125
0.511
0.5135
0.5125
0.511
0.51
0.5075
0.505
0.503
0.505
0.5025
0.499
0.4965
0.4905
0.488
0.4855
0.4865
0.4885
0.485
0.477
0.475
0.4685
0.459
0.4605
0.4605
0.4565
0.4545
0.451
0.446
0.4435
0.435
0.4315
0.4285
0.4215
0.418
0.4145
0.4135
0.4095
0.4045
0.404
0.4045
0.3955
0.383
0.38
0.38
0.377
0.3785
0.3815
0.3785
0.3705
0.3655
0.367
0.369
0.366
0.3635
0.362
0.359
0.359
0.3525
0.35
0.3515
0.354
0.35
0.345
0.346
0.342
0.3375
0.336
0.3365
0.3375
0.33
0.327
0.335
0.3335
0.33
0.3295
0.331
0.334
0.331
0.3275
0.3265
0.327
0.328
0.3275
0.3235
0.326
0.3315
0.3315
0.329
0.323
0.3205
0.328
0.333
0.331
0.3295
0.3305
0.331
0.3265
0.3295
0.3305
0.3235
0.326
0.327
0.326
0.3285
0.3275
0.3265
0.3255
0.3235
0.3225
0.3245
0.3255
0.319
0.3235
0.333
0.328
0.3255
0.3265
0.326
0.33
0.327
0.3265
0.3275
0.3255
0.327
0.322
0.32
0.3235
0.324
0.3235
0.3175
0.3185
0.3275
0.324
0.323
0.322
0.3225
0.324
0.3235
0.322
0.321
0.326
0.3275
0.327
0.324
0.322
0.323
0.325
0.33
0.3265
0.3235
0.32
0.3195
0.326
0.3265
0.326
0.324
0.3245
0.3205
0.3235
0.3245
0.3225
0.325
0.322
0.3245
0.3245
0.3215
0.326
0.3295
0.3295
0.327
0.3205
0.325
0.328
0.3235
0.3225
0.325
0.331
0.324
0.325
0.33
0.3245
0.325
0.3265
0.322
0.322
0.3235
0.3225
0.3245
0.3215
0.3215
0.319
0.316
0.32
0.322
0.321
0.319
0.3185
0.319
0.3235
0.3245
0.3255
0.3245
0.3215
0.328
0.326
0.3175
0.319
0.3265
0.3305
0.3285
0.326
0.321
0.319
0.321
0.3235
0.328
0.331
0.33
0.329
0.3265
0.3235
0.323
0.32
0.32
0.3225
0.3235
0.324
0.325
0.3255
0.322
0.3255
0.3255
0.322
0.3215
0.3185
0.3245
0.3295
0.322
0.318
0.3265
0.3235
0.3235
0.329
0.326
0.3235
0.319
0.3215
0.322
0.32
0.3195
0.319
0.32
0.3165
0.315
0.3145
0.3175
0.32
0.313
0.3155
0.318
0.3175
0.3175
0.3195
0.317
0.311
0.318
0.3185
0.3145
0.314
0.315
0.3165
0.3205
0.3215
0.322
0.323
0.316
0.3165
0.32
0.3155
0.3165
0.316
0.314
0.311
0.3105
0.312
0.312
0.314
0.3125
0.3135
0.313
0.314
0.318
0.317
0.3135
0.3145
0.314
0.313
0.314
0.31
0.3155
0.3135
0.306
0.3155
0.3195
0.317
0.318
0.3175
0.3155
0.313
0.312
0.3115
0.3135
0.3165
0.3135
0.3135
0.3145
0.313
0.309
0.307
0.3095
0.311
0.313
0.312
0.311
0.311
0.308
0.314
0.315
0.3125
0.312
0.3135
0.319
0.3195
0.3215
0.3235
0.3115
0.311
0.3115
0.31
0.316
0.3105
0.314
0.3135
0.3095
0.3155
0.3095
0.31
0.314
0.311
0.314
0.3145
0.316
0.3195
0.3135
0.3075
0.31
0.3115
0.309
0.309
0.3095
0.307
0.3105
0.3105
0.3105
0.3065
0.3015
0.308
0.3095
0.31
0.3125
0.3075
0.3045
0.313
0.316
0.315
0.3115
0.307
0.309
0.308
0.303
0.3035
0.3085
0.311
0.31
0.3115
0.31
0.306
0.3075
0.308
0.308
0.3035
0.3035
0.3105
0.305
0.3
0.3065
0.3055
0.3045
0.3095
0.309
0.3085
0.307
0.3035
0.3105
0.3125
0.2985
0.299
0.304
0.3035
0.304
0.303
0.3055
0.305
0.3065
0.3075
0.3055
0.3035
0.305
0.304
0.3055
0.3045
0.3025
0.311
0.31
0.304
0.3025
0.303
0.306
0.3105
0.3135
0.3035
0.3035
0.31
0.303
0.3
0.3015
0.301
0.3045
0.3105
0.3095
0.308
0.3085
0.3075
0.3095
0.31
0.3105
0.309
0.3045
0.3065
0.3065
0.3075
0.311
0.306
0.304
0.307
0.3105
0.312
0.309
0.3115
0.3195
0.319
0.3195
0.314
0.31
0.312
0.306
0.3125
0.317
0.313
0.3105
0.307
0.312
0.314
0.3145
0.317
0.3195
0.3265
0.3345
0.336
0.3255
0.3225
0.331
0.3345
0.328
0.3265
0.327
0.3235
0.3255
0.3275
0.332
0.3295
0.324
0.3275
0.328
0.3295
0.331
0.3255
0.323
0.3275
0.3355
0.3425
0.3465
0.3525
0.355
0.353
0.352
0.3475
0.344
0.3445
0.352
0.3515
0.3415
0.336
0.3355
0.3365
0.3395
0.336
0.3285
0.3215
0.309
0.3115
0.308
0.308
0.309
0.301
0.302
0.302
0.3105
0.308
0.298
0.2945
0.293
0.2935
0.2895
0.289
0.289
0.2895
0.2945
0.2975
0.295
0.292
0.2945
0.296
0.298
0.2985
0.295
0.294
0.294
0.2975
0.299
0.298
0.2915
0.2925
0.2945
0.292
0.2965
0.29
0.286
0.2875
0.291
0.296
0.2955
0.2905
0.29
0.2865
0.277
0.2835
0.2865
0.2905
0.293
0.297
0.2925
0.2835
0.293
0.2925
0.2875
0.287
0.2895
0.289
0.289
0.2865
0.287
0.293
0.2885
0.2875
0.285
0.28
0.282
0.284
0.2875
0.2875
0.285
0.2885
0.2885
0.287
0.284
0.283
0.287
0.2925
0.2905
0.28
0.282
0.285
0.284
0.2835
0.279
0.281
0.2885
0.289
0.2875
0.2915
0.304
0.3165
0.3315
0.351
0.369
0.386
0.398
0.4135
0.4295
0.444
0.4635
0.4725
0.4885
0.513
0.537
0.5595
0.58
0.599
0.61
0.627
0.6325
0.6395
0.653
0.6545
0.6485
0.6525
0.6445
0.6205
0.607
0.575
0.5415
0.5135
0.4885
0.46
0.4235
0.3895
0.3605
0.3395
0.3185
0.2995
0.2845
0.2645
0.2425
0.228
0.218
0.2155
0.2185
0.2215
0.23
0.236
0.2325
0.2325
0.2335
0.238
0.264
0.287
0.2975
0.3115
0.3195
0.323
0.3275
0.336
0.345
0.3485
0.352
0.356
0.359
0.361
0.353
0.348
0.348
0.3445
0.344
0.3405
0.338
0.3395
0.3365
0.334
0.3315
0.326
0.3345
0.3365
0.3305
0.33
0.3235
0.3195
0.316
0.32
0.328
0.3275
0.317
0.3175
0.3235
0.3175
0.3165
0.32
0.3195
0.3185
0.321
0.3245
0.326
0.3245
0.325
0.326
0.328
0.3205
0.3185
0.329
0.323
0.3185
0.3245
0.328
0.327
0.3195
0.3185
0.322
0.3235
0.3245
0.3275
0.333
0.3385
0.335
0.334
0.3375
0.336
0.334
0.331
0.3345
0.3365
0.3355
0.327
0.32
0.327
0.328
0.3315
0.33
0.3285
0.3325
0.3355
0.3385
0.3325
0.3385
0.3425
0.344
0.3425
0.338
0.342
0.338
0.337
0.3325
0.33
0.3365
0.336
0.3395
0.3425
0.3445
0.3435
0.343
0.344
0.3415
0.343
0.3405
0.3425
0.347
0.3485
0.35
0.348
0.345
0.345
0.3495
0.3475
0.3465
0.3505
0.3535
0.3515
0.349
0.349
0.3485
0.351
0.3495
0.3565
0.359
0.359
0.366
0.3655
0.362
0.364
0.369
0.368
0.372
0.376
0.372
0.3765
0.3765
0.378
0.3855
0.3865
0.387
0.389
0.383
0.388
0.3925
0.3835
0.387
0.3955
0.398
0.394
0.396
0.403
0.4045
0.404
0.409
0.416
0.4155
0.4225
0.426
0.4225
0.426
0.431
0.4325
0.433
0.4305
0.4315
0.438
0.4385
0.4425
0.4445
0.445
0.4485
0.4505
0.456
0.456
0.4555
0.4575
0.4585
0.4585
0.463
0.467
0.465
0.4665
0.468
0.4695
0.4645
0.458
0.462
0.4705
0.469
0.47
0.476
0.477
0.4785
0.48
0.48
0.4785
0.48
0.479
0.478
0.48
0.481
0.4845
0.4815
0.4785
0.4815
0.4755
0.4685
0.469
0.471
0.469
0.4665
0.469
0.4705
0.4665
0.464
0.467
0.4655
0.4585
0.45
0.446
0.4455
0.442
0.437
0.4305
0.432
0.433
0.4295
0.426
0.4205
0.417
0.412
0.4085
0.4045
0.4
0.396
0.3905
0.388
0.385
0.3825
0.38
0.376
0.374
0.37
0.366
0.363
0.3575
0.352
0.351
0.3465
0.3435
0.347
0.3475
0.342
0.335
0.331
0.3275
0.326
0.3235
0.3215
0.3225
0.3205
0.3195
0.319
0.313
0.3125
0.3145
0.3135
0.314
0.308
0.3015
0.303
0.3035
0.305
0.309
0.302
0.298
0.3045
0.306
0.3035
0.3
0.3005
0.3065
0.3045
0.3005
0.3
0.297
0.2955
0.299
0.3005
0.2955
0.294
0.2945
0.294
0.293
0.2925
0.2945
0.2955
0.298
0.297
0.2935
0.2925
0.2925
0.294
0.2935
0.295
0.299
0.297
0.297
0.304
0.3025
0.296
0.2985
0.301
0.3025
0.3005
0.3
0.3025
0.2985
0.293
0.291
0.2955
0.3005
0.302
0.302
0.3015
0.3015
0.2985
0.2935
0.291
0.2925
0.293
0.2975
0.2965
0.292
0.294
0.2955
0.298
0.3015
0.2985
0.295
0.294
0.2925
0.2965
0.299
0.2955
0.295
0.2945
0.295
0.2915
0.2895
0.295
0.297
0.302
0.3
0.2965
0.298
0.2975
0.299
0.2985
0.2985
0.297
0.297
0.2985
0.3015
0.304
0.297
0.2995
0.3025
0.2985
0.3
0.3005
0.297
0.2955
0.3025
0.313
0.315
0.3225
0.325
0.3395
0.3625
0.3685
0.366
0.3395
0.329
0.3235
0.317
0.3165
0.3005
0.296
0.292
0.2915
0.303
0.2985
0.2815
0.278
0.281
0.278
0.2785
0.28
0.2735
0.273
0.2765
0.2755
0.277
0.282
0.2875
0.2875
0.289
0.288
0.2855
0.286
0.2855
0.286
0.2855
0.2855
0.2865
0.2895
0.2925
0.292
0.29
0.2925
0.2905
0.2895
0.298
0.2995
0.2935
0.2925
0.292
0.292
0.292
0.2945
0.2935
0.2895
0.289
0.2885
0.2895
0.288
0.2915
0.294
0.2895
0.291
0.2895
0.288
0.2885
0.287
0.2875
0.2885
0.2885
0.2905
0.2895
0.2885
0.287
0.2865
0.288
0.2905
0.29
0.288
0.2875
0.287
0.2895
0.2855
0.2855
0.29
0.292
0.29
0.2895
0.291
0.2855
0.282
0.282
0.284
0.285
0.288
0.287
0.281
0.282
0.283
0.285
0.2875
0.2825
0.284
0.2895
0.285
0.282
0.2845
0.288
0.288
0.287
0.286
0.281
0.278
0.28
0.286
0.2875
0.2835
0.284
0.287
0.2875
0.286
0.287
0.288
0.2855
0.282
0.2805
0.2835
0.284
0.278
0.282
0.287
0.2815
0.28
0.28
0.281
0.283
0.28
0.281
0.2795
0.2735
0.276
0.281
0.2825
0.281
0.2805
0.2745
0.2745
0.2795
0.2765
0.279
0.2785
0.2795
0.2805
0.28
0.2815
0.278
0.2805
0.281
0.281
0.2805
0.2795
0.28
0.2825
0.288
0.2835
0.28
0.285
0.285
0.284
0.2835
0.282
0.2805
0.278
0.279
0.2795
0.28
0.282
0.2795
0.279
0.28
0.28
0.2775
0.281
0.282
0.2765
0.2775
0.2765
0.281
0.2825
0.2795
0.2795
0.2795
0.282
0.282
0.282
0.283
0.279
0.2755
0.28
0.2815
0.2825
0.2815
0.278
0.2795
0.2825
0.2895
0.286
0.278
0.2785
0.281
0.283
0.28
0.282
0.2835
0.2805
0.2835
0.2815
0.2825
0.281
0.277
0.2805
0.283
0.2815
0.282
0.288
0.285
0.282
0.282
0.2755
0.2755
0.2815
0.2825
0.2805
0.2815
0.28
0.278
0.282
0.2855
0.284
0.281
0.281
0.2825
0.282
0.278
0.2785
0.2815
0.281
0.282
0.281
0.2805
0.2785
0.28
0.283
0.2835
0.284
0.2905
0.2955
0.2895
0.289
0.2935
0.2925
0.2865
0.2845
0.2885
0.2865
0.2905
0.291
0.29
0.293
0.2905
0.293
0.291
0.288
0.2895
0.288
0.2915
0.296
0.291
0.2875
0.2895
0.2895
0.2905
0.2935
0.2965
0.3025
0.3035
0.3035
0.3075
0.31
0.3145
0.3165
0.316
0.312
0.3145
0.3115
0.3055
0.3095
0.308
0.3075
0.3075
0.312
0.31
0.3055
0.3055
0.3005
0.302
0.3035
0.3085
0.3145
0.3165
0.3215
0.329
0.331
0.3285
0.331
0.332
0.3285
0.3225
0.3165
0.3155
0.3165
0.315
0.3135
0.312
0.3105
0.3075
0.3015
0.294
0.289
0.2805
0.2765
0.2765
0.2715
0.2745
0.2795
0.2825
0.2795
0.2785
0.2825
0.2755
0.268
0.2725
0.274
0.2725
0.2695
0.268
0.271
0.272
0.2685
0.271
0.2745
0.274
0.274
0.271
0.271
0.275
0.279
0.2775
0.274
0.273
0.273
0.2765
0.275
0.2725
0.274
0.274
0.2755
0.277
0.2715
0.272
0.273
0.269
0.2715
0.2705
0.269
0.2705
0.2715
0.273
0.2715
0.2715
0.275
0.2765
0.2745
0.2705
0.2715
0.2745
0.2745
0.273
0.2725
0.274
0.277
0.274
0.2695
0.27
0.273
0.2745
0.2715
0.274
0.2745
0.2715
0.2685
0.269
0.272
0.271
0.267
0.262
0.2625
0.2625
0.262
0.263
0.2575
0.256
0.2595
0.2595
0.2605
0.266
0.268
0.27
0.2755
0.283
0.293
0.304
0.3195
0.3335
0.349
0.3705
0.3885
0.4015
0.4155
0.434
0.4485
0.459
0.48
0.499
0.5225
0.5475
0.569
0.5935
0.6065
0.619
0.632
0.6345
0.646
0.657
0.661
0.659
0.646
0.6325
0.6115
0.583
0.542
0.5045
0.4915
0.464
0.426
0.394
0.3675
0.3485
0.3205
0.2985
0.279
0.2575
0.2395
0.216
0.2055
0.2085
0.2075
0.2115
0.2195
0.22
0.217
0.217
0.222
0.2385
0.259
0.2765
0.29
0.297
0.309
0.318
0.3225
0.3285
0.336
0.3465
0.3505
0.3445
0.3445
0.344
0.3385
0.3365
0.333
0.327
0.3255
0.3255
0.32
0.319
0.317
0.31
0.308
0.309
0.311
0.311
0.3085
0.3085
0.307
0.304
0.3025
0.3035
0.307
0.308
0.3075
0.3045
0.301
0.299
0.2995
0.301
0.303
0.303
0.307
0.311
0.3075
0.308
0.3085
0.3095
0.308
0.304
0.304
0.306
0.3095
0.308
0.3095
0.3115
0.3125
0.315
0.3125
0.316
0.3145
0.3085
0.309
0.311
0.31
0.31
0.3115
0.313
0.3155
0.312
0.3095
0.312
0.314
0.3165
0.316
0.314
0.3135
0.3155
0.312
0.3085
0.3125
0.316
0.3165
0.3195
0.3235
0.321
0.3175
0.319
0.322
0.323
0.3225
0.321
0.3255
0.3235
0.325
0.324
0.3185
0.322
0.3195
0.323
0.3235
0.3225
0.323
0.322
0.3245
0.3235
0.3255
0.3265
0.325
0.328
0.329
0.333
0.334
0.3355
0.341
0.3385
0.338
0.3365
0.3355
0.3395
0.3415
0.3425
0.342
0.343
0.342
0.341
0.3465
0.35
0.3505
0.353
0.35
0.351
0.3525
0.3525
0.356
0.3575
0.3625
0.3635
0.363
0.3645
0.3675
0.37
0.372
0.3745
0.3735
0.3735
0.376
0.3795
0.38
0.3825
0.39
0.3945
0.394
0.397
0.4
0.4015
0.4
0.401
0.406
0.4045
0.4035
0.407
0.413
0.42
0.427
0.4275
0.4255
0.428
0.4275
0.426
0.4255
0.432
0.4385
0.438
0.4385
0.439
0.4445
0.445
0.4465
0.4485
0.4495
0.452
0.451
0.4585
0.4545
0.451
0.457
0.4565
0.455
0.457
0.459
0.4595
0.4645
0.4645
0.462
0.4625
0.465
0.4655
0.463
0.4605
0.4625
0.4635
0.461
0.4575
0.4565
0.4595
0.459
0.4615
0.457
0.454
0.459
0.459
0.456
0.4545
0.454
0.4515
0.4475
0.447
0.444
0.442
0.4415
0.437
0.44
0.4415
0.437
0.4315
0.422
0.418
0.4185
0.4145
0.412
0.4045
0.394
0.3895
0.388
0.3885
0.3845
0.38
0.375
0.3705
0.367
0.362
0.36
0.359
0.3565
0.35
0.349
0.3445
0.3395
0.3395
0.339
0.3375
0.328
0.3255
0.3265
0.321
0.3185
0.315
0.312
0.307
0.3055
0.3075
0.3035
0.302
0.3035
0.302
0.301
0.3015
0.303
0.298
0.2935
0.2955
0.297
0.2955
0.2945
0.296
0.2935
0.2885
0.2875
0.291
0.2885
0.2855
0.288
0.2885
0.289
0.2865
0.286
0.2875
0.2905
0.2865
0.282
0.2835
0.28
0.2825
0.28
0.275
0.276
0.277
0.2775
0.277
0.282
0.2815
0.277
0.277
0.276
0.279
0.282
0.28
0.2775
0.275
0.276
0.2795
0.2785
0.2795
0.282
0.283
0.2815
0.28
0.286
0.2905
0.285
0.2785
0.2785
0.278
0.2795
0.287
0.2875
0.281
0.2815
0.283
0.282
0.2865
0.287
0.2865
0.2865
0.2805
0.278
0.2815
0.281
0.28
0.284
0.2855
0.285
0.2865
0.2865
0.2815
0.2795
0.2805
0.2795
0.278
0.2765
0.278
0.2815
0.2835
0.2845
0.2855
0.282
0.2815
0.29
0.288
0.2845
0.2825
0.2835
0.2895
0.288
0.288
0.284
0.2795
0.2825
0.2875
0.288
0.289
0.287
0.283
0.2855
0.283
0.2835
0.287
0.289
0.2885
0.285
0.283
0.2845
0.2875
0.2885
0.289
0.291
0.2875
0.283
0.2845
0.2875
0.29
0.2875
0.2845
0.2875
0.2865
0.2855
0.2875
0.288
0.2885
0.2915
0.2915
0.287
0.286
0.289
0.2845
0.281
0.284
0.285
0.2865
0.2855
0.285
0.284
0.2865
0.289
0.285
0.286
0.2855
0.285
0.2855
0.2865
0.285
0.2845
0.2815
0.279
0.286
0.287
0.2845
0.284
0.2835
0.282
0.283
0.2855
0.2825
0.283
0.2865
0.2875
0.2845
0.283
0.287
0.2855
0.283
0.285
0.2845
0.282
0.2795
0.279
0.2805
0.2825
0.2855
0.2825
0.2785
0.281
0.2825
0.2835
0.2805
0.28
0.2805
0.2785
0.279
0.2805
0.283
0.284
0.283
0.2815
0.2805
0.284
0.29
0.287
0.2815
0.2775
0.2785
0.282
0.28
0.279
0.282
0.28
0.2765
0.2795
0.28
0.281
0.2815
0.2805
0.2815
0.283
0.283
0.2815
0.281
0.283
0.287
0.283
0.279
0.281
0.2805
0.2785
0.2765
0.275
0.2755
0.274
0.2765
0.2825
0.286
0.2825
0.2815
0.286
0.288
0.289
0.29
0.29
0.282
0.2785
0.2825
0.279
0.278
0.279
0.281
0.2825
0.283
0.282
0.277
0.278
0.2775
0.277
0.281
0.2805
0.2775
0.2775
0.2795
0.2795
0.2745
0.2735
0.2765
0.2785
0.2805
0.28
0.279
0.277
0.2795
0.275
0.2695
0.273
0.276
0.2735
0.272
0.2775
0.277
0.2755
0.2725
0.2725
0.276
0.274
0.2775
0.2805
0.2795
0.2765
0.2745
0.276
0.277
0.2765
0.274
0.2775
0.28
0.278
0.2795
0.281
0.2795
0.2755
0.275
0.2755
0.277
0.278
0.2785
0.279
0.2755
0.2765
0.2815
0.282
0.2805
0.2785
0.2805
0.2795
0.276
0.2755
0.277
0.281
0.2795
0.276
0.28
0.2845
0.281
0.275
0.274
0.2765
0.2765
0.2765
0.276
0.2755
0.275
0.272
0.2755
0.28
0.278
0.2755
0.2725
0.274
0.2815
0.2795
0.2735
0.2755
0.275
0.272
0.278
0.282
0.278
0.2765
0.275
0.2765
0.2825
0.2815
0.28
0.2775
0.2805
0.2835
0.283
0.2855
0.281
0.2765
0.279
0.2795
0.2745
0.2755
0.2765
0.274
0.2775
0.2825
0.2805
0.28
0.2835
0.2805
0.2785
0.2815
0.28
0.278
0.2795
0.28
0.279
0.2745
0.273
0.2745
0.278
0.2795
0.2805
0.282
0.2775
0.278
0.2785
0.2795
0.2785
0.276
0.278
0.2815
0.2855
0.279
0.2785
0.2825
0.2815
0.282
0.2845
0.28
0.2725
0.275
0.278
0.2805
0.279
0.2785
0.2815
0.2815
0.2805
0.282
0.283
0.2815
0.2825
0.2805
0.28
0.2755
0.2745
0.2815
0.2775
0.2765
0.281
0.286
0.289
0.292
0.2955
0.2935
0.292
0.291
0.289
0.2875
0.2895
0.2905
0.288
0.286
0.287
0.289
0.289
0.289
0.2895
0.292
0.297
0.302
0.3055
0.3075
0.3015
0.301
0.306
0.312
0.316
0.313
0.3115
0.3075
0.307
0.3115
0.3095
0.3065
0.3105
0.3125
0.3115
0.3125
0.3135
0.3135
0.3095
0.31
0.3115
0.3125
0.313
0.3165
0.325
0.333
0.3335
0.3295
0.3335
0.3395
0.3395
0.338
0.33
0.324
0.3245
0.3205
0.3175
0.3135
0.312
0.315
0.31
0.302
0.2965
0.2945
0.286
0.2785
0.275
0.275
0.277
0.2745
0.279
0.2855
0.285
0.2785
0.274
0.271
0.268
0.2695
0.269
0.272
0.2715
0.273
0.2765
0.272
0.2725
0.273
0.273
0.2755
0.274
0.272
0.2725
0.275
0.273
0.274
0.276
0.272
0.274
0.2755
0.277
0.2785
0.277
0.273
0.274
0.274
0.27
0.27
0.273
0.276
0.2715
0.27
0.271
0.269
0.2675
0.2665
0.2655
0.265
0.267
0.269
0.268
0.2745
0.276
0.2725
0.271
0.2715
0.2735
0.271
0.271
0.267
0.263
0.263
0.267
0.2715
0.2675
0.2675
0.2705
0.2685
0.2615
0.2615
0.2675
0.264
0.2655
0.2645
0.2605
0.255
0.251
0.253
0.2525
0.2555
0.2605
0.2665
0.2675
0.266
0.2705
0.278
0.2875
0.3
0.312
0.328
0.3465
0.3625
0.3845
0.401
0.417
0.4315
0.444
0.463
0.4785
0.494
0.52
0.548
0.57
0.594
0.612
0.6275
0.6465
0.6585
0.6665
0.6825
0.6885
0.6835
0.6785
0.664
0.6435
0.617
0.58
0.547
0.5255
0.5025
0.464
0.428
0.4
0.374
0.3485
0.321
0.299
0.277
0.256
0.237
0.218
0.2115
0.211
0.215
0.2215
0.2225
0.2205
0.2215
0.229
0.2405
0.259
0.2805
0.2945
0.3015
0.309
0.3185
0.3285
0.3335
0.3405
0.3475
0.35
0.352
0.348
0.3435
0.343
0.338
0.332
0.3275
0.3245
0.325
0.323
0.3175
0.3135
0.315
0.3155
0.312
0.3105
0.311
0.307
0.306
0.3075
0.3095
0.306
0.305
0.3075
0.3045
0.31
0.312
0.307
0.301
0.299
0.3035
0.303
0.3025
0.304
0.3055
0.3095
0.308
0.3055
0.309
0.3115
0.3135
0.31
0.3065
0.3055
0.3065
0.3105
0.31
0.3115
0.311
0.31
0.313
0.315
0.3135
0.3125
0.3105
0.308
0.3065
0.306
0.312
0.3175
0.317
0.313
0.309
0.309
0.306
0.3045
0.3095
0.3105
0.314
0.318
0.3165
0.3155
0.315
0.316
0.315
0.318
0.3225
0.3205
0.321
0.3205
0.32
0.323
0.324
0.3225
0.3215
0.32
0.3195
0.319
0.3225
0.3245
0.3215
0.321
0.32
0.321
0.324
0.326
0.329
0.332
0.332
0.331
0.3255
0.326
0.3315
0.328
0.3255
0.326
0.33
0.3305
0.3315
0.336
0.3335
0.3365
0.341
0.3405
0.3395
0.3395
0.3415
0.344
0.3435
0.3415
0.343
0.3455
0.3475
0.351
0.3565
0.361
0.3605
0.36
0.3635
0.3655
0.361
0.3625
0.3705
0.37
0.3715
0.374
0.3745
0.377
0.377
0.3765
0.3805
0.3875
0.389
0.3935
0.399
0.3945
0.394
0.397
0.3965
0.397
0.397
0.398
0.402
0.4095
0.416
0.4135
0.411
0.4205
0.425
0.421
0.4195
0.423
0.4265
0.428
0.4295
0.433
0.436
0.4405
0.445
0.443
0.4445
0.446
0.4465
0.451
0.453
0.453
0.453
0.4525
0.4535
0.4575
0.46
0.464
0.466
0.463
0.46
0.4585
0.46
0.4645
0.467
0.471
0.47
0.4665
0.4705
0.4645
0.462
0.4665
0.467
0.4655
0.4615
0.463
0.4645
0.464
0.4675
0.4675
0.467
0.467
0.458
0.4565
0.4555
0.4485
0.4455
0.445
0.447
0.4435
0.44
0.437
0.4325
0.4315
0.427
0.4245
0.425
0.4245
0.4215
0.4135
0.406
0.401
0.3955
0.392
0.389
0.3865
0.381
0.3735
0.3725
0.372
0.3695
0.3635
0.36
0.3555
0.3515
0.3505
0.346
0.341
0.337
0.337
0.336
0.3345
0.329
0.3225
0.326
0.3265
0.3195
0.318
0.3165
0.31
0.309
0.305
0.299
0.3005
0.301
0.3005
0.301
0.3045
0.301
0.2925
0.292
0.293
0.2935
0.2925
0.295
0.293
0.2965
0.302
0.288
0.2885
0.294
0.2915
0.2945
0.2895
0.2875
0.286
0.28
0.282
0.2835
0.282
0.285
0.288
0.286
0.2835
0.284
0.2845
0.283
0.2825
0.283
0.281
0.2815
0.285
0.2855
0.2865
0.287
0.287
0.2875
0.285
0.2885
0.29
0.286
0.2845
0.2845
0.287
0.2845
0.281
0.2805
0.2865
0.287
0.282
0.2825
0.285
0.288
0.284
0.2825
0.2825
0.279
0.2785
0.2785
0.2775
0.2805
0.2815
0.2805
0.284
0.286
0.2855
0.2825
0.2845
0.2885
0.2935
0.295
0.2895
0.2875
0.2845
0.2895
0.291
0.2855
0.289
0.2925
0.289
0.2905
0.2945
0.293
0.296
0.2915
0.2865
0.287
0.287
0.2855
0.2785
0.2805
0.287
0.286
0.287
0.2855
0.282
0.2835
0.287
0.2895
0.2885
0.2855
0.2845
0.283
0.283
0.286
0.29
0.2885
0.286
0.288
0.287
0.2875
0.2865
0.289
0.288
0.285
0.288
0.2865
0.2875
0.2885
0.287
0.285
0.2825
0.2835
0.284
0.283
0.286
0.289
0.2865
0.2835
0.285
0.288
0.2875
0.29
0.2855
0.276
0.2785
0.2835
0.2895
0.291
0.2835
0.2845
0.2885
0.2905
0.284
0.279
0.2825
0.282
0.2845
0.292
0.2955
0.2935
0.2925
0.292
0.2935
0.2895
0.2875
0.2885
0.283
0.286
0.2905
0.2875
0.286
0.284
0.2815
0.2785
0.276
0.2815
0.289
0.29
0.2925
0.291
0.285
0.2865
0.288
0.284
0.2795
0.279
0.2835
0.2805
0.274
0.28
0.282
0.2835
0.284
0.2805
0.2795
0.284
0.2865
0.2815
0.283
0.2815
0.282
0.284
0.2825
0.286
0.2805
0.2795
0.283
0.278
0.2755
0.2775
0.279
0.28
0.279
0.276
0.2785
0.2805
0.2855
0.2845
0.278
0.282
0.283
0.28
0.2785
0.281
0.2775
0.2765
0.277
0.2765
0.279
0.2815
0.283
0.281
0.276
0.2755
0.279
0.275
0.27
0.2715
0.2745
0.274
0.278
0.2805
0.2775
0.2785
0.277
0.275
0.2755
0.2765
0.2765
0.275
0.276
0.278
0.28
0.278
0.275
0.2715
0.273
0.2775
0.2775
0.2785
0.277
0.2745
0.273
0.273
0.279
0.2805
0.2775
0.2745
0.275
0.2695
0.2645
0.266
0.267
0.2705
0.2745
0.275
0.273
0.277
0.278
0.28
0.28
0.276
0.279
0.2755
0.272
0.275
0.2805
0.28
0.2765
0.2765
0.275
0.2775
0.2785
0.274
0.273
0.2745
0.2725
0.2715
0.279
0.2785
0.2705
0.276
0.279
0.2745
0.2745
0.2745
0.267
0.2645
0.2705
0.2725
0.2725
0.274
0.2765
0.2785
0.2775
0.275
0.273
0.2695
0.271
0.272
0.273
0.273
0.269
0.27
0.2745
0.277
0.276
0.276
0.2795
0.2825
0.28
0.277
0.2735
0.273
0.274
0.274
0.2755
0.2765
0.276
0.278
0.281
0.2785
0.2755
0.277
0.28
0.2765
0.274
0.2745
0.274
0.2725
0.277
0.277
0.272
0.276
0.278
0.275
0.274
0.277
0.2765
0.277
0.279
0.2855
0.2825
0.2785
0.284
0.2795
0.2785
0.2825
0.282
0.277
0.2765
0.277
0.2785
0.282
0.2785
0.2735
0.274
0.2775
0.277
0.2805
0.2845
0.2845
0.288
0.2855
0.289
0.295
0.293
0.2905
0.2865
0.2855
0.2845
0.29
0.294
0.287
0.279
0.2715
0.271
0.273
0.271
0.2715
0.2725
0.274
0.2765
0.2795
0.28
0.2765
0.28
0.2875
0.2875
0.2855
0.288
0.283
0.277
0.2795
0.28
0.281
0.2865
0.287
0.282
0.2845
0.289
0.281
0.28
0.2815
0.274
0.279
0.2855
0.2825
0.283
0.2845
0.281
0.283
0.2875
0.2865
0.2885
0.282
0.289
0.299
0.2985
0.3055
0.308
0.3045
0.301
0.306
0.3085
0.31
0.308
0.309
0.313
0.311
0.314
0.3025
0.3025
0.311
0.3035
0.3065
0.3105
0.309
0.305
0.3015
0.3095
0.315
0.31
0.3105
0.317
0.3255
0.3295
0.3285
0.33
0.33
0.327
0.327
0.3285
0.3275
0.3255
0.321
0.3135
0.3075
0.309
0.304
0.299
0.2945
0.284
0.2795
0.281
0.2745
0.2665
0.2745
0.2785
0.2815
0.2835
0.278
0.273
0.2695
0.27
0.271
0.2705
0.268
0.2655
0.268
0.275
0.2705
0.267
0.271
0.272
0.27
0.271
0.275
0.2755
0.278
0.2735
0.2725
0.27
0.266
0.272
0.274
0.273
0.273
0.2745
0.276
0.2765
0.272
0.2645
0.268
0.275
0.274
0.273
0.2695
0.2705
0.273
0.272
0.2735
0.272
0.271
0.2705
0.269
0.269
0.272
0.2735
0.273
0.278
0.2785
0.269
0.2695
0.275
0.27
0.2725
0.2725
0.267
0.2715
0.2745
0.276
0.269
0.264
0.2685
0.2655
0.263
0.262
0.2635
0.263
0.2615
0.261
0.261
0.2625
0.2565
0.253
0.2535
0.2565
0.2605
0.2655
0.267
0.262
0.2645
0.277
0.29
0.3015
0.3125
0.3315
0.348
0.359
0.3895
0.4085
0.412
0.429
0.444
0.46
0.4775
0.496
0.518
0.543
0.564
0.584
0.6045
0.614
0.6255
0.6335
0.643
0.655
0.6565
0.651
0.642
0.627
0.6105
0.5885
0.5515
0.513
0.4905
0.475
0.4365
0.3975
0.3635
0.341
0.322
0.2965
0.2785
0.259
0.244
0.23
0.2115
0.199
0.204
0.211
0.2155
0.2205
0.214
0.2095
0.2185
0.2275
0.235
0.2535
0.2765
0.2895
0.3
0.3105
0.3165
0.3255
0.3345
0.3375
0.34
0.3425
0.344
0.345
0.3455
0.338
0.329
0.3305
0.3305
0.328
0.3195
0.317
0.321
0.318
0.3135
0.309
0.3065
0.306
0.309
0.3135
0.3145
0.31
0.307
0.306
0.3005
0.306
0.3065
0.3065
0.3155
0.3085
0.3065
0.3085
0.3035
0.3035
0.3085
0.3115
0.31
0.311
0.312
0.306
0.309
0.316
0.313
0.3075
0.308
0.3135
0.312
0.3095
0.311
0.31
0.311
0.317
0.32
0.317
0.3165
0.3135
0.3105
0.3175
0.3205
0.321
0.3175
0.315
0.3225
0.3175
0.3115
0.312
0.317
0.3185
0.309
0.315
0.3185
0.313
0.3125
0.3145
0.323
0.324
0.3195
0.318
0.317
0.3195
0.32
0.3215
0.327
0.327
0.325
0.3285
0.33
0.328
0.3255
0.323
0.3275
0.3275
0.325
0.326
0.3255
0.322
0.325
0.3275
0.328
0.3335
0.3315
0.329
0.3305
0.336
0.34
0.3455
0.3415
0.3345
0.336
0.336
0.3425
0.3415
0.343
0.347
0.345
0.3485
0.35
0.3535
0.3525
0.35
0.3535
0.3545
0.3605
0.36
0.353
0.3555
0.3625
0.366
0.369
0.369
0.368
0.3685
0.372
0.3725
0.371
0.3775
0.3795
0.381
0.3855
0.3905
0.392
0.389
0.388
0.3915
0.399
0.3965
0.398
0.402
0.406
0.411
0.412
0.4145
0.409
0.409
0.413
0.42
0.418
0.4185
0.429
0.425
0.432
0.441
0.44
0.442
0.4405
0.4455
0.4475
0.444
0.443
0.4415
0.4465
0.4505
0.449
0.4545
0.4605
0.463
0.4655
0.47
0.468
0.467
0.4735
0.4705
0.467
0.4715
0.472
0.464
0.4695
0.481
0.479
0.475
0.471
0.47
0.4695
0.472
0.477
0.474
0.469
0.4695
0.475
0.4725
0.4705
0.469
0.465
0.468
0.4685
0.4695
0.469
0.4625
0.46
0.4565
0.454
0.4525
0.4535
0.4535
0.4505
0.4465
0.4395
0.437
0.439
0.439
0.4305
0.4215
0.4185
0.4155
0.414
0.411
0.4025
0.3965
0.396
0.393
0.3885
0.3905
0.3875
0.373
0.3725
0.37
0.36
0.36
0.36
0.354
0.349
0.3485
0.3435
0.337
0.336
0.341
0.3335
0.327
0.332
0.331
0.321
0.322
0.3265
0.3205
0.322
0.3175
0.3125
0.306
0.3005
0.3055
0.304
0.3015
0.3015
0.3085
0.3015
0.2885
0.292
0.294
0.295
0.297
0.296
0.299
0.297
0.2955
0.294
0.292
0.299
0.2975
0.2955
0.292
0.2885
0.295
0.294
0.2895
0.2875
0.292
0.2985
0.2945
0.291
0.294
0.2905
0.2905
0.2935
0.2945
0.2945
0.2935
0.293
0.2875
0.289
0.2915
0.2865
0.288
0.2885
0.286
0.292
0.2945
0.301
0.302
0.292
0.2945
0.2875
0.284
0.2865
0.288
0.2875
0.2865
0.292
0.292
0.29
0.2815
0.284
0.291
0.2875
0.284
0.285
0.283
0.286
0.288
0.2855
0.2915
0.2895
0.2895
0.289
0.2875
0.2865
0.2885
0.2915
0.2905
0.288
0.283
0.2845
0.289
0.2885
0.288
0.295
0.295
0.285
0.291
0.3005
0.2955
0.2885
0.287
0.2885
0.2885
0.292
0.2885
0.285
0.286
0.2935
0.3055
0.295
0.283
0.2875
0.295
0.2895
0.2875
0.297
0.292
0.289
0.2925
0.2915
0.291
0.291
0.2895
0.289
0.2945
0.297
0.2965
0.3015
0.3025
0.3
0.298
0.297
0.299
0.298
0.2995
0.2995
0.298
0.2925
0.287
0.2925
0.289
0.283
0.2905
0.298
0.2995
0.2945
0.2985
0.3
0.295
0.303
0.3025
0.298
0.302
0.2985
0.2925
0.292
0.299
0.296
0.2905
0.297
0.297
0.296
0.294
0.2885
0.2905
0.2935
0.293
0.2885
0.2895
0.292
0.294
0.2945
0.2965
0.301
0.2975
0.2975
0.297
0.2915
0.293
0.2965
0.2985
0.3035
0.3015
0.2995
0.301
0.297
0.2925
0.2955
0.299
0.2925
0.2925
0.297
0.296
0.295
0.296
0.2995
0.2935
0.2905
0.298
0.2965
0.2965
0.298
0.2995
0.3005
0.299
0.297
0.2945
0.2935
0.291
0.2925
0.297
0.3
0.2975
0.292
0.2875
0.29
0.295
0.2995
0.3015
0.298
0.2915
0.288
0.295
0.298
0.296
0.2925
0.2945
0.2945
0.2985
0.297
0.29
0.291
0.288
0.295
0.299
0.295
0.2925
0.295
0.2925
0.29
0.2925
0.289
0.2885
0.289
0.2945
0.293
0.287
0.295
0.295
0.2895
0.2875
0.29
0.2935
0.293
0.2945
0.295
0.2985
0.297
0.2935
0.2915
0.287
0.289
0.292
0.2925
0.291
0.295
0.294
0.2895
0.2945
0.299
0.3015
0.2945
0.2915
0.2905
0.2835
0.2815
0.2905
0.2985
0.296
0.294
0.2955
0.2925
0.2875
0.2885
0.29
0.2925
0.294
0.2905
0.2895
0.2885
0.293
0.2995
0.3
0.2985
0.297
0.297
0.292
0.2895
0.2905
0.2925
0.294
0.297
0.298
0.2965
0.294
0.2925
0.294
0.294
0.2975
0.301
0.294
0.2875
0.2905
0.29
0.292
0.294
0.2885
0.288
0.285
0.286
0.295
0.2935
0.2865
0.286
0.2895
0.292
0.291
0.2905
0.288
0.289
0.294
0.294
0.292
0.2935
0.2975
0.294
0.2905
0.2905
0.291
0.289
0.288
0.2895
0.2895
0.2915
0.289
0.2925
0.2925
0.2895
0.2905
0.2885
0.2885
0.2875
0.287
0.2875
0.2915
0.293
0.292
0.2965
0.2965
0.293
0.2955
0.299
0.2975
0.291
0.292
0.298
0.3005
0.3015
0.299
0.2955
0.2935
0.293
0.293
0.2955
0.2935
0.292
0.2985
0.3015
0.2995
0.3005
0.302
0.302
0.3005
0.2995
0.298
0.2975
0.3025
0.3
0.302
0.3055
0.2995
0.3
0.3015
0.307
0.311
0.3125
0.317
0.3165
0.314
0.3145
0.3175
0.3185
0.315
0.318
0.3245
0.3205
0.32
0.3195
0.3175
0.3175
0.3175
0.3175
0.3175
0.314
0.3125
0.313
0.311
0.311
0.3145
0.319
0.32
0.3255
0.332
0.335
0.339
0.3415
0.3415
0.3345
0.331
0.3335
0.332
0.3325
0.3375
0.332
0.3285
0.3265
0.317
0.3135
0.311
0.3085
0.302
0.292
0.288
0.2875
0.284
0.2885
0.294
0.288
0.2905
0.294
0.2895
0.288
0.285
0.2785
0.274
0.2735
0.276
0.28
0.2825
0.2835
0.2825
0.28
0.286
0.2895
0.281
0.2785
0.2785
0.279
0.2795
0.279
0.2805
0.2815
0.285
0.2855
0.2865
0.2895
0.2845
0.285
0.2845
0.2825
0.2875
0.2855
0.2855
0.2855
0.2795
0.2775
0.278
0.279
0.2825
0.2835
0.2845
0.2855
0.284
0.286
0.284
0.279
0.277
0.274
0.2765
0.277
0.2765
0.282
0.283
0.281
0.28
0.2845
0.2835
0.2805
0.2825
0.2825
0.2855
0.285
0.282
0.2815
0.282
0.2815
0.277
0.275
0.2775
0.2785
0.272
0.2675
0.268
0.2695
0.274
0.279
0.279
0.274
0.2765
0.282
0.2825
0.29
0.2985
0.3075
0.322
0.34
0.3555
0.3705
0.392
0.405
0.4185
0.4375
0.449
0.46
0.4765
0.498
0.522
0.546
0.57
0.5895
0.605
0.6155
0.6215
0.6335
0.6435
0.6505
0.646
0.6415
0.6345
0.6205
0.6065
0.5765
0.5435
0.5115
0.491
0.466
0.4315
0.401
0.371
0.352
0.3315
0.3085
0.289
0.271
0.253
0.2385
0.231
0.225
0.2235
0.226
0.2325
0.236
0.2355
0.239
0.238
0.2445
0.2615
0.2775
0.2995
0.314
0.3155
0.322
0.332
0.3425
0.3495
0.3525
0.354
0.354
0.3525
0.3525
0.351
0.3465
0.3425
0.339
0.3375
0.338
0.336
0.3345
0.3335
0.332
0.333
0.3265
0.3225
0.329
0.3285
0.327
0.3265
0.3265
0.327
0.329
0.329
0.3235
0.321
0.3225
0.3215
0.3205
0.3225
0.318
0.318
0.3205
0.3175
0.32
0.323
0.324
0.3245
0.327
0.331
0.331
0.3265
0.3295
0.3285
0.3285
0.3345
0.327
0.3255
0.326
0.3245
0.3285
0.327
0.3275
0.3305
0.3255
0.326
0.333
0.329
0.33
0.3335
0.3315
0.3325
0.3315
0.329
0.3285
0.329
0.331
0.3335
0.3355
0.335
0.332
0.3325
0.334
0.335
0.331
0.332
0.336
0.337
0.339
0.3395
0.3395
0.336
0.336
0.338
0.34
0.3395
0.3415
0.343
0.3435
0.345
0.3415
0.34
0.342
0.3455
0.345
0.343
0.347
0.352
0.3505
0.3495
0.3535
0.3545
0.355
0.3495
0.354
0.361
0.3545
0.355
0.355
0.3505
0.3555
0.3585
0.3575
0.361
0.3655
0.369
0.3655
0.3605
0.3645
0.367
0.369
0.3745
0.3825
0.3875
0.379
0.375
0.382
0.3795
0.379
0.3885
0.391
0.391
0.39
0.392
0.3915
0.393
0.3985
0.398
0.4
0.4035
0.4035
0.403
0.4025
0.405
0.41
0.4125
0.418
0.4215
0.424
0.4275
0.429
0.4295
0.4285
0.4305
0.435
0.4365
0.4435
0.4495
0.452
0.4505
0.4455
0.4475
0.451
0.4515
0.455
0.4575
0.459
0.4675
0.468
0.4665
0.469
0.472
0.4755
0.477
0.479
0.479
0.4805
0.487
0.4885
0.484
0.483
0.481
0.4825
0.487
0.488
0.4915
0.4905
0.488
0.4875
0.487
0.4905
0.4905
0.4875
0.4885
0.4865
0.4875
0.4915
0.4895
0.4875
0.4885
0.4885
0.4865
0.483
0.481
0.4865
0.486
0.478
0.477
0.4755
0.4745
0.472
0.4675
0.4655
0.4635
0.4595
0.46
0.4615
0.4505
0.441
0.4415
0.438
0.432
0.4295
0.428
0.426
0.4185
0.412
0.4135
0.4075
0.4015
0.4005
0.3955
0.3925
0.39
0.3865
0.3825
0.3785
0.378
0.376
0.37
0.366
0.362
0.3595
0.354
0.351
0.3555
0.353
0.347
0.3445
0.335
0.331
0.333
0.33
0.335
0.3335
0.326
0.3235
0.329
0.3285
0.32
0.3235
0.3255
0.3265
0.3215
0.32
0.321
0.3195
0.32
0.3185
0.32
0.319
0.319
0.3165
0.3145
0.3175
0.32
0.321
0.313
0.3085
0.312
0.311
0.3115
0.312
0.3145
0.3165
0.31
0.3075
0.31
0.3115
0.317
0.315
0.311
0.3125
0.3165
0.3195
0.319
0.3175
0.314
0.312
0.3145
0.3195
0.317
0.313
0.3155
0.3155
0.3145
0.3165
0.3135
0.3085
0.311
0.315
0.314
0.312
0.3105
0.3095
0.312
0.313
0.3115
0.314
0.3135
0.31
0.3155
0.3175
0.3145
0.315
0.3165
0.32
0.312
0.311
0.3135
0.3095
0.31
0.311
0.3165
0.3105
0.313
0.32
0.32
0.3195
0.315
0.317
0.315
0.311
0.3155
0.3185
0.3115
0.3135
0.314
0.3115
0.316
0.3165
0.3185
0.32
0.314
0.3115
0.3165
0.3155
0.313
0.318
0.321
0.319
0.318
0.3215
0.3195
0.316
0.319
0.319
0.3205
0.319
0.3175
0.3185
0.3155
0.314
0.3165
0.32
0.3155
0.3175
0.324
0.322
0.3195
0.32
0.3225
0.3185
0.3195
0.327
0.325
0.322
0.326
0.319
0.315
0.32
0.318
0.3175
0.3155
0.313
0.31
0.309
0.3145
0.3195
0.317
0.3155
0.317
0.3185
0.3265
0.3255
0.3225
0.3245
0.3225
0.3185
0.315
0.316
0.319
0.318
0.318
0.319
0.3165
0.319
0.322
0.319
0.318
0.3205
0.324
0.3225
0.3215
0.322
0.319
0.32
0.3225
0.3205
0.317
0.3185
0.3205
0.3165
0.3175
0.322
0.326
0.3265
0.322
0.3195
0.3175
0.317
0.3195
0.3205
0.3185
0.316
0.316
0.3185
0.321
0.323
0.324
0.3195
0.3175
0.3245
0.327
0.3195
0.3155
0.314
0.311
0.312
0.3155
0.3145
0.315
0.316
0.3155
0.3175
0.3195
0.323
0.3185
0.315
0.317
0.318
0.3205
0.321
0.321
0.321
0.3185
0.3145
0.316
0.3165
0.317
0.319
0.318
0.3215
0.3205
0.3155
0.3145
0.316
0.318
0.3175
0.319
0.318
0.316
0.3205
0.3225
0.321
0.3215
0.318
0.315
0.312
0.307
0.307
0.308
0.3125
0.309
0.3065
0.3095
0.3075
0.3075
0.3085
0.3095
0.3095
0.3095
0.311
0.3135
0.311
0.31
0.31
0.31
0.3105
0.309
0.311
0.3105
0.3085
0.3065
0.309
0.312
0.308
0.31
0.3115
0.308
0.3095
0.312
0.312
0.312
0.313
0.3145
0.3165
0.3165
0.312
0.31
0.3095
0.308
0.306
0.3085
0.308
0.3055
0.3095
0.306
0.302
0.304
0.3105
0.3105
0.306
0.3065
0.306
0.303
0.3055
0.311
0.3085
0.308
0.3085
0.306
0.3065
0.3075
0.314
0.314
0.309
0.312
0.311
0.31
0.3125
0.314
0.31
0.3055
0.3065
0.3075
0.3105
0.31
0.3085
0.308
0.3045
0.305
0.307
0.306
0.304
0.3085
0.3085
0.3055
0.3105
0.3125
0.3125
0.31
0.31
0.308
0.3045
0.3015
0.3005
0.3045
0.307
0.3085
0.3075
0.307
0.3105
0.3075
0.3045
0.308
0.308
0.3065
0.3085
0.3075
0.3045
0.3035
0.304
0.305
0.308
0.304
0.3025
0.304
0.3025
0.305
0.306
0.3075
0.3075
0.307
0.3065
0.309
0.311
0.3085
0.3135
0.317
0.3105
0.3065
0.3065
0.307
0.313
0.3185
0.3165
0.3145
0.315
0.3145
0.3135
0.3145
0.3155
0.315
0.3125
0.3125
0.3105
0.3115
0.3165
0.314
0.312
0.3135
0.316
0.316
0.315
0.3175
0.3195
0.317
0.3195
0.325
0.327
0.3265
0.328
0.3305
0.3345
0.3405
0.3375
0.335
0.3305
0.3275
0.3305
0.327
0.3285
0.332
0.3325
0.332
0.3385
0.339
0.3305
0.3305
0.329
0.3325
0.3345
0.334
0.3375
0.3375
0.3395
0.3465
0.353
0.354
0.356
0.3545
0.349
0.348
0.347
0.344
0.3435
0.3425
0.34
0.338
0.339
0.3365
0.3265
0.3235
0.3185
0.309
0.3025
0.2995
0.3
0.303
0.3065
0.303
0.3005
0.3015
0.301
0.299
0.291
0.2885
0.2925
0.2885
0.292
0.2955
0.295
0.3005
0.2965
0.2935
0.2975
0.3015
0.297
0.2925
0.295
0.2975
0.299
0.295
0.2935
0.298
0.303
0.302
0.2945
0.2945
0.297
0.2945
0.294
0.296
0.295
0.2945
0.293
0.296
0.3025
0.3
0.2985
0.298
0.297
0.293
0.294
0.293
0.2895
0.2925
0.2905
0.292
0.293
0.2925
0.2945
0.295
0.294
0.2935
0.2965
0.295
0.2925
0.2935
0.2955
0.291
0.2835
0.284
0.291
0.295
0.2915
0.2895
0.2905
0.2925
0.294
0.289
0.289
0.29
0.2835
0.282
0.2785
0.2745
0.2765
0.278
0.28
0.28
0.286
0.2905
0.2915
0.3025
0.3125
0.3235
0.3355
0.353
0.3715
0.3845
0.41
0.4285
0.4345
0.454
0.4715
0.483
0.4985
0.515
0.5415
0.569
0.59
0.611
0.6295
0.6495
0.6655
0.68
0.6905
0.7005
0.7055
0.697
0.6935
0.6785
0.662
0.642
0.599
0.5615
0.5425
0.5195
0.48
0.4455
0.4185
0.3905
0.364
0.3425
0.322
0.2985
0.282
0.2615
0.2395
0.2355
0.2375
0.2395
0.2405
0.2375
0.239
0.24
0.248
0.2625
0.277
0.296
0.311
0.32
0.3265
0.3355
0.35
0.357
0.3635
0.371
0.3715
0.3685
0.364
0.3645
0.3635
0.361
0.3585
0.355
0.3545
0.352
0.3455
0.339
0.3335
0.3305
0.331
0.3295
0.3275
0.3275
0.33
0.3285
0.3275
0.332
0.3295
0.324
0.3235
0.323
0.3225
0.322
0.3225
0.3255
0.3255
0.323
0.3235
0.323
0.321
0.3215
0.3195
0.319
0.3215
0.323
0.328
0.329
0.3265
0.326
0.322
0.322
0.3255
0.3255
0.326
0.3285
0.3255
0.324
0.3285
0.3265
0.325
0.3255
0.3275
0.3275
0.326
0.3295
0.3295
0.33
0.3305
0.3305
0.33
0.3315
0.3305
0.3275
0.329
0.3315
0.334
0.333
0.3315
0.333
0.3335
0.3295
0.3265
0.333
0.334
0.33
0.3315
0.3345
0.336
0.3345
0.3365
0.3385
0.3365
0.3355
0.3355
0.3355
0.337
0.337
0.3395
0.3445
0.346
0.348
0.3445
0.343
0.346
0.3465
0.343
0.3445
0.3485
0.3455
0.348
0.3525
0.3525
0.3495
0.348
0.3535
0.361
0.3625
0.361
0.362
0.362
0.3605
0.364
0.3635
0.36
0.3635
0.365
0.3705
0.376
0.3655
0.3605
0.3665
0.3695
0.3735
0.374
0.3745
0.376
0.3745
0.377
0.3835
0.385
0.3875
0.392
0.3895
0.3925
0.395
0.3895
0.393
0.4025
0.4065
0.403
0.4005
0.405
0.411
0.416
0.4175
0.418
0.4205
0.423
0.424
0.427
0.43
0.4275
0.434
0.441
0.438
0.4365
0.441
0.446
0.449
0.4535
0.4545
0.4475
0.4495
0.4565
0.4575
0.4605
0.4645
0.465
0.465
0.4705
0.469
0.468
0.4705
0.4725
0.478
0.4785
0.4785
0.475
0.4765
0.481
0.4845
0.484
0.4795
0.481
0.483
0.4835
0.48
0.479
0.475
0.4745
0.479
0.478
0.481
0.48
0.477
0.4805
0.4785
0.481
0.483
0.4725
0.471
0.469
0.469
0.4685
0.46
0.4605
0.4605
0.4605
0.461
0.457
0.4495
0.4455
0.4455
0.443
0.44
0.434
0.4305
0.428
0.4215
0.419
0.4135
0.411
0.4095
0.4015
0.397
0.3955
0.391
0.387
0.3865
0.3825
0.3825
0.375
0.367
0.3645
0.361
0.3575
0.353
0.352
0.3485
0.3495
0.3455
0.3405
0.3405
0.336
0.3355
0.3395
0.3375
0.3285
0.326
0.3225
0.3215
0.322
0.3205
0.3235
0.319
0.3155
0.315
0.316
0.3165
0.3095
0.314
0.317
0.3135
0.313
0.3075
0.308
0.31
0.3095
0.311
0.311
0.3105
0.3115
0.3105
0.3045
0.303
0.303
0.3035
0.3045
0.301
0.301
0.3015
0.3035
0.304
0.306
0.309
0.3075
0.304
0.3005
0.301
0.3035
0.302
0.2985
0.301
0.3025
0.3025
0.3015
0.302
0.302
0.303
0.3065
0.304
0.3035
0.305
0.3025
0.306
0.3055
0.301
0.3015
0.3005
0.3005
0.302
0.3025
0.305
0.306
0.302
0.3
0.298
0.2985
0.3005
0.302
0.3015
0.3005
0.2985
0.295
0.297
0.299
0.3
0.3015
0.3025
0.3015
0.2975
0.2965
0.297
0.2975
0.2985
0.3025
0.305
0.3035
0.3025
0.297
0.297
0.3015
0.3005
0.304
0.305
0.3065
0.3105
0.305
0.305
0.3065
0.301
0.3025
0.306
0.3085
0.3065
0.3025
0.302
0.304
0.3035
0.299
0.301
0.3005
0.2985
0.301
0.3055
0.304
0.299
0.301
0.3015
0.3005
0.301
0.301
0.3015
0.299
0.3005
0.3025
0.3015
0.301
0.302
0.303
0.299
0.295
0.295
0.2965
0.3005
0.303
0.3
0.3015
0.308
0.3115
0.305
0.2985
0.3015
0.2995
0.2985
0.3
0.3015
0.2975
0.296
0.3
0.3
0.3015
0.303
0.303
0.3
0.2975
0.298
0.3015
0.301
0.301
0.2995
0.298
0.3025
0.3005
0.3
0.2995
0.2995
0.3035
0.3015
0.3
0.301
0.301
0.3005
0.298
0.2975
0.2995
0.3
0.2965
0.292
0.2965
0.2985
0.2965
0.2995
0.2965
0.2985
0.3025
0.299
0.2985
0.2975
0.2955
0.292
0.289
0.289
0.2875
0.29
0.293
0.291
0.292
0.2965
0.2945
0.292
0.2905
0.29
0.291
0.2955
0.295
0.293
0.2955
0.295
0.295
0.297
0.296
0.2905
0.2925
0.296
0.2985
0.2975
0.2965
0.2965
0.291
0.295
0.294
0.292
0.2955
0.2935
0.2925
0.292
0.2955
0.2995
0.296
0.2935
0.295
0.2955
0.2935
0.296
0.3
0.2965
0.293
0.294
0.2935
0.294
0.293
0.2865
0.2865
0.293
0.296
0.294
0.288
0.287
0.2885
0.287
0.2875
0.2875
0.2915
0.2905
0.2875
0.2885
0.29
0.2945
0.294
0.2885
0.2865
0.289
0.289
0.2885
0.2895
0.2905
0.2895
0.291
0.292
0.2885
0.288
0.288
0.2895
0.2875
0.286
0.2845
0.2895
0.2945
0.2885
0.2895
0.289
0.287
0.2905
0.2935
0.2885
0.2845
0.289
0.291
0.2875
0.2865
0.2845
0.285
0.286
0.285
0.2885
0.2865
0.2855
0.2895
0.2915
0.293
0.2925
0.2935
0.296
0.2905
0.2925
0.292
0.289
0.2935
0.289
0.2855
0.2865
0.285
0.2865
0.2885
0.285
0.288
0.2885
0.2905
0.2905
0.2855
0.2855
0.2845
0.286
0.2835
0.2825
0.29
0.289
0.2835
0.2825
0.2845
0.285
0.284
0.282
0.2825
0.2825
0.279
0.281
0.2835
0.2865
0.2885
0.2845
0.2845
0.2885
0.287
0.285
0.2865
0.2875
0.285
0.285
0.2845
0.2855
0.2885
0.285
0.2845
0.2865
0.2865
0.2865
0.2865
0.291
0.29
0.285
0.2815
0.282
0.288
0.2895
0.2905
0.295
0.286
0.2825
0.2885
0.286
0.2835
0.282
0.283
0.288
0.2875
0.286
0.2865
0.2865
0.284
0.284
0.286
0.2845
0.2865
0.2835
0.2835
0.2885
0.2875
0.287
0.286
0.286
0.2835
0.2845
0.285
0.2865
0.2865
0.283
0.2845
0.2835
0.284
0.2865
0.29
0.287
0.281
0.281
0.284
0.2845
0.285
0.2865
0.285
0.285
0.2835
0.2845
0.289
0.2915
0.289
0.285
0.2875
0.2875
0.288
0.2905
0.2925
0.2945
0.2965
0.2985
0.295
0.2905
0.2885
0.291
0.2935
0.295
0.2935
0.2895
0.2885
0.2905
0.291
0.2895
0.291
0.2915
0.2885
0.287
0.2875
0.2875
0.293
0.3005
0.304
0.3055
0.308
0.311
0.309
0.315
0.3225
0.321
0.3225
0.318
0.31
0.308
0.308
0.3085
0.311
0.315
0.3125
0.3105
0.3105
0.3085
0.3105
0.311
0.31
0.3095
0.315
0.3215
0.3275
0.3325
0.3325
0.3355
0.337
0.3365
0.3365
0.333
0.331
0.334
0.334
0.326
0.3225
0.3225
0.322
0.321
0.313
0.3065
0.302
0.2925
0.285
0.285
0.285
0.2825
0.282
0.2885
0.2905
0.286
0.287
0.283
0.277
0.2775
0.2785
0.2795
0.278
0.2785
0.276
0.2745
0.277
0.2775
0.2785
0.2785
0.279
0.2785
0.276
0.276
0.2755
0.2765
0.279
0.28
0.279
0.2805
0.282
0.2775
0.2785
0.2775
0.275
0.274
0.273
0.274
0.2755
0.2775
0.2745
0.272
0.2685
0.268
0.2685
0.27
0.2745
0.274
0.273
0.2755
0.2745
0.2675
0.2635
0.268
0.2705
0.268
0.27
0.273
0.273
0.272
0.2725
0.2755
0.2725
0.2685
0.2675
0.267
0.268
0.2685
0.269
0.267
0.2645
0.2645
0.264
0.2605
0.258
0.2575
0.2575
0.255
0.2495
0.251
0.254
0.2505
0.254
0.2565
0.2555
0.263
0.268
0.2725
0.279
0.2885
0.2995
0.314
0.336
0.3545
0.372
0.392
0.4065
0.4195
0.4395
0.457
0.476
0.489
0.505
0.5375
0.563
0.5845
0.6055
0.625
0.6435
0.6575
0.668
0.677
0.6955
0.6965
0.686
0.6825
0.6665
0.65
0.6155
0.573
0.546
0.525
0.5
0.463
0.428
0.398
0.3725
0.3415
0.3155
0.293
0.2695
0.2525
0.2335
0.213
0.2075
0.213
0.214
0.2185
0.224
0.2215
0.223
0.236
0.25
0.27
0.2875
0.3005
0.31
0.3165
0.3295
0.34
0.3415
0.3475
0.354
0.3575
0.361
0.3575
0.353
0.345
0.341
0.3385
0.337
0.3405
0.336
0.3305
0.325
0.326
0.3235
0.316
0.314
0.3165
0.318
0.315
0.3135
0.316
0.317
0.3145
0.3105
0.3105
0.3125
0.3125
0.312
0.312
0.3095
0.3075
0.3075
0.3125
0.3125
0.313
0.3175
0.314
0.3115
0.311
0.3135
0.3145
0.316
0.3135
0.3105
0.3165
0.3155
0.313
0.3155
0.3135
0.314
0.3215
0.319
0.3145
0.318
0.32
0.319
0.3155
0.3165
0.319
0.3155
0.3155
0.3205
0.3185
0.316
0.32
0.3205
0.3195
0.319
0.317
0.3155
0.317
0.32
0.319
0.321
0.32
0.32
0.3215
0.322
0.3255
0.324
0.3245
0.3275
0.329
0.3265
0.329
0.3325
0.331
0.333
0.3315
0.329
0.327
0.329
0.3345
0.333
0.3305
0.3295
0.3325
0.337
0.336
0.3365
0.339
0.337
0.336
0.339
0.3405
0.34
0.339
0.3415
0.3465
0.349
0.3505
0.3495
0.3485
0.3465
0.3465
0.352
0.351
0.352
0.356
0.354
0.353
0.355
0.3565
0.358
0.36
0.3585
0.3585
0.3645
0.3675
0.367
0.37
0.374
0.3755
0.381
0.38
0.376
0.3805
0.3845
0.3855
0.3835
0.383
0.3905
0.3975
0.3935
0.3935
0.4015
0.4055
0.406
0.4025
0.4065
0.414
0.417
0.4185
0.4255
0.426
0.4205
0.4215
0.4235
0.4285
0.4325
0.438
0.4405
0.442
0.446
0.4465
0.4465
0.4435
0.447
0.4535
0.4575
0.459
0.457
0.4585
0.4555
0.461
0.466
0.465
0.472
0.473
0.472
0.474
0.4685
0.468
0.47
0.469
0.47
0.4705
0.4735
0.4755
0.476
0.472
0.4745
0.478
0.475
0.475
0.477
0.478
0.474
0.476
0.4795
0.4795
0.477
0.474
0.4745
0.4715
0.4735
0.471
0.466
0.468
0.4675
0.465
0.463
0.4595
0.4555
0.4515
0.4475
0.441
0.4365
0.4395
0.438
0.437
0.433
0.4245
0.4215
0.4145
0.4165
0.417
0.4085
0.4035
0.4005
0.397
0.392
0.392
0.3855
0.377
0.3745
0.37
0.3635
0.359
0.3615
0.3615
0.3565
0.3575
0.354
0.3435
0.339
0.3355
0.3335
0.334
0.3315
0.3325
0.3305
0.3295
0.326
0.3225
0.327
0.327
0.3265
0.323
0.3175
0.317
0.3155
0.317
0.317
0.31
0.314
0.313
0.3105
0.3165
0.311
0.304
0.3035
0.3055
0.3035
0.3035
0.302
0.3025
0.311
0.307
0.3055
0.306
0.3025
0.3045
0.3035
0.3005
0.2995
0.3015
0.3005
0.3015
0.301
0.3015
0.2995
0.2975
0.2985
0.296
0.2935
0.292
0.2935
0.294
0.296
0.2965
0.297
0.2985
0.2995
0.3
0.3005
0.3
0.3025
0.306
0.3065
0.307
0.304
0.3065
0.3065
0.302
0.3025
0.3035
0.3045
0.299
0.2995
0.303
0.303
0.3015
0.297
0.296
0.297
0.2955
0.297
0.2985
0.301
0.302
0.2965
0.2995
0.3015
0.2985
0.299
0.2955
0.3005
0.3065
0.301
0.3035
0.308
0.302
0.3015
0.3025
0.304
0.303
0.303
0.305
0.3065
0.304
0.296
0.2975
0.298
0.298
0.299
0.3
0.3045
0.308
0.3105
0.307
0.303
0.299
0.297
0.3025
0.305
0.3
0.3025
0.3055
0.305
0.304
0.303
0.302
0.3025
0.3005
0.297
0.2975
0.297
0.3
0.2995
0.297
0.301
0.3045
0.304
0.3025
0.305
0.308
0.3085
0.3065
0.3055
0.3095
0.3035
0.3
0.3025
0.3025
0.3045
0.303
0.3025
0.305
0.302
0.3
0.301
0.3005
0.304
0.3075
0.31
0.3085
0.3035
0.304
0.307
0.3085
0.3085
0.309
0.3045
0.305
0.307
0.306
0.308
0.306
0.302
0.3
0.306
0.3065
0.304
0.302
0.297
0.2985
0.301
0.2995
0.303
0.3055
0.307
0.3055
0.299
0.3015
0.3025
0.3
0.3035
0.306
0.304
0.3005
0.3035
0.307
0.303
0.302
0.3065
0.308
0.304
0.3035
0.3075
0.306
0.3
0.2975
0.2995
0.297
0.2975
0.2995
0.2965
0.2975
0.298
0.299
0.3
0.301
0.3045
0.3035
0.3025
0.3025
0.3025
0.299
0.299
0.303
0.301
0.298
0.301
0.302
0.296
0.2985
0.301
0.2945
0.2925
0.296
0.2975
0.2925
0.292
0.2965
0.297
0.295
0.295
0.292
0.2945
0.2985
0.3
0.2975
0.2935
0.295
0.297
0.2995
0.297
0.2985
0.3005
0.2905
0.2885
0.2955
0.295
0.2945
0.2985
0.3015
0.302
0.2985
0.299
0.3
0.3
0.2975
0.2955
0.293
0.293
0.297
0.2945
0.296
0.3
0.296
0.295
0.2955
0.2895
0.2905
0.296
0.3
0.296
0.2995
0.306
0.2975
0.293
0.2915
0.295
0.295
0.2935
0.294
0.295
0.298
0.296
0.2955
0.2955
0.293
0.297
0.2965
0.29
0.292
0.298
0.2985
0.2935
0.2895
0.289
0.29
0.294
0.296
0.2945
0.299
0.2995
0.2945
0.295
0.2935
0.2935
0.2925
0.2905
0.293
0.297
0.3
0.3005
0.2985
0.3
0.3025
0.297
0.295
0.298
0.297
0.3
0.304
0.301
0.296
0.301
0.299
0.2905
0.293
0.2945
0.2945
0.294
0.2965
0.3
0.295
0.295
0.3005
0.2975
0.2895
0.289
0.292
0.293
0.2925
0.293
0.292
0.2915
0.294
0.2895
0.29
0.2975
0.296
0.3
0.3005
0.296
0.294
0.293
0.2955
0.2965
0.299
0.3
0.299
0.2975
0.3
0.302
0.3
0.301
0.3
0.2965
0.297
0.2975
0.297
0.2985
0.297
0.296
0.297
0.2985
0.2975
0.2945
0.295
0.2935
0.294
0.2975
0.2985
0.3005
0.2995
0.301
0.296
0.2935
0.2995
0.2995
0.303
0.302
0.2995
0.2955
0.295
0.2975
0.2995
0.299
0.303
0.3045
0.2915
0.291
0.296
0.299
0.294
0.291
0.2945
0.292
0.296
0.301
0.2985
0.2985
0.302
0.3035
0.303
0.3015
0.302
0.301
0.303
0.3025
0.298
0.302
0.3055
0.3075
0.3055
0.3
0.3025
0.3095
0.301
0.2985
0.306
0.3015
0.3015
0.303
0.304
0.3085
0.304
0.2985
0.3025
0.3085
0.304
0.2995
0.303
0.3025
0.3035
0.301
0.296
0.305
0.311
0.3095
0.3175
0.327
0.3225
0.324
0.322
0.3225
0.329
0.328
0.3295
0.328
0.327
0.322
0.3185
0.324
0.325
0.324
0.33
0.333
0.3265
0.3225
0.326
0.322
0.314
0.317
0.324
0.333
0.3385
0.3445
0.349
0.348
0.3495
0.352
0.3485
0.3425
0.3425
0.3415
0.3425
0.34
0.338
0.34
0.3345
0.3285
0.3215
0.316
0.312
0.31
0.306
0.3
0.294
0.2935
0.301
0.3005
0.301
0.303
0.294
0.2955
0.294
0.289
0.289
0.286
0.2875
0.2905
0.2915
0.2845
0.2845
0.2885
0.2855
0.2905
0.292
0.286
0.2865
0.291
0.2935
0.2965
0.2975
0.295
0.2925
0.292
0.294
0.2865
0.282
0.286
0.2845
0.287
0.289
0.2875
0.2905
0.2905
0.29
0.289
0.2915
0.2945
0.2895
0.2875
0.29
0.288
0.2825
0.2825
0.2835
0.284
0.291
0.288
0.2835
0.2865
0.2805
0.2815
0.2885
0.2865
0.286
0.2855
0.2875
0.2925
0.292
0.2865
0.284
0.2845
0.2855
0.2835
0.284
0.2915
0.2895
0.285
0.2845
0.284
0.2805
0.2745
0.274
0.272
0.2725
0.2735
0.2765
0.2775
0.2755
0.2855
0.29
0.293
0.301
0.3075
0.3245
0.337
0.3515
0.372
0.39
0.409
0.424
0.44
0.4535
0.47
0.486
0.5045
0.5235
0.547
0.5765
0.6005
0.617
0.6315
0.6445
0.6595
0.671
0.676
0.681
0.672
0.67
0.6635
0.649
0.63
0.602
0.568
0.5285
0.509
0.4765
0.442
0.409
0.382
0.3635
0.331
0.3135
0.2935
0.271
0.2525
0.233
0.2225
0.2205
0.225
0.2245
0.232
0.236
0.234
0.2395
0.2425
0.255
0.274
0.2955
0.308
0.316
0.3315
0.339
0.341
0.349
0.358
0.3645
0.3665
0.363
0.362
0.3655
0.367
0.358
0.3535
0.353
0.343
0.3485
0.35
0.338
0.342
0.3395
0.334
0.332
0.33
0.3335
0.3325
0.3315
0.331
0.33
0.3315
0.3285
0.325
0.3345
0.3385
0.333
0.3275
0.325
0.3255
0.324
0.3305
0.326
0.3285
0.334
0.3275
0.328
0.3225
0.331
0.3295
0.3255
0.3215
0.319
0.3315
0.333
0.3325
0.3285
0.3325
0.3325
0.3275
0.332
0.333
0.335
0.335
0.3355
0.3375
0.3375
0.341
0.339
0.3365
0.3375
0.335
0.3325
0.335
0.3365
0.333
0.336
0.3395
0.3415
0.3395
0.3375
0.3405
0.337
0.3335
0.3395
0.34
0.3405
0.3455
0.3425
0.339
0.3365
0.3405
0.3475
0.3495
0.347
0.346
0.345
0.3445
0.3495
0.353
0.3465
0.344
0.3515
0.3465
0.342
0.352
0.353
0.3455
0.343
0.3505
0.352
0.347
0.35
0.356
0.3575
0.3565
0.3575
0.3535
0.356
0.3625
0.3605
0.3645
0.3635
0.3615
0.3675
0.3665
0.3635
0.371
0.3745
0.3695
0.373
0.3755
0.377
0.3785
0.38
0.3835
0.3825
0.39
0.388
0.3875
0.3955
0.393
0.3975
0.3995
0.398
0.401
0.401
0.4005
0.399
0.3995
0.405
0.4125
0.4115
0.4125
0.419
0.42
0.4265
0.432
0.4255
0.424
0.4295
0.431
0.431
0.4375
0.448
0.443
0.441
0.4475
0.444
0.4475
0.4515
0.4565
0.457
0.455
0.465
0.47
0.468
0.4685
0.4705
0.4695
0.4725
0.479
0.482
0.473
0.469
0.479
0.474
0.474
0.4815
0.4845
0.4825
0.4745
0.4815
0.4865
0.485
0.489
0.4885
0.4875
0.485
0.4845
0.485
0.4855
0.488
0.486
0.488
0.492
0.4945
0.4935
0.4895
0.494
0.4945
0.487
0.484
0.487
0.4895
0.484
0.4755
0.471
0.4695
0.4725
0.4705
0.4655
0.466
0.4635
0.4585
0.455
0.448
0.449
0.451
0.4475
0.441
0.4295
0.424
0.4245
0.432
0.4295
0.4215
0.4185
0.4075
0.402
0.3975
0.396
0.395
0.3875
0.3845
0.3805
0.381
0.376
0.37
0.3665
0.3635
0.366
0.3555
0.3545
0.357
0.357
0.356
0.348
0.3445
0.3445
0.338
0.334
0.3325
0.33
0.331
0.3285
0.324
0.3265
0.3255
0.3205
0.3205
0.317
0.319
0.3235
0.3225
0.321
0.318
0.3155
0.313
0.3095
0.3105
0.3125
0.316
0.321
0.321
0.314
0.3095
0.3135
0.315
0.3175
0.3145
0.311
0.31
0.31
0.3085
0.307
0.3085
0.3065
0.3065
0.302
0.306
0.3115
0.3125
0.3125
0.305
0.307
0.314
0.313
0.3095
0.3065
0.307
0.3065
0.303
0.303
0.3055
0.309
0.311
0.3095
0.309
0.303
0.305
0.3045
0.2985
0.309
0.3115
0.31
0.311
0.3105
0.3135
0.31
0.309
0.3085
0.307
0.305
0.3005
0.305
0.309
0.314
0.3095
0.304
0.3105
0.307
0.3065
0.3095
0.311
0.3115
0.3125
0.31
0.31
0.313
0.309
0.3075
0.307
0.3125
0.3125
0.3115
0.3105
0.308
0.3085
0.3045
0.3075
0.3125
0.32
0.3205
0.313
0.3145
0.3125
0.3105
0.31
0.3075
0.3065
0.3105
0.3205
0.3185
0.307
0.303
0.308
0.311
0.31
0.3135
0.3125
0.31
0.3165
0.316
0.313
0.31
0.306
0.3105
0.309
0.308
0.311
0.3185
0.3195
0.3065
0.3065
0.3085
0.3115
0.3225
0.318
0.311
0.313
0.312
0.311
0.3105
0.3135
0.3165
0.3135
0.3125
0.3125
0.31
0.312
0.3075
0.3065
0.3105
0.3135
0.3145
0.3115
0.313
0.3065
0.306
0.3135
0.313
0.315
0.318
0.316
0.313
0.31
0.3105
0.312
0.309
0.3085
0.3155
0.3165
0.3145
0.314
0.3105
0.312
0.3125
0.3085
0.31
0.313
0.31
0.309
0.3065
0.3125
0.3165
0.3095
0.308
0.306
0.309
0.3115
0.3055
0.307
0.31
0.3115
0.3145
0.317
0.318
0.314
0.31
0.3055
0.3095
0.312
0.309
0.3125
0.3085
0.303
0.309
0.311
0.304
0.303
0.3045
0.306
0.3055
0.3045
0.307
0.306
0.3055
0.305
0.307
0.3095
0.3065
0.3065
0.3045
0.3055
0.308
0.307
0.311
0.3045
0.302
0.3085
0.31
0.3095
0.304
0.3045
0.3075
0.3095
0.312
0.3135
0.3105
0.3035
0.3065
0.31
0.3045
0.303
0.304
0.3045
0.3095
0.307
0.3
0.3025
0.306
0.304
0.2995
0.298
0.2995
0.302
0.3015
0.301
0.3045
0.3075
0.3055
0.3005
0.3
0.3025
0.3035
0.301
0.2975
0.3035
0.3025
0.298
0.299
0.2975
0.292
0.2895
0.301
0.3005
0.299
0.304
0.302
0.3045
0.3055
0.3095
0.299
0.294
0.302
0.2995
0.297
0.2965
0.302
0.306
0.3015
0.3035
0.305
0.3015
0.3025
0.3015
0.298
0.296
0.2945
0.2955
0.2955
0.291
0.295
0.2995
0.297
0.2985
0.299
0.297
0.2985
0.297
0.2945
0.299
0.3
0.297
0.295
0.2955
0.293
0.293
0.294
0.293
0.3035
0.3025
0.2905
0.2955
0.299
0.2975
0.299
0.297
0.299
0.298
0.2965
0.3025
0.3015
0.2965
0.2985
0.3045
0.3
0.2985
0.3055
0.3025
0.305
0.3
0.299
0.3015
0.293
0.298
0.2975
0.2945
0.296
0.293
0.3
0.3025
0.304
0.303
0.2985
0.296
0.294
0.301
0.299
0.296
0.2955
0.2985
0.3025
0.2985
0.301
0.297
0.2925
0.296
0.2945
0.301
0.306
0.3025
0.302
0.304
0.2975
0.2975
0.302
0.3005
0.3025
0.304
0.3065
0.304
0.3035
0.302
0.2995
0.3015
0.298
0.301
0.3025
0.302
0.3035
0.3045
0.2995
0.293
0.3005
0.3045
0.3045
0.307
0.3
0.3025
0.3085
0.3065
0.3135
0.3185
0.32
0.3215
0.3235
0.327
0.3245
0.3225
0.3265
0.327
0.319
0.314
0.316
0.3205
0.3205
0.3215
0.3235
0.323
0.3195
0.318
0.3185
0.3145
0.3155
0.3185
0.321
0.325
0.3315
0.3355
0.3365
0.343
0.344
0.338
0.333
0.333
0.332
0.33
0.3275
0.3245
0.323
0.321
0.3195
0.316
0.3125
0.306
0.302
0.297
0.2895
0.2845
0.2835
0.2835
0.287
0.2905
0.289
0.291
0.2945
0.293
0.2865
0.28
0.2775
0.279
0.2825
0.2825
0.284
0.287
0.2845
0.2825
0.285
0.288
0.2915
0.292
0.2885
0.287
0.287
0.2845
0.284
0.2855
0.284
0.283
0.285
0.289
0.293
0.2905
0.286
0.2855
0.288
0.284
0.2825
0.2825
0.278
0.282
0.2835
0.281
0.281
0.2825
0.284
0.2825
0.281
0.2805
0.29
0.2965
0.292
0.289
0.292
0.291
0.287
0.2845
0.282
0.285
0.286
0.284
0.2855
0.2875
0.283
0.279
0.2795
0.279
0.2775
0.28
0.2795
0.2745
0.2745
0.2755
0.2765
0.2745
0.271
0.2695
0.27
0.273
0.2725
0.2715
0.275
0.2795
0.2795
0.281
0.289
0.2935
0.306
0.318
0.327
0.3485
0.366
0.3835
0.403
0.4125
0.427
0.4435
0.4545
0.4675
0.4855
0.506
0.5275
0.553
0.5745
0.589
0.6045
0.6175
0.6275
0.64
0.6505
0.6585
0.655
0.642
0.624
0.6115
0.5905
0.56
0.5325
0.497
0.4715
0.4435
0.4095
0.3795
0.3555
0.3365
0.3105
0.2925
0.2765
0.2565
0.239
0.23
0.219
0.2125
0.2185
0.22
0.23
0.2345
0.228
0.2305
0.235
0.246
0.267
0.284
0.299
0.308
0.312
0.3215
0.3315
0.3345
0.3395
0.346
0.3505
0.355
0.355
0.355
0.353
0.346
0.3435
0.342
0.341
0.3405
0.337
0.3355
0.3345
0.334
0.3345
0.328
0.323
0.3215
0.3235
0.3245
0.3215
0.3245
0.327
0.3275
0.3225
0.3185
0.3165
0.314
0.3175
0.321
0.3235
0.3235
0.321
0.3205
0.3205
0.319
0.3205
0.3245
0.321
0.316
0.318
0.323
0.326
0.3225
0.327
0.329
0.3255
0.3265
0.3325
0.338
0.33
0.329
0.33
0.3265
0.329
0.3305
0.3275
0.323
0.3245
0.329
0.332
0.327
0.326
0.33
0.329
0.328
0.3275
0.3315
0.3305
0.326
0.3265
0.333
0.338
0.3315
0.3305
0.34
0.342
0.336
0.3365
0.3405
0.337
0.3365
0.338
0.335
0.332
0.333
0.3365
0.336
0.3375
0.344
0.3445
0.3425
0.3405
0.3405
0.344
0.3435
0.345
0.3535
0.355
0.351
0.3505
0.3525
0.355
0.352
0.347
0.3485
0.3525
0.355
0.3535
0.352
0.356
0.36
0.362
0.362
0.3605
0.361
0.365
0.361
0.3585
0.3665
0.368
0.3705
0.37
0.3675
0.371
0.3735
0.372
0.3705
0.374
0.38
0.3845
0.3855
0.3905
0.391
0.391
0.3925
0.393
0.3935
0.395
0.3975
0.398
0.403
0.408
0.405
0.404
0.408
0.4145
0.4175
0.4115
0.411
0.4195
0.424
0.422
0.4235
0.43
0.434
0.4375
0.4405
0.4465
0.4475
0.446
0.4445
0.442
0.4485
0.4485
0.449
0.4545
0.4565
0.4605
0.464
0.4635
0.463
0.465
0.467
0.469
0.4655
0.4685
0.473
0.468
0.469
0.47
0.4725
0.476
0.4765
0.473
0.4725
0.4805
0.4775
0.473
0.4775
0.4815
0.481
0.479
0.4795
0.477
0.4765
0.477
0.475
0.479
0.482
0.481
0.4775
0.4765
0.4785
0.481
0.481
0.479
0.476
0.4715
0.47
0.4705
0.4665
0.461
0.4585
0.4565
0.454
0.4475
0.443
0.4415
0.437
0.433
0.427
0.4215
0.4215
0.4205
0.415
0.4105
0.4065
0.405
0.3975
0.391
0.391
0.3865
0.3825
0.3805
0.377
0.371
0.3675
0.3645
0.359
0.3575
0.3545
0.351
0.349
0.3475
0.35
0.3475
0.3415
0.335
0.33
0.3285
0.326
0.3295
0.327
0.3215
0.3245
0.3215
0.3215
0.321
0.32
0.322
0.3135
0.3105
0.314
0.314
0.3135
0.3135
0.313
0.3115
0.3115
0.3115
0.311
0.3095
0.3105
0.312
0.3135
0.316
0.3155
0.3155
0.3175
0.3155
0.309
0.307
0.3065
0.31
0.311
0.309
0.3105
0.3095
0.3075
0.3035
0.302
0.304
0.3075
0.314
0.3125
0.308
0.3085
0.312
0.312
0.311
0.3115
0.3105
0.3135
0.314
0.311
0.307
0.305
0.3065
0.309
0.3085
0.309
0.308
0.3065
0.311
0.3115
0.315
0.3165
0.3115
0.312
0.314
0.315
0.314
0.3175
0.321
0.317
0.313
0.314
0.315
0.3145
0.314
0.3145
0.3135
0.31
0.3125
0.314
0.314
0.312
0.314
0.313
0.311
0.3155
0.316
0.3175
0.318
0.3175
0.3145
0.3105
0.3105
0.313
0.317
0.32
0.32
0.3165
0.3175
0.313
0.309
0.31
0.313
0.318
0.3105
0.3135
0.3165
0.3105
0.312
0.31
0.3115
0.3125
0.314
0.313
0.3125
0.317
0.3165
0.3175
0.315
0.313
0.315
0.317
0.3145
0.312
0.3155
0.319
0.3205
0.319
0.317
0.3165
0.321
0.3215
0.317
0.3185
0.3185
0.3155
0.31
0.309
0.3105
0.311
0.314
0.317
0.315
0.3115
0.314
0.3185
0.317
0.3165
0.32
0.317
0.3145
0.318
0.3205
0.319
0.317
0.3165
0.3175
0.3155
0.312
0.314
0.314
0.3145
0.32
0.321
0.319
0.3165
0.3135
0.316
0.318
0.3145
0.3145
0.3165
0.3145
0.316
0.3185
0.3175
0.318
0.312
0.31
0.311
0.3095
0.311
0.311
0.31
0.3095
0.3085
0.31
0.3135
0.312
0.311
0.309
0.3115
0.313
0.3085
0.3055
0.308
0.3135
0.313
0.3125
0.315
0.3135
0.314
0.3135
0.3125
0.314
0.312
0.3105
0.3105
0.311
0.3105
0.312
0.313
0.315
0.3145
0.3125
0.3095
0.305
0.308
0.31
0.31
0.3085
0.3095
0.3085
0.307
0.311
0.31
0.3095
0.31
0.307
0.309
0.3095
0.3085
0.309
0.307
0.3055
0.308
0.311
0.3115
0.3095
0.308
0.3105
0.31
0.308
0.3065
0.3055
0.308
0.3045
0.302
0.305
0.307
0.305
0.3045
0.307
0.3075
0.3055
0.3065
0.3125
0.3115
0.311
0.3105
0.305
0.302
0.3035
0.304
0.303
0.3045
0.304
0.303
0.303
0.308
0.3045
0.301
0.3025
0.2995
0.3015
0.3005
0.298
0.2985
0.3015
0.3035
0.301
0.299
0.2995
0.3015
0.2995
0.296
0.296
0.2955
0.2925
0.292
0.2925
0.2915
0.2945
0.2955
0.297
0.3035
0.304
0.303
0.3025
0.3
0.298
0.302
0.301
0.299
0.3015
0.3035
0.3045
0.3025
0.3015
0.3015
0.3015
0.3075
0.307
0.3015
0.3
0.2945
0.2995
0.302
0.297
0.297
0.297
0.299
0.301
0.3
0.2965
0.297
0.299
0.3025
0.3015
0.2985
0.301
0.302
0.3025
0.2985
0.295
0.299
0.301
0.3
0.297
0.297
0.299
0.298
0.297
0.2975
0.301
0.302
0.303
0.304
0.3015
0.299
0.299
0.3
0.299
0.2985
0.2995
0.298
0.299
0.3075
0.307
0.303
0.302
0.298
0.2985
0.298
0.297
0.2995
0.2985
0.298
0.3
0.299
0.2955
0.297
0.3
0.297
0.2985
0.3025
0.302
0.3025
0.3025
0.303
0.308
0.3065
0.3035
0.305
0.3085
0.3105
0.3065
0.304
0.303
0.3065
0.309
0.3065
0.3095
0.3075
0.3065
0.31
0.313
0.313
0.3105
0.3135
0.3115
0.3105
0.31
0.3115
0.321
0.319
0.3235
0.33
0.33
0.3345
0.329
0.328
0.33
0.3295
0.3315
0.3265
0.327
0.3275
0.325
0.323
0.327
0.3345
0.336
0.3325
0.3295
0.3295
0.325
0.323
0.3235
0.3265
0.336
0.338
0.3375
0.344
0.3495
0.353
0.352
0.3505
0.345
0.344
0.3475
0.3415
0.336
0.3335
0.333
0.3305
0.3315
0.332
0.3245
0.323
0.318
0.3075
0.302
0.298
0.2985
0.2995
0.3005
0.3045
0.305
0.3025
0.2995
0.298
0.2915
0.291
0.293
0.2915
0.295
0.298
0.2955
0.2905
0.288
0.29
0.292
0.291
0.2925
0.293
0.291
0.2905
0.2915
0.2915
0.292
0.289
0.2885
0.2915
0.2895
0.288
0.288
0.2885
0.288
0.289
0.29
0.2925
0.295
0.293
0.2905
0.2875
0.2865
0.2875
0.2875
0.2885
0.2895
0.291
0.293
0.2915
0.2885
0.286
0.288
0.2935
0.2905
0.283
0.279
0.2805
0.2795
0.283
0.2885
0.2855
0.2855
0.286
0.2835
0.283
0.285
0.287
0.29
0.286
0.279
0.279
0.277
0.2755
0.279
0.278
0.275
0.2675
0.2635
0.2705
0.273
0.273
0.2775
0.2835
0.2845
0.2895
0.2945
0.3015
0.3155
0.3285
0.347
0.364
0.382
0.4025
0.419
0.4325
0.448
0.465
0.4805
0.495
0.512
0.539
0.5645
0.584
0.6075
0.6275
0.647
0.66
0.665
0.6755
0.6885
0.693
0.688
0.683
0.6755
0.6605
0.633
0.597
0.56
0.535
0.5135
0.4745
0.438
0.409
0.3865
0.364
0.3385
0.3155
0.291
0.2705
0.254
0.2375
0.231
0.2315
0.2315
0.238
0.2415
0.241
0.241
0.242
0.254
0.273
0.2915
0.3055
0.316
0.325
0.337
0.349
0.354
0.3625
0.3735
0.37
0.3665
0.366
0.3615
0.359
0.3565
0.352
0.3475
0.346
0.3475
0.345
0.342
0.343
0.3385
0.3365
0.335
0.331
0.33
0.3285
0.3245
0.3235
0.3225
0.32
0.3195
0.3205
0.3225
0.3225
0.33
0.3335
0.3305
0.3325
0.3325
0.3305
0.33
0.3355
0.334
0.3285
0.329
0.3295
0.3255
0.325
0.3285
0.329
0.3285
0.3305
0.3335
0.33
0.328
0.3305
0.3335
0.3335
0.3295
0.3295
0.3335
0.3335
0.33
0.329
0.331
0.332
0.333
0.336
0.336
0.33
0.3315
0.3355
0.332
0.3325
0.336
0.3335
0.3315
0.3355
0.3345
0.3305
0.3295
0.3295
0.331
0.3315
0.334
0.3365
0.336
0.333
0.3345
0.34
0.3415
0.338
0.332
0.3335
0.3385
0.3415
0.3435
0.3495
0.3495
0.3475
0.349
0.3455
0.3445
0.345
0.347
0.346
0.3465
0.3495
0.352
0.3515
0.348
0.3475
0.3485
0.3495
0.3515
0.351
0.3565
0.356
0.354
0.354
0.3535
0.356
0.357
0.359
0.359
0.358
0.3575
0.3605
0.366
0.367
0.364
0.364
0.3675
0.369
0.3745
0.3775
0.375
0.3745
0.3765
0.379
0.384
0.3895
0.3895
0.3905
0.393
0.394
0.3955
0.397
0.399
0.4015
0.405
0.409
0.4095
0.413
0.4165
0.418
0.4195
0.422
0.422
0.4305
0.436
0.4315
0.4365
0.4395
0.438
0.438
0.4425
0.449
0.449
0.45
0.45
0.4515
0.4555
0.4545
0.458
0.4635
0.4645
0.465
0.4645
0.465
0.4705
0.4745
0.475
0.479
0.4785
0.4825
0.4825
0.477
0.48
0.481
0.485
0.4835
0.48
0.483
0.483
0.485
0.483
0.488
0.492
0.485
0.48
0.4785
0.483
0.486
0.485
0.483
0.483
0.4855
0.485
0.481
0.4795
0.478
0.473
0.471
0.4715
0.4705
0.468
0.462
0.457
0.458
0.458
0.454
0.45
0.4475
0.446
0.442
0.437
0.434
0.432
0.428
0.4215
0.4185
0.4165
0.4125
0.407
0.401
0.398
0.3945
0.3905
0.3895
0.3885
0.384
0.377
0.374
0.372
0.3705
0.3675
0.364
0.3605
0.356
0.353
0.347
0.3455
0.344
0.3425
0.342
0.339
0.3325
0.329
0.331
0.3285
0.3235
0.322
0.321
0.3215
0.323
0.322
0.3205
0.3165
0.316
0.3155
0.3135
0.311
0.3085
0.3105
0.3075
0.307
0.3075
0.3015
0.303
0.3015
0.303
0.3065
0.305
0.3045
0.303
0.304
0.307
0.3055
0.3025
0.3045
0.3055
0.3065
0.3055
0.303
0.303
0.3015
0.2985
0.2995
0.299
0.3
0.3065
0.308
0.3055
0.3055
0.3085
0.3085
0.3045
0.3025
0.306
0.3075
0.3045
0.303
0.3025
0.3
0.3
0.303
0.299
0.298
0.2975
0.2955
0.298
0.299
0.3005
0.3025
0.3035
0.302
0.3
0.2995
0.2985
0.301
0.2995
0.2925
0.2965
0.2995
0.297
0.2965
0.2995
0.301
0.2965
0.296
0.296
0.2985
0.298
0.2935
0.299
0.304
0.3025
0.3
0.301
0.302
0.3
0.301
0.301
0.301
0.3045
0.3045
0.3
0.2985
0.2995
0.3015
0.299
0.2975
0.3025
0.307
0.308
0.306
0.3045
0.299
0.301
0.301
0.298
0.3025
0.3035
0.305
0.304
0.3035
0.3065
0.3055
0.3075
0.3085
0.304
0.305
0.304
0.3035
0.3055
0.304
0.304
0.304
0.307
0.305
0.304
0.3065
0.3065
0.3015
0.301
0.3055
0.308
0.312
0.307
0.302
0.305
0.3065
0.31
0.311
0.3115
0.3115
0.3115
0.31
0.308
0.306
0.311
0.3145
0.3075
0.308
0.31
0.3085
0.307
0.3035
0.3025
0.304
0.3035
0.3045
0.3035
0.301
0.2995
0.299
0.3025
0.3075
0.3075
0.307
0.309
0.309
0.3105
0.3065
0.3045
0.306
0.303
0.2995
0.298
0.301
0.304
0.307
0.3045
0.299
0.2995
0.3045
0.3055
0.302
0.3
0.3015
0.306
0.305
0.3015
0.3015
0.303
0.303
0.301
0.3
0.3005
0.301
0.3015
0.3
0.2995
0.3
0.301
0.304
0.2995
0.296
0.3035
0.3045
0.301
0.301
0.303
0.303
0.3005
0.3015
0.301
0.2975
0.299
0.302
0.303
0.3055
0.306
0.3045
0.3055
0.3055
0.3025
0.3065
0.307
0.302
0.2995
0.2995
0.301
0.2975
0.296
0.2965
0.2985
0.298
0.295
0.295
0.2955
0.294
0.292
0.2965
0.2985
0.295
0.2945
0.2945
0.2955
0.3
0.304
0.3015
0.299
0.299
0.299
0.301
0.298
0.2965
0.2985
0.295
0.296
0.296
0.296
0.299
0.295
0.293
0.296
0.2965
0.298
0.302
0.3005
0.2975
0.298
0.2975
0.2985
0.3015
0.298
0.2925
0.2885
0.2895
0.294
0.2925
0.2915
0.2915
0.293
0.297
0.298
0.3
0.295
0.292
0.2925
0.295
0.2995
0.296
0.294
0.293
0.294
0.2925
0.289
0.29
0.2935
0.2915
0.293
0.2975
0.293
0.2925
0.2945
0.2935
0.295
0.295
0.298
0.2985
0.294
0.2935
0.289
0.2885
0.2935
0.293
0.295
0.298
0.299
0.302
0.302
0.295
0.2895
0.2895
0.2935
0.2895
0.287
0.2905
0.2895
0.29
0.2935
0.291
0.2875
0.289
0.287
0.286
0.2905
0.293
0.2895
0.2865
0.286
0.29
0.2915
0.29
0.2905
0.289
0.2895
0.291
0.291
0.291
0.29
0.2885
0.2895
0.289
0.2885
0.2905
0.2885
0.2865
0.292
0.2915
0.2885
0.2905
0.2875
0.2845
0.2845
0.285
0.286
0.285
0.2855
0.288
0.2895
0.289
0.285
0.2845
0.2875
0.2875
0.286
0.283
0.2815
0.2815
0.2855
0.2865
0.289
0.292
0.2845
0.2845
0.287
0.287
0.289
0.2835
0.2835
0.2875
0.2875
0.286
0.2845
0.2865
0.2885
0.287
0.286
0.2905
0.288
0.2835
0.2845
0.2835
0.282
0.2835
0.286
0.2885
0.29
0.2865
0.2865
0.2935
0.295
0.2925
0.293
0.2945
0.2985
0.2995
0.2965
0.297
0.2935
0.2885
0.2875
0.2885
0.293
0.298
0.296
0.292
0.2955
0.2965
0.2955
0.2955
0.2905
0.294
0.298
0.2965
0.297
0.2945
0.2915
0.2915
0.2875
0.289
0.296
0.297
0.301
0.308
0.3095
0.31
0.314
0.3125
0.311
0.3145
0.316
0.3175
0.3175
0.32
0.316
0.309
0.314
0.3135
0.311
0.312
0.31
0.3105
0.313
0.3095
0.3115
0.313
0.3105
0.3115
0.3145
0.321
0.3295
0.3325
0.3325
0.3345
0.3365
0.334
0.331
0.3285
0.321
0.3255
0.328
0.3205
0.3175
0.3155
0.3155
0.313
0.3085
0.3
0.291
0.2875
0.283
0.2785
0.2825
0.284
0.2825
0.2855
0.2855
0.286
0.279
0.275
0.276
0.275
0.2815
0.2785
0.275
0.278
0.2795
0.277
0.271
0.278
0.281
0.281
0.2825
0.2775
0.275
0.2775
0.286
0.282
0.275
0.2775
0.274
0.2715
0.2695
0.2675
0.273
0.275
0.2765
0.277
0.2765
0.2785
0.276
0.275
0.2745
0.2775
0.2755
0.272
0.2735
0.2725
0.2755
0.2775
0.2755
0.2715
0.2695
0.274
0.273
0.274
0.272
0.269
0.271
0.277
0.2805
0.2755
0.2765
0.279
0.279
0.274
0.2775
0.2785
0.2755
0.274
0.27
0.275
0.2775
0.279
0.2775
0.2755
0.2695
0.264
0.2655
0.26
0.2585
0.2575
0.2575
0.264
0.2635
0.267
0.2695
0.2755
0.289
0.299
0.309
0.323
0.3425
0.359
0.374
0.392
0.4115
0.4265
0.4415
0.456
0.467
0.4845
0.5025
0.5285
0.5585
0.5785
0.6015
0.624
0.638
0.6505
0.6615
0.6735
0.6895
0.6975
0.69
0.682
0.668
0.6515
0.623
0.581
0.55
0.5285
0.504
0.468
0.4305
0.4
0.3735
0.3475
0.319
0.297
0.2745
0.2525
0.237
0.221
0.216
0.2165
0.2145
0.216
0.218
0.223
0.2235
0.2275
0.244
0.2635
0.281
0.295
0.307
0.3205
0.3295
0.3375
0.3495
0.356
0.358
0.3575
0.3595
0.3595
0.354
0.348
0.341
0.3415
0.343
0.3355
0.332
0.3285
0.3205
0.3195
0.319
0.315
0.315
0.314
0.315
0.314
0.3085
0.309
0.3115
0.312
0.312
0.307
0.303
0.3055
0.306
0.305
0.3115
0.3155
0.31
0.306
0.3055
0.3145
0.311
0.305
0.3115
0.3105
0.3105
0.3105
0.3065
0.3105
0.3115
0.3095
0.3105
0.3085
0.307
0.3075
0.3095
0.309
0.313
0.3145
0.3115
0.3095
0.3105
0.3185
0.322
0.322
0.3175
0.316
0.319
0.3185
0.316
0.3145
0.319
0.3235
0.323
0.3205
0.318
0.3175
0.319
0.3205
0.325
0.3255
0.324
0.324
0.325
0.3265
0.3305
0.326
0.3215
0.324
0.321
0.323
0.324
0.3225
0.322
0.325
0.327
0.3285
0.332
0.3305
0.329
0.326
0.331
0.334
0.3295
0.3295
0.3295
0.329
0.332
0.3345
0.335
0.3335
0.3325
0.3345
0.339
0.342
0.341
0.3435
0.3435
0.3435
0.344
0.344
0.3475
0.349
0.3475
0.3495
0.3525
0.3505
0.35
0.354
0.3565
0.354
0.3575
0.368
0.3655
0.3605
0.365
0.3705
0.3715
0.3735
0.3775
0.377
0.38
0.382
0.3805
0.3815
0.3825
0.3835
0.383
0.387
0.3895
0.3905
0.397
0.396
0.3935
0.4005
0.4085
0.4115
0.4155
0.419
0.42
0.4195
0.4205
0.4245
0.4255
0.427
0.4285
0.4315
0.4315
0.431
0.4335
0.4375
0.4425
0.4455
0.4435
0.4455
0.4505
0.4495
0.457
0.4605
0.452
0.4555
0.454
0.4525
0.4635
0.467
0.462
0.461
0.4635
0.4595
0.4635
0.4685
0.4655
0.4645
0.465
0.465
0.4635
0.4665
0.467
0.4655
0.471
0.472
0.4705
0.468
0.4655
0.465
0.4655
0.4685
0.4685
0.469
0.4685
0.466
0.467
0.466
0.461
0.4595
0.4595
0.455
0.4495
0.4465
0.4485
0.4465
0.4385
0.4395
0.44
0.437
0.437
0.4295
0.424
0.4185
0.412
0.4115
0.4105
0.405
0.399
0.396
0.389
0.3855
0.3845
0.38
0.3745
0.3695
0.3695
0.364
0.3605
0.3585
0.3565
0.3555
0.3495
0.3475
0.3435
0.3365
0.332
0.33
0.3315
0.331
0.329
0.327
0.3205
0.318
0.317
0.3105
0.308
0.3065
0.311
0.308
0.3015
0.3065
0.304
0.3035
0.305
0.305
0.303
0.2995
0.3005
0.299
0.298
0.297
0.2915
0.289
0.292
0.2935
0.2935
0.293
0.291
0.296
0.2985
0.296
0.295
0.2915
0.2895
0.2905
0.289
0.2835
0.2845
0.2895
0.2895
0.288
0.283
0.2825
0.284
0.2815
0.2795
0.2805
0.2885
0.2855
0.281
0.2885
0.291
0.2945
0.291
0.284
0.289
0.289
0.2825
0.284
0.2855
0.2835
0.285
0.283
0.279
0.282
0.2875
0.2845
0.2825
0.2895
0.2945
0.2915
0.284
0.2875
0.2925
0.293
0.2905
0.293
0.297
0.29
0.2895
0.2925
0.2925
0.2905
0.2885
0.286
0.2845
0.286
0.289
0.2935
0.2965
0.294
0.289
0.2865
0.286
0.2865
0.2885
0.286
0.2845
0.2915
0.291
0.288
0.2875
0.2875
0.289
0.293
0.2965
0.2985
0.2935
0.285
0.285
0.2855
0.2825
0.2825
0.286
0.29
0.2915
0.291
0.2905
0.288
0.287
0.291
0.293
0.2935
0.2945
0.2925
0.288
0.2855
0.285
0.287
0.2915
0.289
0.289
0.2935
0.2925
0.288
0.286
0.2875
0.289
0.285
0.2875
0.291
0.288
0.2895
0.2895
0.295
0.2935
0.288
0.2915
0.2935
0.2905
0.2865
0.2885
0.289
0.2845
0.2855
0.2885
0.288
0.289
0.2905
0.293
0.2925
0.2915
0.2925
0.2895
0.2895
0.2865
0.287
0.2935
0.2945
0.2905
0.2895
0.2925
0.2905
0.2905
0.2905
0.289
0.2875
0.2865
0.2865
0.2855
0.2915
0.297
0.296
0.29
0.2845
0.2855
0.2885
0.292
0.2885
0.2825
0.2835
0.2875
0.288
0.291
0.287
0.283
0.2885
0.288
0.284
0.283
0.2845
0.282
0.2845
0.2845
0.277
0.282
0.2905
0.288
0.2845
0.286
0.282
0.28
0.283
0.2865
0.29
0.292
0.286
0.2825
0.2895
0.284
0.2795
0.2805
0.2805
0.2865
0.287
0.2845
0.2825
0.2835
0.2835
0.2805
0.283
0.2835
0.282
0.281
0.2805
0.2795
0.2795
0.28
0.2815
0.2825
0.2795
0.282
0.2815
0.278
0.2775
0.2765
0.2785
0.2805
0.2825
0.2775
0.2745
0.279
0.282
0.281
0.282
0.282
0.2815
0.2825
0.279
0.276
0.277
0.2795
0.2825
0.2805
0.2695
0.272
0.2775
0.2745
0.275
0.2715
0.276
0.2825
0.281
0.285
0.275
0.272
0.2825
0.281
0.2775
0.2775
0.276
0.2775
0.2835
0.2875
0.2845
0.2825
0.2855
0.28
0.2775
0.28
0.2795
0.2805
0.2805
0.2815
0.279
0.274
0.2765
0.2785
0.281
0.2835
0.279
0.274
0.2795
0.28
0.2765
0.2755
0.271
0.2715
0.2755
0.278
0.277
0.2785
0.2835
0.281
0.2765
0.281
0.2815
0.2775
0.281
0.281
0.278
0.2745
0.2745
0.272
0.266
0.267
0.2685
0.2735
0.276
0.2745
0.2765
0.277
0.2765
0.274
0.2685
0.27
0.2735
0.273
0.273
0.271
0.2725
0.2765
0.2745
0.275
0.273
0.276
0.2775
0.276
0.28
0.2775
0.2725
0.271
0.271
0.2755
0.2825
0.2785
0.277
0.2755
0.272
0.2785
0.28
0.275
0.2735
0.274
0.2775
0.278
0.2745
0.277
0.2765
0.275
0.276
0.27
0.2715
0.2765
0.2735
0.277
0.287
0.282
0.2745
0.28
0.2785
0.274
0.2735
0.2745
0.2715
0.2735
0.2795
0.2755
0.2805
0.285
0.287
0.286
0.278
0.2765
0.2745
0.2735
0.277
0.2805
0.2775
0.2735
0.275
0.2715
0.2735
0.281
0.278
0.274
0.274
0.273
0.2735
0.2755
0.276
0.273
0.2735
0.274
0.2745
0.273
0.272
0.276
0.281
0.277
0.27
0.27
0.267
0.2745
0.2795
0.2775
0.2795
0.2795
0.278
0.2705
0.268
0.272
0.274
0.274
0.2745
0.277
0.2695
0.262
0.2615
0.2625
0.271
0.276
0.2745
0.2785
0.2825
0.283
0.284
0.2785
0.276
0.2795
0.281
0.2795
0.276
0.278
0.28
0.2805
0.2815
0.28
0.2785
0.2825
0.288
0.2865
0.2835
0.281
0.277
0.28
0.279
0.2745
0.274
0.271
0.2735
0.279
0.276
0.2755
0.2765
0.283
0.288
0.283
0.294
0.306
0.2995
0.2945
0.296
0.2995
0.303
0.306
0.3035
0.297
0.298
0.2975
0.294
0.298
0.3005
0.299
0.3
0.3055
0.304
0.296
0.295
0.292
0.2955
0.3055
0.307
0.3105
0.312
0.315
0.3205
0.321
0.32
0.317
0.316
0.3155
0.3165
0.32
0.3175
0.318
0.3175
0.3085
0.305
0.2995
0.292
0.29
0.288
0.284
0.278
0.274
0.277
0.2805
0.276
0.275
0.272
0.2635
0.2635
0.2625
0.2645
0.267
0.262
0.2595
0.2605
0.259
0.257
0.2615
0.264
0.2605
0.2595
0.258
0.257
0.2655
0.2645
0.2595
0.2635
0.2665
0.268
0.2645
0.26
0.2565
0.2605
0.26
0.2615
0.267
0.265
0.268
0.2625
0.256
0.2615
0.269
0.2695
0.264
0.2615
0.2615
0.2675
0.268
0.2615
0.259
0.2625
0.2625
0.263
0.2615
0.263
0.265
0.259
0.2585
0.257
0.2605
0.261
0.26
0.2625
0.261
0.2595
0.2615
0.2585
0.2565
0.2575
0.2555
0.2545
0.2545
0.256
0.251
0.249
0.251
0.2505
0.25
0.2465
0.24
0.242
0.243
0.243
0.248
0.246
0.252
0.254
0.2565
0.264
0.271
0.2895
0.304
0.3195
0.335
0.355
0.379
0.3945
0.411
0.429
0.4385
0.451
0.472
0.492
0.517
0.545
0.5645
0.577
0.594
0.6085
0.617
0.63
0.644
0.653
0.646
0.64
0.628
0.612
0.592
0.559
0.5275
0.498
0.482
0.45
0.4075
0.374
0.3435
0.3225
0.297
0.276
0.2545
0.237
0.226
0.204
0.1945
0.193
0.191
0.1955
0.1995
0.1995
0.1975
0.2055
0.2095
0.227
0.246
0.257
0.278
0.288
0.2945
0.3025
0.311
0.3165
0.322
0.328
0.331
0.3315
0.3305
0.329
0.333
0.328
0.3135
0.311
0.3085
0.311
0.311
0.3025
0.302
0.2975
0.295
0.302
0.299
0.2935
0.2945
0.295
0.2975
0.2955
0.291
0.29
0.2965
0.299
0.292
0.292
0.2965
0.2975
0.2895
0.2865
0.289
0.2855
0.2905
0.294
0.2955
0.2955
0.2955
0.3
0.29
0.287
0.2925
0.2935
0.294
0.2895
0.2925
0.293
0.288
0.2935
0.296
0.294
0.2955
0.2945
0.291
0.29
0.29
0.291
0.294
0.2925
0.2975
0.3
0.2965
0.297
0.2925
0.2925
0.297
0.2935
0.292
0.299
0.304
0.301
0.299
0.2995
0.295
0.296
0.3025
0.2995
0.2945
0.296
0.3005
0.304
0.304
0.307
0.311
0.31
0.311
0.3085
0.3085
0.307
0.305
0.304
0.3105
0.317
0.313
0.312
0.3065
0.307
0.314
0.312
0.316
0.3215
0.3155
0.3145
0.316
0.317
0.3185
0.317
0.3165
0.3195
0.3225
0.3215
0.318
0.321
0.3285
0.326
0.3235
0.331
0.331
0.3345
0.3385
0.34
0.3435
0.3385
0.343
0.3405
0.337
0.3435
0.34
0.3445
0.3515
0.3485
0.3485
0.3515
0.3565
0.362
0.3635
0.359
0.3635
0.365
0.357
0.3645
0.372
0.368
0.37
0.38
0.382
0.3825
0.3855
0.3835
0.378
0.378
0.379
0.3875
0.399
0.397
0.3975
0.4
0.4005
0.4045
0.412
0.415
0.414
0.4125
0.4165
0.4145
0.4125
0.4155
0.414
0.4215
0.424
0.4225
0.4235
0.4305
0.4375
0.4345
0.438
0.4405
0.438
0.4395
0.4375
0.444
0.4435
0.436
0.4405
0.4395
0.4445
0.4525
0.4485
0.4455
0.4435
0.4455
0.445
0.4435
0.443
0.4375
0.4425
0.4425
0.44
0.4435
0.4425
0.4415
0.436
0.4355
0.442
0.443
0.4395
0.438
0.435
0.431
0.431
0.4275
0.4255
0.421
0.4165
0.417
0.411
0.4035
0.4005
0.4
0.4035
0.404
0.398
0.3875
0.3845
0.3875
0.3805
0.3735
0.3695
0.3645
0.367
0.3645
0.362
0.357
0.348
0.3455
0.34
0.337
0.3375
0.3345
0.3305
0.3235
0.321
0.3175
0.3165
0.321
0.3145
0.3045
0.304
0.306
0.298
0.2975
0.298
0.2935
0.2955
0.291
0.287
0.2855
0.2865
0.285
0.2815
0.28
0.2815
0.285
0.2825
0.2795
0.28
0.281
0.277
0.2755
0.276
0.2755
0.275
0.2755
0.2695
0.2615
0.2645
0.268
0.2715
0.2735
0.269
0.269
0.27
0.2675
0.267
0.267
0.27
0.2745
0.2735
0.2685
0.2655
0.264
0.2625
0.258
0.261
0.266
0.264
0.2665
0.2705
0.2655
0.264
0.268
0.2655
0.267
0.268
0.267
0.27
0.2705
0.269
0.2665
0.2695
0.2675
0.2615
0.265
0.2665
0.269
0.2695
0.269
0.27
0.268
0.2695
0.274
0.2735
0.2675
0.2675
0.2675
0.2655
0.2715
0.275
0.271
0.27
0.269
0.2685
0.269
0.2695
0.271
0.265
0.2685
0.2755
0.2705
0.2645
0.2585
0.2585
0.266
0.273
0.2685
0.263
0.262
0.266
0.276
0.2685
0.2595
0.266
0.2645
0.26
0.263
0.267
0.2665
0.26
0.2595
0.267
0.269
0.2605
0.2645
0.257
0.261
0.2815
0.273
0.27
0.2725
0.271
0.268
0.264
0.262
0.265
0.27
0.27
0.266
0.265
0.262
0.2605
0.2655
0.269
0.2735
0.2685
0.267
0.265
0.268
0.2745
0.2665
0.2665
0.265
0.2645
0.2665
0.2705
0.2705
0.27
0.2735
0.27
0.27
0.27
0.268
0.267
0.2725
0.2775
0.275
0.2695
0.2675
0.266
0.2655
0.2625
0.2585
0.2635
0.262
0.2615
0.2605
0.2625
0.268
0.267
0.2725
0.2705
0.269
0.2755
0.2705
0.268
0.2725
0.2745
0.269
0.2705
0.2705
0.2665
0.2775
0.2755
0.2695
0.2695
0.2655
0.2625
0.2635
0.267
0.2675
0.2645
0.2635
0.262
0.2615
0.2635
0.266
0.2675
0.2675
0.265
0.267
0.2715
0.271
0.2655
0.264
0.272
0.271
0.271
0.2715
0.2665
0.2655
0.266
0.2675
0.267
0.264
0.267
0.2655
0.2635
0.274
0.2735
0.264
0.2575
0.2565
0.2575
0.2645
0.27
0.265
0.2565
0.2605
0.27
0.2675
0.263
0.261
0.2605
0.26
0.2595
0.2605
0.264
0.2635
0.262
0.262
0.2575
0.259
0.257
0.2555
0.2575
0.2565
0.258
0.2575
0.2545
0.255
0.259
0.2625
0.2575
0.2535
0.2625
0.2665
0.272
0.2685
0.255
0.2575
0.256
0.2585
0.2635
0.261
0.2555
0.256
0.2615
0.26
0.2665
0.2685
0.263
0.258
0.257
0.2575
0.256
0.2555
0.255
0.26
0.261
0.262
0.2615
0.2625
0.258
0.251
0.2545
0.259
0.2595
0.265
0.267
0.2575
0.256
0.2605
0.261
0.2585
0.255
0.2595
0.2615
0.255
0.254
0.2615
0.263
0.2595
0.2585
0.2555
0.2545
0.2605
0.262
0.2615
0.2565
0.2525
0.2615
0.262
0.2595
0.2615
0.259
0.2605
0.26
0.2605
0.261
0.26
0.26
0.251
0.2515
0.2565
0.259
0.2635
0.264
0.2615
0.2565
0.2545
0.258
0.261
0.26
0.262
0.26
0.2595
0.2555
0.253
0.2585
0.258
0.2575
0.2615
0.2645
0.2595
0.256
0.26
0.26
0.26
0.254
0.254
0.2635
0.2575
0.2505
0.2545
0.2585
0.26
0.2585
0.2525
0.2525
0.2595
0.2585
0.2615
0.2595
0.2575
0.2595
0.253
0.252
0.2535
0.256
0.2595
0.259
0.2565
0.253
0.249
0.2505
0.256
0.2545
0.256
0.259
0.261
0.2575
0.253
0.2545
0.2565
0.26
0.257
0.2495
0.249
0.2495
0.2515
0.2555
0.259
0.262
0.2585
0.2485
0.2465
0.252
0.25
0.2485
0.253
0.257
0.2645
0.2675
0.2615
0.2585
0.257
0.2555
0.2525
0.2505
0.254
0.2535
0.2545
0.259
0.258
0.257
0.256
0.2595
0.26
0.255
0.2545
0.2605
0.261
0.256
0.259
0.256
0.258
0.259
0.2555
0.26
0.2605
0.2595
0.2625
0.258
0.2545
0.261
0.2625
0.264
0.2665
0.258
0.2595
0.2695
0.27
0.2715
0.2725
0.2735
0.2795
0.281
0.2875
0.2895
0.2855
0.2865
0.2875
0.2875
0.2865
0.2875
0.286
0.281
0.2765
0.276
0.2785
0.2765
0.2755
0.2735
0.2715
0.278
0.2795
0.278
0.28
0.2855
0.294
0.304
0.3065
0.304
0.2985
0.293
0.2945
0.2935
0.295
0.294
0.2935
0.295
0.292
0.289
0.2795
0.278
0.2785
0.268
0.266
0.266
0.26
0.254
0.251
0.2535
0.2535
0.2505
0.2545
0.2535
0.247
0.244
0.242
0.242
0.2405
0.2455
0.246
0.247
0.252
0.252
0.255
0.252
0.25
0.251
0.25
0.2505
0.251
0.2535
0.2525
0.2485
0.249
0.2535
0.248
0.244
0.248
0.2475
0.2455
0.246
0.2475
0.25
0.245
0.243
0.2465
0.2475
0.249
0.2505
0.251
0.2505
0.2495
0.2435
0.243
0.2475
0.251
0.25
0.245
0.245
0.248
0.249
0.245
0.2445
0.247
0.248
0.249
0.2495
0.2545
0.2515
0.2455
0.2415
0.236
0.245
0.2495
0.2475
0.2465
0.2435
0.2455
0.242
0.239
0.235
0.234
0.238
0.2375
0.2345
0.233
0.2305
0.231
0.2375
0.2415
0.24
0.244
0.2525
0.26
0.2685
0.2805
0.2935
0.3065
0.327
0.348
0.3615
0.375
0.39
0.402
0.417
0.427
0.442
0.466
0.495
0.52
0.539
0.5535
0.564
0.578
0.5865
0.5925
0.6035
0.6115
0.606
0.598
0.584
0.5695
0.5525
0.525
0.4895
0.4555
0.437
0.408
0.376
0.3445
0.3155
0.297
0.2795
0.2615
0.241
0.2225
0.204
0.1895
0.1815
0.1745
0.1745
0.1815
0.188
0.1915
0.1875
0.185
0.19
0.204
0.2225
0.2405
0.2575
0.2695
0.279
0.283
0.293
0.304
0.31
0.314
0.3135
0.317
0.3175
0.3195
0.317
0.311
0.307
0.2975
0.2935
0.2975
0.299
0.295
0.296
0.2945
0.289
0.2925
0.2885
0.2815
0.2815
0.2795
0.286
0.2905
0.2795
0.2745
0.284
0.284
0.2805
0.2805
0.282
0.2855
0.28
0.28
0.282
0.278
0.2785
0.279
0.279
0.2845
0.2805
0.276
0.279
0.284
0.285
0.284
0.288
0.288
0.2905
0.291
0.2875
0.2845
0.2865
0.289
0.2875
0.285
0.2855
0.2905
0.292
0.291
0.287
0.283
0.285
0.2845
0.2805
0.284
0.29
0.2915
0.291
0.2905
0.291
0.2925
0.291
0.291
0.293
0.295
0.2945
0.2995
0.3015
0.2955
0.3
0.301
0.2985
0.296
0.2905
0.2915
0.2955
0.2955
0.293
0.292
0.291
0.296
0.3015
0.3005
0.3
0.299
0.301
0.302
0.3005
0.301
0.3015
0.3065
0.307
0.307
0.3125
0.306
0.302
0.306
0.311
0.315
0.31
0.3105
0.317
0.318
0.3195
0.3215
0.322
0.32
0.3195
0.3215
0.3235
0.3265
0.3285
0.327
0.3315
0.333
0.329
0.33
0.332
0.3365
0.3385
0.338
0.3415
0.34
0.3385
0.3445
0.3465
0.3485
0.352
0.354
0.3515
0.353
0.3555
0.358
0.3635
0.363
0.3635
0.3675
0.3725
0.375
0.3755
0.3735
0.378
0.385
0.383
0.385
0.3855
0.3865
0.3945
0.397
0.397
0.401
0.4075
0.4085
0.4055
0.4095
0.413
0.4135
0.4175
0.424
0.4215
0.4165
0.4225
0.427
0.4285
0.431
0.4305
0.429
0.4275
0.428
0.432
0.433
0.434
0.4425
0.443
0.4405
0.4395
0.4375
0.4395
0.4375
0.435
0.438
0.4405
0.44
0.442
0.441
0.4365
0.4385
0.439
0.4365
0.436
0.4365
0.4385
0.437
0.4345
0.4365
0.437
0.432
0.4285
0.43
0.4295
0.425
0.4245
0.4225
0.413
0.4105
0.4125
0.4125
0.4085
0.4035
0.4045
0.398
0.395
0.391
0.3835
0.3825
0.3815
0.3765
0.373
0.3695
0.3625
0.3625
0.3605
0.351
0.344
0.342
0.3405
0.3425
0.3395
0.3315
0.3295
0.324
0.3215
0.3235
0.3185
0.3145
0.31
0.309
0.3075
0.3025
0.3025
0.3
0.2985
0.2965
0.2925
0.293
0.291
0.2875
0.289
0.291
0.2885
0.287
0.2825
0.2825
0.2825
0.283
0.2805
0.2775
0.2795
0.274
0.271
0.2725
0.2725
0.2715
0.276
0.2815
0.2755
0.271
0.2725
0.2685
0.267
0.2725
0.2725
0.268
0.271
0.272
0.268
0.269
0.2735
0.2715
0.2665
0.2715
0.277
0.273
0.2675
0.266
0.267
0.2685
0.2675
0.2665
0.2685
0.2675
0.2675
0.27
0.273
0.2705
0.264
0.265
0.2685
0.2695
0.269
0.2665
0.268
0.2685
0.2665
0.2665
0.269
0.2655
0.262
0.268
0.27
0.2715
0.2675
0.2655
0.268
0.262
0.26
0.2645
0.2645
0.268
0.2695
0.266
0.2655
0.265
0.2675
0.265
0.2625
0.2655
0.2685
0.266
0.265
0.268
0.2705
0.269
0.2675
0.271
0.2725
0.2695
0.269
0.2675
0.2675
0.271
0.269
0.267
0.2695
0.2735
0.2725
0.27
0.2695
0.266
0.265
0.2665
0.268
0.27
0.268
0.269
0.27
0.2685
0.2705
0.2695
0.2725
0.275
0.2735
0.273
0.2735
0.2725
0.271
0.2675
0.265
0.27
0.2705
0.268
0.2695
0.273
0.272
0.2665
0.2665
0.2715
0.2755
0.2785
0.2775
0.2755
0.2735
0.2705
0.269
0.269
0.272
0.2715
0.2725
0.276
0.2775
0.277
0.272
0.272
0.273
0.268
0.27
0.2705
0.268
0.274
0.274
0.2685
0.2695
0.2715
0.27
0.269
0.2725
0.276
0.2775
0.278
0.277
0.2795
0.2765
0.271
0.2745
0.278
0.2785
0.2745
0.2705
0.2735
0.2735
0.2735
0.2715
0.2665
0.2685
0.269
0.2695
0.27
0.269
0.264
0.263
0.2715
0.2755
0.2695
0.2665
0.2685
0.2705
0.268
0.266
0.2665
0.2635
0.2645
0.264
0.256
0.257
0.263
0.263
0.265
0.2655
0.2675
0.2695
0.2685
0.267
0.2635
0.265
0.2655
0.2595
0.257
0.259
0.2625
0.264
0.2665
0.2645
0.262
0.266
0.265
0.264
0.2635
0.262
0.2615
0.2625
0.259
0.259
0.2625
0.2575
0.26
0.2645
0.266
0.264
0.2635
0.2655
0.2645
0.267
0.2655
0.266
0.2665
0.267
0.27
0.267
0.264
0.264
0.264
0.2625
0.264
0.266
0.262
0.2605
0.261
0.263
0.264
0.264
0.263
0.264
0.271
0.2685
0.262
0.263
0.264
0.263
0.262
0.262
0.261
0.262
0.2625
0.263
0.2635
0.2605
0.2595
0.2615
0.263
0.265
0.268
0.265
0.261
0.26
0.2625
0.2675
0.263
0.266
0.269
0.2635
0.266
0.259
0.2575
0.263
0.261
0.265
0.267
0.2645
0.268
0.271
0.27
0.2635
0.261
0.2675
0.2725
0.2715
0.2655
0.2615
0.2585
0.261
0.2655
0.2665
0.2645
0.263
0.2635
0.263
0.265
0.2655
0.2645
0.2665
0.2665
0.2625
0.263
0.261
0.2595
0.2665
0.2685
0.2645
0.2675
0.269
0.2655
0.265
0.26
0.2615
0.2625
0.2585
0.2655
0.2675
0.266
0.2645
0.2665
0.269
0.2625
0.26
0.2625
0.263
0.2615
0.263
0.2625
0.2615
0.262
0.2625
0.2625
0.2645
0.266
0.2635
0.2605
0.2615
0.264
0.264
0.261
0.264
0.2675
0.2605
0.258
0.2615
0.26
0.2595
0.2675
0.2695
0.267
0.263
0.26
0.262
0.264
0.265
0.259
0.2555
0.26
0.262
0.2615
0.2635
0.2635
0.263
0.2645
0.2615
0.261
0.261
0.2595
0.259
0.261
0.262
0.2635
0.268
0.265
0.264
0.2645
0.267
0.267
0.2645
0.267
0.2655
0.2665
0.2665
0.263
0.2665
0.268
0.2675
0.267
0.2635
0.2625
0.265
0.268
0.269
0.2645
0.262
0.264
0.2675
0.266
0.2655
0.27
0.267
0.265
0.267
0.266
0.265
0.2695
0.2755
0.2795
0.2805
0.2795
0.2845
0.289
0.2905
0.2905
0.2895
0.291
0.283
0.282
0.2865
0.2825
0.285
0.2895
0.2935
0.292
0.2895
0.2895
0.2885
0.288
0.284
0.2865
0.291
0.293
0.2965
0.302
0.302
0.306
0.309
0.3055
0.304
0.301
0.3
0.301
0.2975
0.2935
0.2885
0.2855
0.2915
0.292
0.2865
0.2785
0.2695
0.2645
0.2575
0.2545
0.253
0.2535
0.2545
0.26
0.2635
0.2575
0.2585
0.259
0.255
0.2525
0.2495
0.248
0.2475
0.248
0.252
0.255
0.2555
0.255
0.2545
0.256
0.257
0.256
0.257
0.2585
0.255
0.2545
0.256
0.2565
0.254
0.253
0.2535
0.2515
0.2545
0.2545
0.253
0.2515
0.2495
0.2515
0.2505
0.25
0.248
0.2455
0.2515
0.252
0.247
0.2505
0.25
0.249
0.2555
0.255
0.25
0.245
0.243
0.2435
0.2455
0.2495
0.2495
0.249
0.251
0.2495
0.244
0.245
0.246
0.247
0.2495
0.249
0.249
0.2465
0.244
0.2435
0.2445
0.2455
0.245
0.2445
0.247
0.2405
0.233
0.2305
0.23
0.2315
0.228
0.2325
0.2325
0.2355
0.2445
0.2445
0.2535
0.266
0.278
0.2875
0.3005
0.324
0.341
0.3605
0.3815
0.394
0.4055
0.4205
0.4365
0.452
0.4675
0.487
0.512
0.537
0.5595
0.579
0.5965
0.6125
0.6245
0.6345
0.6515
0.6615
0.6535
0.646
0.6405
0.626
0.6005
0.5665
0.528
0.5
0.4835
0.455
0.416
0.3845
0.362
0.342
0.3115
0.284
0.2665
0.2465
0.2235
0.2035
0.1965
0.1945
0.194
0.203
0.207
0.2025
0.2015
0.2065
0.2135
0.2295
0.254
0.2685
0.2765
0.289
0.301
0.31
0.319
0.3225
0.325
0.33
0.3315
0.332
0.332
0.3315
0.329
0.3185
0.312
0.3095
0.312
0.318
0.307
0.3055
0.3085
0.299
0.3005
0.2985
0.2925
0.2885
0.2865
0.2885
0.293
0.291
0.2885
0.2875
0.2895
0.2935
0.2925
0.293
0.289
0.287
0.288
0.287
0.289
0.2875
0.2825
0.2865
0.286
0.2845
0.288
0.2875
0.2905
0.289
0.2875
0.292
0.2895
0.289
0.289
0.289
0.2925
0.2905
0.292
0.29
0.286
0.291
0.2895
0.2885
0.2915
0.291
0.292
0.295
0.2945
0.2945
0.296
0.2965
0.2965
0.2935
0.292
0.2955
0.296
0.295
0.2965
0.297
0.2985
0.2985
0.2955
0.2965
0.2995
0.3005
0.3
0.3015
0.3
0.299
0.3045
0.3015
0.298
0.3035
0.3095
0.309
0.304
0.305
0.303
0.305
0.308
0.306
0.306
0.306
0.3065
0.302
0.302
0.3085
0.3095
0.3115
0.311
0.3085
0.3105
0.3115
0.311
0.314
0.316
0.3155
0.3145
0.316
0.3195
0.321
0.3225
0.323
0.322
0.3215
0.3225
0.3235
0.329
0.332
0.33
0.3285
0.328
0.3315
0.335
0.339
0.3385
0.3345
0.335
0.338
0.341
0.3445
0.3485
0.351
0.3505
0.3495
0.3505
0.3565
0.3625
0.3615
0.3555
0.3605
0.369
0.3715
0.3745
0.375
0.378
0.382
0.3825
0.3845
0.3875
0.3925
0.3945
0.3925
0.39
0.393
0.395
0.398
0.4045
0.4035
0.41
0.4165
0.413
0.413
0.4145
0.419
0.421
0.42
0.425
0.4265
0.427
0.4265
0.4285
0.4355
0.436
0.4335
0.435
0.4345
0.4395
0.4455
0.444
0.444
0.4415
0.442
0.447
0.443
0.439
0.441
0.441
0.442
0.4425
0.4405
0.443
0.446
0.4465
0.4445
0.442
0.441
0.4425
0.4405
0.44
0.4405
0.439
0.437
0.4345
0.431
0.428
0.429
0.4245
0.4195
0.4185
0.4175
0.413
0.408
0.406
0.4005
0.3995
0.397
0.393
0.39
0.3885
0.381
0.3715
0.3755
0.3755
0.368
0.362
0.3595
0.3595
0.362
0.3555
0.3465
0.3435
0.339
0.3375
0.335
0.331
0.327
0.3205
0.318
0.3135
0.309
0.308
0.307
0.306
0.3065
0.301
0.2965
0.298
0.293
0.2895
0.29
0.287
0.287
0.2855
0.2835
0.284
0.2805
0.2785
0.279
0.2765
0.277
0.2725
0.2705
0.2725
0.2725
0.272
0.27
0.274
0.272
0.2685
0.2695
0.267
0.2665
0.271
0.2725
0.271
0.27
0.269
0.2665
0.263
0.265
0.2665
0.265
0.266
0.2655
0.2645
0.26
0.263
0.267
0.265
0.267
0.2645
0.2635
0.262
0.2625
0.266
0.2655
0.2645
0.2615
0.2625
0.264
0.265
0.26
0.2575
0.26
0.2605
0.2605
0.2615
0.2675
0.2665
0.2655
0.2695
0.2655
0.2655
0.264
0.265
0.2705
0.268
0.2675
0.265
0.261
0.2595
0.258
0.2585
0.26
0.2615
0.2625
0.265
0.265
0.266
0.2645
0.26
0.2655
0.2655
0.263
0.2625
0.2625
0.2645
0.2625
0.264
0.2665
0.2645
0.2615
0.266
0.269
0.2685
0.2665
0.2625
0.2635
0.267
0.269
0.27
0.2705
0.2705
0.2685
0.2675
0.264
0.2625
0.2655
0.268
0.2655
0.2665
0.2675
0.2685
0.272
0.2705
0.2725
0.273
0.2695
0.269
0.269
0.2675
0.267
0.2685
0.268
0.268
0.266
0.2635
0.266
0.269
0.2695
0.271
0.2715
0.269
0.268
0.271
0.271
0.264
0.2655
0.2685
0.2685
0.269
0.269
0.2695
0.262
0.264
0.2665
0.2645
0.2675
0.2685
0.27
0.2715
0.2705
0.2725
0.2745
0.2715
0.2675
0.262
0.262
0.264
0.262
0.269
0.275
0.2705
0.266
0.2645
0.2655
0.269
0.268
0.267
0.2735
0.274
0.2725
0.2745
0.271
0.271
0.269
0.2665
0.267
0.264
0.265
0.2675
0.271
0.267
0.263
0.268
0.271
0.273
0.2705
0.2695
0.2725
0.267
0.2645
0.267
0.2655
0.2665
0.268
0.266
0.2655
0.264
0.2665
0.269
0.2655
0.2595
0.2595
0.2635
0.2605
0.2595
0.261
0.2605
0.2655
0.2625
0.255
0.2595
0.2615
0.2575
0.26
0.266
0.264
0.2595
0.2595
0.2595
0.2605
0.261
0.2585
0.2605
0.259
0.2545
0.2585
0.259
0.259
0.2605
0.2575
0.261
0.2615
0.2585
0.2615
0.264
0.2595
0.255
0.26
0.266
0.2625
0.258
0.2595
0.264
0.2645
0.26
0.261
0.262
0.2625
0.2595
0.259
0.262
0.2585
0.259
0.258
0.2565
0.2575
0.257
0.2565
0.2535
0.254
0.257
0.258
0.26
0.2585
0.259
0.2585
0.257
0.2555
0.256
0.2565
0.252
0.255
0.258
0.257
0.2555
0.2555
0.258
0.256
0.256
0.259
0.261
0.2625
0.2605
0.257
0.2535
0.253
0.254
0.255
0.259
0.257
0.254
0.2555
0.254
0.2565
0.261
0.2615
0.2605
0.26
0.2575
0.2535
0.2495
0.248
0.2555
0.2545
0.2495
0.2485
0.2535
0.259
0.25
0.247
0.25
0.2505
0.2525
0.2535
0.2535
0.251
0.2535
0.2535
0.248
0.2485
0.2535
0.2565
0.2585
0.256
0.2485
0.2495
0.254
0.2555
0.2565
0.255
0.2535
0.254
0.2535
0.251
0.2535
0.2565
0.2565
0.255
0.2555
0.2565
0.2585
0.2595
0.2575
0.254
0.251
0.253
0.2555
0.255
0.256
0.2615
0.2585
0.2565
0.2575
0.2555
0.2535
0.2555
0.2555
0.25
0.251
0.2535
0.253
0.252
0.256
0.257
0.2545
0.252
0.2475
0.249
0.25
0.25
0.2525
0.2555
0.2565
0.2545
0.2545
0.255
0.2525
0.2505
0.2525
0.2545
0.255
0.2495
0.247
0.2525
0.2515
0.2505
0.255
0.2555
0.2555
0.2575
0.256
0.253
0.251
0.251
0.256
0.259
0.2585
0.2595
0.2635
0.2665
0.2585
0.253
0.2515
0.2495
0.2525
0.2575
0.2575
0.255
0.254
0.2535
0.2555
0.258
0.2585
0.2495
0.2455
0.2495
0.251
0.25
0.254
0.2595
0.253
0.2505
0.253
0.2555
0.255
0.254
0.2555
0.2555
0.2565
0.2565
0.2575
0.2585
0.258
0.26
0.2605
0.258
0.2575
0.2575
0.258
0.2575
0.255
0.2545
0.256
0.26
0.26
0.2565
0.258
0.262
0.2635
0.264
0.2675
0.2705
0.271
0.2765
0.282
0.2825
0.2845
0.28
0.283
0.287
0.2875
0.2895
0.285
0.281
0.276
0.2765
0.2795
0.2805
0.2815
0.284
0.2865
0.2865
0.285
0.278
0.2755
0.2745
0.28
0.2845
0.2845
0.2905
0.2955
0.3005
0.306
0.3125
0.3115
0.306
0.304
0.3035
0.2995
0.2945
0.296
0.29
0.2875
0.293
0.284
0.272
0.2665
0.2675
0.2645
0.2565
0.255
0.253
0.249
0.2485
0.251
0.2545
0.255
0.2525
0.2485
0.2455
0.2425
0.238
0.2415
0.241
0.2405
0.2435
0.243
0.248
0.2445
0.2415
0.244
0.2455
0.2435
0.2425
0.247
0.246
0.2435
0.243
0.242
0.2435
0.2435
0.242
0.247
0.246
0.241
0.2445
0.246
0.2445
0.2435
0.242
0.2415
0.2435
0.246
0.246
0.2445
0.246
0.244
0.2405
0.2445
0.245
0.2465
0.2455
0.2435
0.244
0.2405
0.2435
0.2435
0.2445
0.243
0.237
0.238
0.239
0.237
0.2395
0.242
0.2405
0.2415
0.2405
0.239
0.2395
0.2405
0.2425
0.241
0.239
0.232
0.233
0.237
0.2335
0.23
0.224
0.2265
0.23
0.23
0.233
0.2365
0.244
0.247
0.249
0.261
0.2705
0.281
0.292
0.3085
0.331
0.344
0.3625
0.384
0.399
0.4135
0.4305
0.446
0.461
0.4785
0.5085
0.5375
0.5555
0.581
0.599
0.615
0.6265
0.6355
0.6515
0.6625
0.6625
0.6555
0.6505
0.6385
0.6185
0.5865
0.545
0.515
0.495
0.4635
0.426
0.3905
0.3615
0.333
0.3
0.282
0.258
0.235
0.219
0.196
0.184
0.1815
0.182
0.1825
0.1855
0.1845
0.187
0.195
0.202
0.215
0.235
0.254
0.2655
0.275
0.284
0.2915
0.299
0.3085
0.315
0.323
0.3245
0.3225
0.3215
0.3175
0.3155
0.3055
0.302
0.2955
0.292
0.29
0.2855
0.288
0.2865
0.285
0.2845
0.2855
0.28
0.2815
0.285
0.2785
0.275
0.2715
0.273
0.2745
0.2685
0.265
0.2675
0.269
0.2695
0.274
0.277
0.2735
0.2705
0.27
0.273
0.2735
0.2725
0.274
0.2755
0.2745
0.2735
0.2765
0.2765
0.2745
0.275
0.2765
0.278
0.277
0.275
0.2795
0.2765
0.274
0.2785
0.273
0.2705
0.2745
0.2765
0.274
0.2745
0.2785
0.2765
0.277
0.2775
0.2765
0.2755
0.2745
0.274
0.2755
0.2795
0.281
0.281
0.2815
0.2845
0.2835
0.2815
0.284
0.2845
0.284
0.286
0.282
0.282
0.2885
0.2865
0.285
0.289
0.2915
0.2905
0.287
0.2875
0.2905
0.2885
0.291
0.2935
0.2875
0.287
0.2935
0.297
0.297
0.2955
0.2955
0.2985
0.2965
0.296
0.299
0.2965
0.295
0.302
0.308
0.309
0.3065
0.3085
0.311
0.3075
0.3105
0.3135
0.312
0.3105
0.313
0.3175
0.3165
0.3165
0.3155
0.316
0.3215
0.323
0.325
0.329
0.3275
0.329
0.3285
0.33
0.333
0.335
0.3395
0.337
0.3405
0.344
0.347
0.347
0.348
0.355
0.353
0.3545
0.357
0.358
0.36
0.361
0.3635
0.3665
0.3695
0.3705
0.373
0.3785
0.3815
0.385
0.3885
0.3915
0.3905
0.39
0.393
0.3955
0.3985
0.398
0.399
0.399
0.4
0.41
0.4145
0.411
0.4085
0.411
0.4155
0.4165
0.4175
0.4205
0.424
0.428
0.4275
0.425
0.4265
0.4275
0.427
0.43
0.4345
0.4375
0.4375
0.4385
0.4385
0.4395
0.44
0.435
0.4365
0.44
0.4415
0.4385
0.436
0.438
0.4365
0.437
0.4375
0.438
0.4365
0.433
0.4315
0.431
0.4285
0.427
0.429
0.4295
0.428
0.4285
0.4275
0.4175
0.412
0.411
0.405
0.4025
0.402
0.403
0.395
0.3855
0.3855
0.3855
0.3815
0.3795
0.378
0.3785
0.375
0.361
0.353
0.3455
0.3405
0.3415
0.3385
0.335
0.331
0.3285
0.323
0.32
0.319
0.312
0.311
0.311
0.3065
0.3065
0.303
0.3005
0.297
0.2905
0.2885
0.284
0.281
0.284
0.2835
0.2775
0.275
0.2705
0.2725
0.2765
0.275
0.273
0.271
0.271
0.268
0.2685
0.2705
0.263
0.2605
0.2625
0.259
0.2615
0.263
0.2615
0.2595
0.255
0.255
0.257
0.2585
0.257
0.2555
0.2575
0.2605
0.2585
0.2585
0.2585
0.258
0.258
0.2585
0.259
0.256
0.257
0.258
0.259
0.256
0.256
0.256
0.254
0.2585
0.2615
0.2575
0.2545
0.26
0.258
0.2585
0.257
0.2535
0.2575
0.2565
0.258
0.2625
0.2595
0.258
0.262
0.257
0.2545
0.257
0.2565
0.256
0.256
0.258
0.255
0.2525
0.2555
0.2575
0.2585
0.26
0.257
0.252
0.25
0.2505
0.253
0.253
0.252
0.258
0.2585
0.2555
0.2555
0.2545
0.2575
0.26
0.261
0.2605
0.2565
0.255
0.2585
0.2595
0.259
0.258
0.2555
0.2555
0.2555
0.256
0.2535
0.2535
0.2575
0.257
0.2545
0.2555
0.2565
0.2565
0.259
0.2575
0.2555
0.2555
0.256
0.2575
0.26
0.265
0.265
0.2625
0.26
0.26
0.2615
0.2595
0.258
0.2585
0.256
0.2575
0.26
0.258
0.261
0.259
0.257
0.259
0.2605
0.263
0.264
0.2635
0.2615
0.265
0.264
0.2645
0.2665
0.2645
0.269
0.2685
0.264
0.2625
0.2615
0.26
0.261
0.2645
0.2605
0.258
0.259
0.258
0.257
0.26
0.261
0.2605
0.263
0.266
0.2685
0.2645
0.2615
0.2605
0.2565
0.2515
0.2555
0.261
0.2575
0.255
0.2565
0.26
0.2615
0.262
0.2615
0.2595
0.261
0.2605
0.2565
0.256
0.259
0.259
0.2595
0.261
0.259
0.2585
0.258
0.256
0.261
0.26
0.256
0.2585
0.2605
0.2585
0.2535
0.2555
0.257
0.259
0.2595
0.2575
0.2555
0.2545
0.256
0.2575
0.2595
0.2645
0.2645
0.2565
0.259
0.263
0.2585
0.2595
0.259
0.256
0.255
0.259
0.2595
0.257
0.2535
0.251
0.253
0.253
0.2555
0.2555
0.2555
0.256
0.2535
0.252
0.2525
0.252
0.2555
0.2575
0.2565
0.258
0.256
0.2545
0.2555
0.254
0.256
0.255
0.25
0.2535
0.255
0.257
0.2565
0.2545
0.2535
0.254
0.2535
0.2495
0.251
0.2535
0.257
0.255
0.2485
0.249
0.2555
0.258
0.255
0.2525
0.252
0.2525
0.2525
0.2485
0.2485
0.2515
0.2485
0.2505
0.2475
0.2415
0.2465
0.251
0.2505
0.252
0.25
0.2455
0.2425
0.2405
0.2435
0.2475
0.2515
0.25
0.2485
0.2485
0.2485
0.2525
0.252
0.252
0.256
0.256
0.25
0.2515
0.2545
0.254
0.254
0.2535
0.2515
0.2515
0.2565
0.249
0.2455
0.253
0.2555
0.255
0.2535
0.2565
0.255
0.2515
0.2485
0.247
0.2555
0.257
0.2495
0.2495
0.2545
0.253
0.252
0.255
0.252
0.251
0.2565
0.2525
0.2475
0.2475
0.2485
0.249
0.248
0.2465
0.2505
0.2525
0.2465
0.2475
0.249
0.247
0.248
0.252
0.2525
0.252
0.2525
0.2485
0.249
0.2535
0.25
0.251
0.2495
0.247
0.2475
0.2485
0.2505
0.2465
0.2465
0.2475
0.249
0.251
0.252
0.2545
0.249
0.2465
0.249
0.2505
0.252
0.2475
0.2495
0.2525
0.2465
0.2475
0.2485
0.248
0.252
0.254
0.252
0.249
0.25
0.2485
0.251
0.25
0.2425
0.246
0.2465
0.2395
0.2445
0.254
0.2505
0.2445
0.2455
0.2435
0.2425
0.243
0.244
0.248
0.252
0.254
0.2525
0.2455
0.241
0.247
0.25
0.252
0.2535
0.248
0.2475
0.2455
0.2445
0.25
0.251
0.2525
0.253
0.251
0.254
0.2525
0.247
0.243
0.2445
0.246
0.2485
0.2485
0.245
0.242
0.242
0.2475
0.2495
0.2475
0.2475
0.25
0.2495
0.2505
0.2535
0.2495
0.252
0.258
0.254
0.2545
0.256
0.257
0.2575
0.253
0.2495
0.251
0.2585
0.261
0.259
0.256
0.2535
0.253
0.249
0.252
0.2545
0.251
0.2535
0.257
0.256
0.2535
0.2545
0.2565
0.2585
0.2555
0.259
0.2625
0.2525
0.25
0.2475
0.2525
0.2585
0.252
0.255
0.26
0.257
0.253
0.2545
0.2595
0.2585
0.263
0.2685
0.2685
0.273
0.2755
0.276
0.277
0.282
0.285
0.2805
0.2775
0.282
0.2795
0.2725
0.274
0.279
0.285
0.282
0.2805
0.28
0.2755
0.277
0.2735
0.2735
0.2745
0.277
0.2845
0.2905
0.297
0.2985
0.299
0.3005
0.2995
0.2925
0.294
0.298
0.2945
0.284
0.2845
0.2915
0.285
0.2825
0.2825
0.2745
0.264
0.259
0.257
0.2475
0.2385
0.2425
0.2505
0.2515
0.2535
0.252
0.247
0.242
0.238
0.2435
0.2435
0.2385
0.237
0.2385
0.2425
0.2415
0.244
0.244
0.2455
0.2505
0.2465
0.248
0.246
0.2445
0.249
0.24
0.2395
0.237
0.2365
0.244
0.2455
0.248
0.244
0.239
0.2365
0.2355
0.231
0.236
0.2385
0.237
0.2415
0.2405
0.241
0.2425
0.242
0.2385
0.241
0.2405
0.2355
0.233
0.2315
0.2335
0.235
0.238
0.241
0.2405
0.235
0.235
0.2415
0.2455
0.2435
0.2395
0.236
0.234
0.2365
0.2405
0.24
0.238
0.239
0.234
0.2265
0.2295
0.236
0.234
0.229
0.2245
0.22
0.2215
0.223
0.22
0.2175
0.221
0.229
0.233
0.2325
0.23
0.238
0.249
0.257
0.27
0.2825
0.302
0.3215
0.3335
0.3535
0.372
0.386
0.401
0.415
0.428
0.443
0.468
0.4955
0.523
0.544
0.562
0.576
0.5905
0.6055
0.6155
0.6275
0.6385
0.6445
0.6345
0.6225
0.609
0.5895
0.566
0.5345
0.498
0.4665
0.4415
0.404
0.3655
0.3445
0.316
0.282
0.2635
0.241
0.222
0.2035
0.183
0.171
0.166
0.1665
0.169
0.178
0.1825
0.181
0.1775
0.1815
0.194
0.207
0.2285
0.249
0.26
0.271
0.282
0.2885
0.2975
0.3035
0.3045
0.31
0.3115
0.3155
0.317
0.3165
0.314
0.296
0.2865
0.2865
0.292
0.2935
0.287
0.2835
0.276
0.2745
0.276
0.272
0.274
0.2735
0.2665
0.262
0.263
0.267
0.265
0.2665
0.272
0.268
0.27
0.2755
0.27
0.2715
0.274
0.2705
0.27
0.2705
0.2675
0.2635
0.2615
0.2665
0.2725
0.276
0.273
0.268
0.2725
0.273
0.269
0.2715
0.274
0.2745
0.2755
0.271
0.2745
0.277
0.278
0.28
0.2735
0.2755
0.274
0.2715
0.2735
0.274
0.2735
0.272
0.2725
0.275
0.275
0.2695
0.273
0.274
0.2705
0.269
0.272
0.276
0.27
0.2695
0.277
0.276
0.273
0.282
0.2835
0.277
0.2795
0.277
0.276
0.284
0.2885
0.2815
0.278
0.2785
0.283
0.2865
0.286
0.29
0.2905
0.2855
0.289
0.2935
0.2915
0.2865
0.284
0.291
0.295
0.2945
0.292
0.2945
0.2955
0.2945
0.2955
0.2935
0.2955
0.2985
0.301
0.2985
0.2945
0.298
0.303
0.302
0.3
0.3015
0.307
0.3075
0.303
0.307
0.3085
0.31
0.309
0.3055
0.3155
0.318
0.3135
0.313
0.3155
0.3235
0.3255
0.329
0.328
0.3255
0.332
0.3325
0.3365
0.342
0.3405
0.34
0.342
0.345
0.3505
0.3555
0.356
0.3525
0.3565
0.36
0.359
0.363
0.363
0.361
0.372
0.378
0.3755
0.3785
0.3835
0.3875
0.388
0.3875
0.389
0.39
0.3925
0.3985
0.399
0.4015
0.4045
0.4035
0.404
0.405
0.412
0.4195
0.418
0.4185
0.422
0.4135
0.413
0.418
0.418
0.4215
0.424
0.4285
0.4255
0.4235
0.4225
0.425
0.432
0.431
0.432
0.4335
0.427
0.429
0.428
0.424
0.4315
0.429
0.4295
0.4265
0.421
0.4295
0.43
0.4225
0.421
0.4225
0.422
0.4185
0.4145
0.411
0.406
0.413
0.4115
0.403
0.4045
0.3965
0.394
0.3915
0.3825
0.3815
0.378
0.374
0.3725
0.3675
0.3635
0.3625
0.3565
0.3535
0.351
0.3455
0.3375
0.3335
0.3355
0.33
0.331
0.332
0.3235
0.3185
0.313
0.309
0.3045
0.306
0.308
0.2985
0.2895
0.2875
0.29
0.2905
0.2895
0.286
0.284
0.283
0.2785
0.275
0.2735
0.27
0.2705
0.2715
0.2665
0.2645
0.265
0.266
0.2665
0.2625
0.2575
0.257
0.255
0.25
0.258
0.2645
0.2645
0.265
0.2535
0.2535
0.2525
0.243
0.246
0.249
0.252
0.2535
0.2505
0.2505
0.2535
0.2525
0.254
0.2525
0.25
0.253
0.2495
0.252
0.2555
0.2545
0.253
0.2555
0.2545
0.248
0.254
0.2555
0.253
0.251
0.246
0.2485
0.25
0.25
0.247
0.2475
0.2525
0.2485
0.2465
0.249
0.245
0.241
0.2485
0.2485
0.2455
0.249
0.247
0.2475
0.2455
0.2435
0.2455
0.25
0.2515
0.2475
0.244
0.2475
0.2495
0.2495
0.251
0.2485
0.248
0.248
0.248
0.2475
0.2485
0.2465
0.2425
0.2425
0.2485
0.248
0.247
0.2545
0.251
0.2525
0.2525
0.2495
0.248
0.2465
0.252
0.25
0.2455
0.2445
0.248
0.256
0.256
0.248
0.2445
0.25
0.255
0.2545
0.2525
0.249
0.2475
0.257
0.258
0.248
0.249
0.2525
0.2545
0.254
0.2515
0.2515
0.2515
0.251
0.245
0.2445
0.249
0.254
0.254
0.253
0.2565
0.25
0.244
0.25
0.251
0.2425
0.2485
0.256
0.2535
0.248
0.245
0.25
0.25
0.2505
0.254
0.256
0.251
0.2485
0.2525
0.2545
0.2535
0.2485
0.251
0.252
0.253
0.2555
0.256
0.2555
0.2535
0.2535
0.2555
0.252
0.248
0.2555
0.2535
0.25
0.2515
0.2495
0.251
0.256
0.258
0.2545
0.252
0.2515
0.2565
0.251
0.2475
0.257
0.251
0.248
0.253
0.246
0.244
0.248
0.25
0.2505
0.242
0.2425
0.2455
0.246
0.2425
0.24
0.2465
0.2455
0.245
0.241
0.2395
0.2485
0.2455
0.2415
0.242
0.244
0.247
0.245
0.2475
0.2545
0.2545
0.2535
0.253
0.247
0.2475
0.246
0.2465
0.2485
0.247
0.2475
0.2465
0.2445
0.244
0.2455
0.2425
0.2395
0.2435
0.2465
0.2445
0.247
0.249
0.246
0.2425
0.2425
0.2445
0.242
0.236
0.236
0.24
0.2415
0.2435
0.2435
0.2455
0.2445
0.241
0.2395
0.236
0.235
0.2335
0.236
0.238
0.234
0.238
0.2385
0.2365
0.2375
0.234
0.239
0.2395
0.2335
0.239
0.2385
0.238
0.2405
0.241
0.2425
0.244
0.2405
0.235
0.2395
0.244
0.246
0.242
0.239
0.2375
0.2375
0.238
0.2325
0.233
0.2315
0.237
0.2365
0.233
0.236
0.231
0.237
0.241
0.2365
0.234
0.2345
0.235
0.234
0.2335
0.233
0.2345
0.2345
0.232
0.231
0.235
0.233
0.2325
0.2355
0.2325
0.2305
0.2345
0.2355
0.2325
0.2305
0.232
0.2355
0.236
0.242
0.2425
0.235
0.2285
0.231
0.2345
0.2345
0.2375
0.233
0.228
0.228
0.234
0.2365
0.2325
0.2295
0.2295
0.231
0.23
0.2305
0.2335
0.2385
0.238
0.2395
0.233
0.229
0.235
0.2375
0.2375
0.232
0.234
0.238
0.231
0.229
0.234
0.2365
0.233
0.2275
0.228
0.229
0.228
0.2315
0.2315
0.2295
0.2315
0.225
0.227
0.231
0.23
0.23
0.223
0.2255
0.232
0.235
0.2375
0.2315
0.231
0.233
0.2325
0.2265
0.2225
0.2245
0.226
0.232
0.2255
0.2255
0.233
0.235
0.232
0.2245
0.2295
0.2305
0.227
0.2245
0.2275
0.23
0.231
0.2345
0.2315
0.235
0.233
0.2315
0.2315
0.2305
0.2395
0.2385
0.2375
0.238
0.233
0.2345
0.2385
0.2425
0.241
0.238
0.241
0.243
0.237
0.2375
0.2405
0.239
0.24
0.238
0.24
0.241
0.2365
0.24
0.241
0.2395
0.2385
0.234
0.234
0.238
0.2435
0.242
0.242
0.2405
0.2455
0.2495
0.2445
0.2465
0.2485
0.2505
0.256
0.257
0.2545
0.256
0.259
0.2525
0.2565
0.2635
0.2585
0.2585
0.2545
0.25
0.26
0.265
0.256
0.2555
0.2585
0.2495
0.2485
0.255
0.2555
0.2565
0.2565
0.268
0.274
0.271
0.276
0.275
0.2735
0.2725
0.273
0.274
0.2745
0.2695
0.2575
0.259
0.2665
0.2625
0.2555
0.2535
0.244
0.234
0.2335
0.227
0.22
0.225
0.228
0.226
0.2265
0.2235
0.2325
0.2345
0.224
0.2185
0.212
0.2125
0.2155
0.2155
0.219
0.2235
0.218
0.221
0.225
0.2225
0.2165
0.215
0.221
0.2145
0.2135
0.2155
0.2155
0.215
0.216
0.213
0.2115
0.2175
0.2175
0.22
0.217
0.213
0.2155
0.217
0.2165
0.213
0.2205
0.227
0.214
0.2015
0.2085
0.2195
0.219
0.217
0.2135
0.216
0.217
0.2125
0.2145
0.2155
0.2175
0.222
0.221
0.2175
0.215
0.216
0.215
0.2125
0.212
0.21
0.216
0.2125
0.205
0.206
0.206
0.21
0.2165
0.219
0.2125
0.208
0.2065
0.2085
0.2075
0.2055
0.205
0.2
0.199
0.2025
0.2105
0.2145
0.2115
0.2075
0.2095
0.2195
0.231
0.2405
0.255
0.2765
0.286
0.3005
0.325
0.3365
0.3525
0.3705
0.3765
0.3875
0.404
0.423
0.444
0.4715
0.4985
0.5175
0.5345
0.5465
0.5535
0.5605
0.574
0.581
0.5825
0.578
0.568
0.5545
0.542
0.5165
0.484
0.4515
0.423
0.412
0.3765
0.338
0.2995
0.2725
0.2585
0.241
0.23
0.205
0.1855
0.1685
0.156
0.145
0.144
0.152
0.1525
0.16
0.157
0.149
0.1545
0.1705
0.1845
0.1955
0.21
0.227
0.24
0.2445
0.2585
0.2665
0.2725
0.2795
0.283
0.283
0.2745
0.281
0.285
0.2815
0.278
0.27
0.268
0.2715
0.269
0.2575
0.2615
0.26
0.251
0.2575
0.257
0.254
0.2555
0.2545
0.25
0.25
0.251
0.2485
0.2485
0.2505
0.2485
0.2455
0.242
0.2445
0.2495
0.244
0.241
0.249
0.254
0.257
0.2625
0.2595
0.252
0.2515
0.251
0.252
0.2515
0.2505
0.2575
0.255
0.258
0.258
0.2485
0.2495
0.2505
0.2505
0.257
0.262
0.254
0.2535
0.257
0.2555
0.2575
0.2565
0.259
0.2555
0.2525
0.257
0.256
0.2585
0.259
0.2585
0.2585
0.2535
0.251
0.2515
0.2575
0.257
0.2565
0.263
0.2595
0.2555
0.2555
0.2555
0.2615
0.264
0.2605
0.262
0.2635
0.264
0.265
0.261
0.2635
0.272
0.2735
0.268
0.267
0.2675
0.2635
0.2655
0.27
0.273
0.2735
0.2735
0.271
0.2685
0.2665
0.2685
0.273
0.2735
0.2785
0.276
0.273
0.277
0.281
0.286
0.285
0.285
0.288
0.285
0.2835
0.286
0.289
0.2955
0.292
0.29
0.291
0.2905
0.295
0.295
0.3005
0.3005
0.2955
0.2995
0.303
0.307
0.3095
0.311
0.3125
0.31
0.312
0.317
0.3195
0.3205
0.322
0.3275
0.33
0.331
0.332
0.3315
0.3365
0.337
0.3385
0.3445
0.3445
0.348
0.349
0.351
0.354
0.3565
0.3595
0.3615
0.366
0.365
0.366
0.3685
0.374
0.3775
0.378
0.384
0.3835
0.38
0.381
0.3845
0.393
0.3915
0.391
0.3965
0.392
0.396
0.398
0.3935
0.396
0.399
0.4025
0.3975
0.3985
0.403
0.3985
0.403
0.405
0.404
0.4045
0.404
0.403
0.4025
0.408
0.4055
0.405
0.406
0.405
0.4045
0.4015
0.403
0.406
0.404
0.4015
0.3975
0.401
0.407
0.4
0.396
0.394
0.3945
0.3955
0.3925
0.39
0.3875
0.3815
0.373
0.3705
0.3695
0.369
0.363
0.353
0.3485
0.345
0.3485
0.351
0.343
0.3365
0.332
0.3325
0.3295
0.3205
0.3165
0.3145
0.3125
0.3155
0.3125
0.303
0.2985
0.2945
0.29
0.288
0.285
0.281
0.2775
0.2735
0.269
0.2655
0.2625
0.2625
0.2625
0.2605
0.258
0.2545
0.2555
0.2535
0.258
0.255
0.2485
0.25
0.2455
0.247
0.248
0.2415
0.2405
0.24
0.24
0.239
0.2385
0.241
0.2365
0.232
0.234
0.232
0.2275
0.2305
0.231
0.2255
0.2265
0.2305
0.23
0.2305
0.231
0.2265
0.227
0.225
0.228
0.229
0.223
0.2295
0.2315
0.2295
0.2305
0.23
0.2285
0.2315
0.2325
0.2265
0.224
0.2235
0.226
0.2275
0.227
0.23
0.2275
0.2255
0.2275
0.224
0.2255
0.232
0.232
0.2295
0.2285
0.2285
0.2285
0.226
0.229
0.2295
0.227
0.231
0.2255
0.2205
0.2215
0.2175
0.2205
0.2225
0.2245
0.2285
0.228
0.2285
0.2265
0.2255
0.228
0.2265
0.227
0.227
0.226
0.2265
0.226
0.2265
0.2265
0.227
0.2265
0.228
0.2265
0.222
0.226
0.2265
0.227
0.2275
0.2255
0.227
0.224
0.228
0.231
0.2265
0.227
0.2255
0.225
0.227
0.2305
0.232
0.2295
0.229
0.229
0.2325
0.2325
0.23
0.2295
0.228
0.2295
0.2315
0.2335
0.232
0.2275
0.2305
0.231
0.228
0.231
0.2295
0.229
0.2305
0.227
0.2295
0.23
0.228
0.228
0.2305
0.234
0.2335
0.2315
0.224
0.22
0.223
0.226
0.2285
0.2275
0.2265
0.23
0.232
0.2305
0.2285
0.2245
0.226
0.2325
0.234
0.231
0.229
0.2305
0.231
0.2265
0.2265
0.2255
0.2235
0.229
0.2295
0.2255
0.2255
0.227
0.23
0.2335
0.2325
0.2285
0.228
0.2285
0.229
0.2295
0.231
0.233
0.2285
0.2255
0.228
0.2285
0.2295
0.2305
0.228
0.229
0.227
0.226
0.228
0.2295
0.225
0.224
0.231
0.2265
0.222
0.225
0.2245
0.223
0.226
0.2265
0.2205
0.2195
0.223
0.227
0.231
0.2315
0.229
0.225
0.225
0.227
0.2225
0.219
0.2265
0.227
0.2205
0.22
0.2205
0.221
0.2215
0.225
0.227
0.2225
0.2245
0.2265
0.227
0.2285
0.2205
0.2165
0.224
0.228
0.2255
0.2265
0.227
0.222
0.2225
0.225
0.2245
0.227
0.223
0.219
0.222
0.222
0.222
0.222
0.221
0.222
0.2215
0.22
0.2185
0.2215
0.224
0.2245
0.222
0.2185
0.219
0.219
0.218
0.219
0.2205
0.2205
0.2255
0.2265
0.223
0.2225
0.224
0.2265
0.2205
0.22
0.2225
0.2195
0.2225
0.22
0.221
0.2235
0.223
0.226
0.2215
0.218
0.2185
0.2195
0.219
0.219
0.2215
0.222
0.219
0.2175
0.221
0.22
0.219
0.22
0.2215
0.22
0.22
0.221
0.2215
0.224
0.2215
0.219
0.22
0.221
0.2205
0.2205
0.222
0.2215
0.2195
0.218
0.2165
0.215
0.218
0.2205
0.2205
0.221
0.2205
0.223
0.2255
0.2245
0.222
0.219
0.222
0.2235
0.2215
0.223
0.2195
0.2165
0.2185
0.2185
0.2195
0.218
0.216
0.219
0.219
0.215
0.215
0.216
0.2185
0.217
0.212
0.2135
0.2145
0.217
0.2185
0.2155
0.2155
0.2175
0.218
0.219
0.2195
0.2175
0.2155
0.216
0.219
0.2215
0.22
0.2135
0.218
0.225
0.222
0.2225
0.222
0.222
0.2245
0.223
0.223
0.223
0.221
0.223
0.224
0.22
0.2175
0.2175
0.2195
0.222
0.224
0.222
0.2185
0.222
0.223
0.2215
0.221
0.2235
0.224
0.222
0.226
0.222
0.224
0.227
0.228
0.234
0.239
0.242
0.2415
0.243
0.246
0.247
0.245
0.2475
0.2495
0.2455
0.2425
0.2445
0.2465
0.245
0.2465
0.248
0.2505
0.251
0.246
0.239
0.2375
0.243
0.2455
0.2465
0.254
0.259
0.2625
0.2705
0.269
0.265
0.265
0.2655
0.2685
0.2685
0.2655
0.266
0.2625
0.255
0.2535
0.25
0.2445
0.238
0.239
0.238
0.227
0.2215
0.2155
0.2155
0.215
0.215
0.2205
0.217
0.212
0.2105
0.209
0.2045
0.2025
0.204
0.2035
0.204
0.2075
0.208
0.2095
0.2085
0.21
0.215
0.212
0.214
0.2145
0.2095
0.21
0.211
0.214
0.217
0.215
0.206
0.2065
0.216
0.212
0.2065
0.209
0.207
0.2065
0.208
0.2065
0.209
0.212
0.209
0.203
0.2015
0.203
0.2025
0.206
0.2075
0.207
0.2045
0.201
0.2045
0.208
0.2055
0.206
0.2075
0.2055
0.2025
0.2045
0.207
0.206
0.2065
0.2085
0.2065
0.2055
0.2045
0.2015
0.2025
0.2045
0.2055
0.2055
0.203
0.201
0.2035
0.2015
0.196
0.1945
0.1935
0.1925
0.1925
0.19
0.188
0.191
0.1955
0.201
0.2
0.197
0.2065
0.2205
0.224
0.232
0.2475
0.2645
0.284
0.3015
0.3185
0.3335
0.348
0.3615
0.379
0.393
0.41
0.43
0.45
0.477
0.5005
0.5255
0.5385
0.546
0.561
0.572
0.584
0.5935
0.5945
0.591
0.5835
0.5695
0.552
0.529
0.4895
0.457
0.4385
0.4095
0.374
0.339
0.3075
0.2855
0.259
0.2345
0.217
0.1965
0.1805
0.1625
0.1445
0.1415
0.144
0.146
0.1555
0.156
0.153
0.1545
0.159
0.169
0.1865
0.2085
0.226
0.2355
0.2455
0.2575
0.2675
0.2735
0.275
0.281
0.2825
0.2805
0.279
0.2765
0.276
0.274
0.2705
0.268
0.2655
0.2595
0.2585
0.259
0.254
0.25
0.2495
0.2505
0.2525
0.249
0.2455
0.245
0.246
0.2455
0.242
0.243
0.245
0.2455
0.245
0.243
0.246
0.2465
0.245
0.2445
0.24
0.241
0.2435
0.245
0.247
0.2465
0.2485
0.2505
0.254
0.2505
0.2455
0.244
0.2445
0.2475
0.2455
0.245
0.244
0.243
0.2445
0.2455
0.2475
0.248
0.248
0.2485
0.2495
0.2485
0.248
0.2475
0.2505
0.252
0.2495
0.2535
0.249
0.249
0.249
0.242
0.247
0.2455
0.2455
0.2455
0.246
0.252
0.2565
0.2575
0.2525
0.253
0.2535
0.256
0.258
0.2535
0.2565
0.2595
0.2605
0.2595
0.2555
0.256
0.262
0.265
0.2625
0.2635
0.262
0.259
0.263
0.263
0.2585
0.261
0.264
0.2645
0.2685
0.271
0.27
0.269
0.271
0.272
0.27
0.2715
0.273
0.273
0.2735
0.2735
0.2735
0.2745
0.2775
0.278
0.2785
0.283
0.2825
0.283
0.2845
0.2825
0.2845
0.2855
0.291
0.2965
