ECG
0.4105
0.458
0.522
0.5715
0.598
0.6355
0.6595
0.6855
0.71
0.727
0.7175
0.6815
0.658
0.6355
0.6135
0.5925
0.5725
0.552
0.537
0.511
0.4765
0.463
0.418
0.3545
0.319
0.258
0.2055
0.184
0.1505
0.121
0.1055
0.0995
0.0995
0.0975
0.0965
0.1075
0.113
0.113
0.117
0.1205
0.118
0.1175
0.121
0.1155
0.1045
0.104
0.111
0.1145
0.1165
0.123
0.116
0.103
0.106
0.109
0.1175
0.1215
0.122
0.127
0.118
0.104
0.11
0.1055
0.095
0.108
0.1105
0.1115
0.1135
0.114
0.1165
0.102
0.0835
0.0845
0.0875
0.088
0.1105
0.131
0.13
0.1255
0.134
0.128
0.108
0.102
0.094
0.0945
0.108
0.112
0.1125
0.113
0.117
0.1275
0.1255
0.122
0.124
0.1215
0.115
0.1145
0.116
0.118
0.1205
0.119
0.125
0.1315
0.127
0.13
0.129
0.116
0.1115
0.111
0.117
0.129
0.1255
0.1135
0.12
0.1295
0.1385
0.1325
0.125
0.1245
0.117
0.118
0.1155
0.119
0.129
0.1285
0.127
0.136
0.129
0.1165
0.115
0.106
0.1065
0.1165
0.122
0.12
0.1245
0.123
0.118
0.131
0.132
0.114
0.1065
0.1035
0.112
0.123
0.123
0.147
0.1655
0.158
0.146
0.1365
0.1265
0.104
0.099
0.1055
0.112
0.1295
0.133
0.129
0.113
0.1025
0.107
0.1095
0.1125
0.1095
0.118
0.124
0.1335
0.15
0.149
0.1545
0.1385
0.1245
0.11
0.1085
0.138
0.1315
0.136
0.134
0.1255
0.1235
0.1195
0.128
0.127
0.1285
0.128
0.1245
0.125
0.133
0.1235
0.125
0.122
0.109
0.1175
0.1155
0.1275
0.13
0.132
0.138
0.13
0.135
0.129
0.1275
0.1315
0.1205
0.1215
0.125
0.1185
0.109
0.1085
0.1225
0.13
0.135
0.1435
0.14
0.1425
0.141
0.143
0.1435
0.119
0.109
0.1135
0.123
0.1365
0.125
0.1095
0.108
0.106
0.106
0.1125
0.119
0.1085
0.109
0.116
0.1145
0.1085
0.1025
0.09
0.087
0.1025
0.102
0.1035
0.0845
0.077
0.085
0.0715
0.0775
0.0865
0.0925
0.0965
0.0925
0.1005
0.0955
0.078
0.086
0.0725
0.0545
0.0655
0.0705
0.07
0.0775
0.0885
0.0985
0.1105
0.092
0.0655
0.063
0.076
0.082
0.077
0.083
0.088
0.095
0.0865
0.0785
0.089
0.0895
0.0875
0.0855
0.086
0.0885
0.088
0.0785
0.0805
0.075
0.068
0.085
0.0835
0.0835
0.0905
0.0825
0.0825
0.089
0.0835
0.082
0.087
0.1025
0.109
0.093
0.0885
0.0915
0.0885
0.09
0.093
0.098
0.1105
0.1105
0.1075
0.107
0.114
0.1155
0.0985
0.0925
0.105
0.1255
0.133
0.122
0.1215
0.1175
0.1145
0.118
0.112
0.1105
0.101
0.1065
0.1075
0.1045
0.12
0.1175
0.1185
0.125
0.1265
0.1255
0.1165
0.1095
0.1055
0.1125
0.1235
0.128
0.124
0.119
0.121
0.113
0.111
0.1015
0.1165
0.1355
0.1175
0.1125
0.1155
0.1165
0.12
0.1255
0.125
0.1255
0.139
0.143
0.1345
0.1325
0.1205
0.1135
0.1195
0.117
0.101
0.0995
0.1185
0.116
0.12
0.114
0.11
0.1195
0.115
0.1335
0.1385
0.1405
0.1585
0.144
0.1325
0.134
0.1245
0.1185
0.1175
0.1145
0.116
0.1185
0.114
0.112
0.12
0.12
0.121
0.127
0.1195
0.123
0.124
0.1215
0.122
0.124
0.131
0.1305
0.1325
0.1325
0.126
0.131
0.1355
0.1295
0.1295
0.125
0.127
0.1355
0.1245
0.1175
0.1245
0.119
0.1235
0.1335
0.1365
0.1335
0.1185
0.117
0.1245
0.125
0.1155
0.112
0.1175
0.1155
0.122
0.134
0.135
0.1345
0.1155
0.105
0.12
0.113
0.103
0.1195
0.1145
0.1135
0.1195
0.105
0.113
0.119
0.115
0.1115
0.1155
0.1065
0.107
0.1195
0.1235
0.1255
0.121
0.133
0.129
0.1255
0.136
0.1405
0.1475
0.135
0.117
0.118
0.1175
0.123
0.129
0.1275
0.125
0.117
0.0915
0.0905
0.1285
0.1435
0.1375
0.1055
0.077
0.084
0.0935
0.103
0.105
0.102
0.101
0.106
0.119
0.115
0.114
0.113
0.112
0.115
0.1115
0.114
0.116
0.12
0.1175
0.121
0.113
0.1005
0.1065
0.1075
0.121
0.124
0.12
0.1175
0.1095
0.1095
0.1105
0.11
0.1045
0.109
0.0975
0.0945
0.1075
0.107
0.1165
0.1145
0.1175
0.1195
0.1175
0.129
0.1265
0.113
0.0995
0.095
0.0975
0.11
0.1195
0.1205
0.122
0.1155
0.1015
0.107
0.1235
0.1155
0.0995
0.1065
0.1115
0.1045
0.1145
0.11
0.1025
0.1115
0.1075
0.1145
0.1235
0.1165
0.1175
0.1155
0.1015
0.109
0.117
0.109
0.1065
0.097
0.1
0.1085
0.1075
0.1125
0.109
0.1045
0.1145
0.116
0.1225
0.131
0.133
0.141
0.1405
0.1225
0.1055
0.11
0.1105
0.1065
0.111
0.1165
0.116
0.097
0.101
0.105
0.116
0.143
0.139
0.14
0.125
0.1195
0.124
0.1115
0.113
0.111
0.1005
0.0955
0.103
0.1115
0.1225
0.1355
0.1365
0.1225
0.111
0.1125
0.1285
0.1315
0.1175
0.1135
0.1225
0.132
0.1245
0.1015
0.093
0.1105
0.1165
0.1045
0.1065
0.117
0.113
0.105
0.103
0.107
0.1095
0.116
0.126
0.114
0.1095
0.116
0.116
0.1205
0.1265
0.128
0.124
0.116
0.127
0.129
0.1135
0.1045
0.089
0.104
0.1205
0.1085
0.106
0.1075
0.11
0.116
0.1145
0.118
0.12
0.114
0.1125
0.118
0.13
0.1275
0.136
0.1395
0.148
0.147
0.104
0.1105
0.12
0.119
0.14
0.1445
0.142
0.138
0.1165
0.1005
0.1065
0.1035
0.102
0.11
0.1145
0.1315
0.1355
0.118
0.126
0.115
0.109
0.1245
0.117
0.119
0.1115
0.112
0.1415
0.152
0.1465
0.146
0.1495
0.1305
0.111
0.122
0.139
0.144
0.1405
0.1385
0.132
0.1375
0.144
0.139
0.1415
0.1515
0.165
0.162
0.166
0.1685
0.152
0.1675
0.175
0.179
0.1995
0.193
0.1805
0.173
0.1735
0.173
0.183
0.183
0.159
0.165
0.173
0.1685
0.1765
0.1735
0.1675
0.167
0.1685
0.1785
0.1785
0.183
0.18
0.1625
0.167
0.181
0.194
0.1925
0.1945
0.198
0.196
0.21
0.2155
0.206
0.2125
0.234
0.233
0.2215
0.205
0.1935
0.1995
0.193
0.177
0.1735
0.185
0.187
0.1745
0.1665
0.1405
0.128
0.1335
0.129
0.131
0.132
0.1315
0.1255
0.122
0.119
0.1325
0.14
0.129
0.1305
0.1145
0.1045
0.109
0.1115
0.119
0.101
0.097
0.1105
0.1045
0.1135
0.1175
0.1075
0.105
0.102
0.108
0.1105
0.115
0.1235
0.115
0.0975
0.086
0.089
0.0935
0.101
0.112
0.111
0.106
0.1055
0.0885
0.087
0.1105
0.1115
0.113
0.1065
0.1
0.1005
0.107
0.108
0.1005
0.101
0.104
0.1115
0.108
0.1
0.0975
0.1055
0.117
0.11
0.0965
0.1115
0.1185
0.11
0.1185
0.115
0.116
0.124
0.1185
0.1095
0.0945
0.097
0.105
0.1015
0.099
0.0805
0.0765
0.09
0.0855
0.096
0.1
0.108
0.1425
0.166
0.1735
0.1985
0.249
0.3035
0.343
0.3525
0.3915
0.4535
0.503
0.551
0.583
0.5975
0.6085
0.631
0.6655
0.6845
0.6655
0.639
0.6245
0.597
0.5635
0.5565
0.56
0.5425
0.5265
0.499
0.46
0.431
0.3915
0.3475
0.2925
0.238
0.206
0.198
0.17
0.123
0.1055
0.0905
0.093
0.1015
0.108
0.126
0.121
0.098
0.097
0.117
0.127
0.116
0.095
0.087
0.102
0.105
0.0945
0.0815
0.0765
0.0735
0.077
0.0975
0.096
0.09
0.088
0.095
0.099
0.0935
0.0905
0.084
0.084
0.088
0.09
0.0895
0.0925
0.099
0.099
0.096
0.0965
0.1035
0.1
0.096
0.103
0.108
0.1015
0.1015
0.108
0.109
0.102
0.096
0.101
0.0965
0.098
0.1055
0.111
0.103
0.0935
0.0995
0.1015
0.097
0.0985
0.1015
0.1075
0.113
0.1035
0.109
0.1205
0.1115
0.0985
0.1085
0.1055
0.083
0.1005
0.1015
0.0955
0.1165
0.1075
0.113
0.1145
0.1085
0.1225
0.1055
0.1055
0.0975
0.0785
0.0895
0.105
0.1185
0.1015
0.094
0.1
0.101
0.115
0.106
0.1015
0.108
0.118
0.119
0.115
0.1155
0.1085
0.119
0.1165
0.113
0.1175
0.112
0.098
0.102
0.1045
0.107
0.1125
0.1085
0.125
0.114
0.1085
0.101
0.089
0.1
0.108
0.1125
0.1035
0.1115
0.1135
0.1225
0.1305
0.1055
0.1
0.109
0.1065
0.104
0.1
0.1
0.105
0.1035
0.0955
0.0875
0.0895
0.105
0.1165
0.1135
0.1065
0.1015
0.1035
0.1055
0.112
0.1185
0.1055
0.105
0.11
0.108
0.108
0.104
0.1115
0.106
0.0875
0.0885
0.088
0.087
0.098
0.112
0.112
0.0985
0.099
0.0955
0.103
0.11
0.1035
0.114
0.114
0.1065
0.105
0.098
0.089
0.0985
0.109
0.0995
0.1005
0.1055
0.106
0.1105
0.1225
0.122
0.1105
0.111
0.1065
0.1095
0.0935
0.082
0.098
0.108
0.107
0.0755
0.065
0.0815
0.09
0.089
0.081
0.0745
0.0805
0.0925
0.0905
0.0905
0.0865
0.082
0.076
0.0735
0.094
0.1005
0.09
0.094
0.0755
0.0595
0.066
0.0595
0.0755
0.0835
0.0665
0.068
0.0755
0.0815
0.08
0.0935
0.0795
0.041
0.0505
0.0625
0.064
0.069
0.071
0.076
0.079
0.065
0.041
0.0495
0.061
0.0485
0.0475
0.053
0.048
0.045
0.05
0.043
0.036
0.0445
0.057
0.064
0.0715
0.075
0.073
0.0625
0.0555
0.06
0.075
0.0865
0.082
0.0775
0.067
0.0635
0.0575
0.056
0.0545
0.045
0.049
0.058
0.055
0.0625
0.0825
0.0865
0.0875
0.077
0.056
0.0555
0.078
0.0795
0.073
0.076
0.0775
0.073
0.0775
0.0835
0.0795
0.0835
0.0875
0.093
0.0995
0.0975
0.0895
0.102
0.095
0.0835
0.0975
0.1085
0.105
0.1025
0.1005
0.077
0.082
0.096
0.103
0.1
0.086
0.0855
0.086
0.0835
0.078
0.084
0.0915
0.0995
0.1005
0.0855
0.086
0.094
0.107
0.11
0.0975
0.093
0.0925
0.091
0.0925
0.0945
0.1095
0.1155
0.0985
0.096
0.088
0.089
0.0905
0.093
0.1115
0.111
0.0935
0.0865
0.097
0.1025
0.091
0.0825
0.1115
0.118
0.101
0.104
0.1085
0.1185
0.1205
0.1165
0.11
0.0885
0.073
0.0875
0.094
0.097
0.1105
0.1055
0.103
0.105
0.1
0.0945
0.094
0.1115
0.117
0.1
0.1055
0.115
0.0955
0.079
0.087
0.1015
0.099
0.0945
0.0985
0.0985
0.1055
0.098
0.0975
0.102
0.1015
0.106
0.0905
0.0985
0.1105
0.102
0.103
0.0985
0.098
0.0945
0.083
0.099
0.1085
0.095
0.0875
0.088
0.093
0.0995
0.106
0.1025
0.0885
0.087
0.0865
0.0835
0.094
0.087
0.0835
0.09
0.0915
0.0935
0.0895
0.1035
0.1
0.074
0.084
0.095
0.105
0.1115
0.0995
0.1045
0.1045
0.1085
0.095
0.082
0.1045
0.109
0.094
0.067
0.0745
0.082
0.0845
0.1005
0.096
0.106
0.0915
0.09
0.091
0.068
0.0755
0.084
0.0955
0.101
0.0915
0.0755
0.066
0.071
0.0835
0.072
0.0635
0.0915
0.1005
0.102
0.1065
0.1025
0.09
0.084
0.085
0.075
0.079
0.0755
0.0815
0.093
0.083
0.088
0.089
0.0955
0.0995
0.091
0.0975
0.084
0.092
0.0995
0.0825
0.0865
0.09
0.099
0.0825
0.074
0.0845
0.0745
0.08
0.0935
0.0975
0.102
0.0865
0.078
0.094
0.08
0.078
0.0905
0.079
0.0835
0.097
0.0965
0.091
0.0935
0.1
0.11
0.0925
0.066
0.073
0.0675
0.078
0.092
0.094
0.1065
0.105
0.1025
0.091
0.0885
0.086
0.0825
0.086
0.097
0.1035
0.0855
0.0825
0.0885
0.104
0.111
0.1035
0.0925
0.0895
0.0875
0.0905
0.1045
0.0935
0.0905
0.0835
0.0845
0.09
0.0745
0.084
0.0985
0.092
0.0925
0.0975
0.0855
0.074
0.0735
0.0875
0.106
0.0995
0.089
0.091
0.088
0.098
0.1175
0.1315
0.129
0.1115
0.1
0.0765
0.068
0.0805
0.083
0.0815
0.0805
0.095
0.11
0.103
0.092
0.0805
0.0765
0.077
0.079
0.094
0.0915
0.0925
0.102
0.097
0.0945
0.0855
0.0865
0.09
0.0835
0.077
0.079
0.0975
0.098
0.092
0.093
0.0865
0.0815
0.0825
0.085
0.0945
0.1065
0.114
0.109
0.0965
0.1035
0.1045
0.101
0.104
0.0925
0.092
0.0895
0.0795
0.085
0.076
0.0715
0.0885
0.105
0.107
0.0925
0.0945
0.104
0.0995
0.087
0.079
0.093
0.097
0.101
0.1055
0.099
0.103
0.0895
0.087
0.1015
0.104
0.102
0.1
0.1045
0.109
0.101
0.0945
0.099
0.1
0.109
0.101
0.089
0.0955
0.1
0.101
0.107
0.1125
0.1115
0.1205
0.124
0.1275
0.109
0.0995
0.1025
0.1035
0.131
0.1275
0.122
0.1305
0.1245
0.124
0.1365
0.1385
0.132
0.1285
0.1255
0.125
0.1365
0.1445
0.1305
0.1365
0.1455
0.145
0.145
0.1455
0.152
0.162
0.167
0.1635
0.1825
0.1635
0.1405
0.149
0.1375
0.1435
0.1605
0.1515
0.138
0.154
0.154
0.147
0.1595
0.166
0.1645
0.157
0.155
0.1675
0.1705
0.1665
0.1705
0.1695
0.171
0.171
0.1785
0.1625
0.1585
0.163
0.1465
0.159
0.1635
0.157
0.1595
0.164
0.1485
0.1335
0.1315
0.1295
0.1215
0.107
0.112
0.1195
0.1175
0.1005
0.078
0.084
0.096
0.087
0.081
0.0845
0.085
0.0765
0.0835
0.0885
0.0605
0.0735
0.0985
0.0915
0.0815
0.08
0.096
0.093
0.0865
0.077
0.0755
0.0905
0.0795
0.083
0.0915
0.084
0.0945
0.0915
0.0825
0.081
0.08
0.0805
0.0815
0.0875
0.082
0.0775
0.078
0.0825
0.0865
0.0755
0.071
0.079
0.0825
0.0825
0.088
0.087
0.089
0.0935
0.095
0.0815
0.07
0.0715
0.0815
0.0885
0.07
0.0665
0.0755
0.0875
0.094
0.0895
0.0895
0.094
0.0855
0.063
0.0695
0.086
0.078
0.067
0.0765
0.0505
0.0235
0.0435
0.0445
0.057
0.071
0.086
0.119
0.13
0.147
0.174
0.211
0.266
0.3015
0.3315
0.373
0.4025
0.4555
0.492
0.5115
0.5515
0.582
0.6075
0.6295
0.641
0.6105
0.5855
0.5685
0.5375
0.5245
0.5155
0.502
0.4665
0.4555
0.437
0.4125
0.4045
0.3505
0.31
0.265
0.211
0.1745
0.125
0.11
0.0975
0.0695
0.0735
0.0815
0.0695
0.062
0.079
0.0965
0.095
0.0775
0.0655
0.0715
0.0745
0.075
0.0845
0.0785
0.067
0.0715
0.072
0.0645
0.076
0.07
0.055
0.0525
0.0665
0.081
0.0635
0.068
0.076
0.0705
0.0625
0.077
0.082
0.0715
0.071
0.0705
0.0825
0.0785
0.0775
0.073
0.0825
0.091
0.072
0.07
0.0645
0.0635
0.069
0.0775
0.073
0.0625
0.076
0.0835
0.0795
0.0775
0.0835
0.0805
0.0815
0.081
0.076
0.078
0.0685
0.0645
0.0695
0.0735
0.083
0.099
0.108
0.111
0.095
0.0685
0.0805
0.0855
0.0695
0.077
0.087
0.0815
0.0775
0.0795
0.067
0.0765
0.0865
0.0845
0.091
0.0835
0.089
0.1005
0.1105
0.0985
0.0605
0.0705
0.101
0.078
0.068
0.0705
0.065
0.071
0.058
0.061
0.069
0.0785
0.0825
0.0745
0.0845
0.0865
0.095
0.0945
0.0835
0.0815
0.083
0.096
0.0835
0.073
0.0855
0.0905
0.072
0.077
0.0945
0.082
0.071
0.065
0.08
0.081
0.069
0.0725
0.0915
0.0935
0.0815
0.0865
0.081
0.084
0.088
0.0895
0.088
0.095
0.0945
0.0715
0.07
0.068
0.0745
0.0815
0.087
0.086
0.065
0.0725
0.07
0.064
0.0825
0.0875
0.096
0.089
0.0725
0.0725
0.079
0.079
0.0765
0.0855
0.0865
0.084
0.08
0.087
0.091
0.092
0.1035
0.101
0.0875
0.086
0.1055
0.092
0.078
0.085
0.0785
0.0745
0.0685
0.0715
0.0745
0.0645
0.065
0.0745
0.0735
0.0675
0.053
0.063
0.084
0.0955
0.1125
0.0995
0.081
0.0745
0.0835
0.0855
0.0755
0.092
0.1075
0.0895
0.0765
0.052
0.0255
0.044
0.063
0.0695
0.0635
0.0565
0.044
0.044
0.0555
0.0615
0.068
0.0635
0.0625
0.0535
0.056
0.0735
0.0715
0.0565
0.0485
0.03
0.029
0.041
0.0425
0.045
0.0365
0.0485
0.0565
0.049
0.045
0.0515
0.062
0.056
0.0515
0.037
0.034
0.045
0.038
0.021
0.0235
0.032
0.0235
0.0195
0.022
0.0385
0.04
0.031
0.023
0.0225
0.045
0.0395
0.045
0.065
0.052
0.056
0.0495
0.0385
0.034
0.035
0.0495
0.0405
0.032
0.028
0.0295
0.035
0.036
0.0245
0.0285
0.0465
0.0535
0.067
0.0775
0.083
0.0675
0.0775
0.094
0.0885
0.077
0.0455
0.038
0.024
0.034
0.059
0.0545
0.053
0.0545
0.0635
0.073
0.081
0.077
0.0805
0.079
0.0715
0.0775
0.0805
0.0775
0.0825
0.0715
0.0505
0.049
0.0465
0.0625
0.0675
0.0515
0.067
0.0855
0.0845
0.069
0.057
0.062
0.061
0.0635
0.0685
0.068
0.063
0.046
0.065
0.087
0.0755
0.077
0.0835
0.094
0.089
0.0755
0.0765
0.094
0.0975
0.09
0.096
0.0975
0.1035
0.101
0.0915
0.103
0.105
0.089
0.08
0.075
0.08
0.076
0.076
0.067
0.063
0.0775
0.0665
0.0685
0.0745
0.07
0.078
0.0975
0.077
0.0585
0.077
0.066
0.071
0.085
0.0925
0.0805
0.0685
0.083
0.0855
0.083
0.0755
0.0835
0.0835
0.071
0.0675
0.065
0.075
0.089
0.094
0.1
0.098
0.082
0.07
0.0675
0.075
0.0895
0.101
0.1035
0.089
0.077
0.0715
0.072
0.0835
0.0865
0.088
0.0845
0.078
0.068
0.0775
0.0935
0.089
0.0865
0.0695
0.055
0.0735
0.095
0.091
0.077
0.075
0.0825
0.0895
0.091
0.0935
0.091
0.082
0.0725
0.0835
0.0925
0.084
0.0775
0.0645
0.0645
0.0675
0.0625
0.0705
0.075
0.075
0.079
0.0715
0.0755
0.0805
0.08
0.0845
0.0695
0.06
0.07
0.0835
0.093
0.1025
0.0955
0.0805
0.085
0.0805
0.0575
0.0635
0.0785
0.073
0.0645
0.0585
0.074
0.0795
0.0855
0.0905
0.075
0.0695
0.065
0.0685
0.0785
0.076
0.075
0.0765
0.072
0.0735
0.074
0.068
0.075
0.084
0.083
0.073
0.0625
0.0615
0.0685
0.073
0.063
0.054
0.0625
0.076
0.0955
0.1025
0.0885
0.0865
0.077
0.068
0.064
0.0705
0.0695
0.064
0.059
0.05
0.069
0.0705
0.0695
0.068
0.052
0.06
0.0755
0.0885
0.089
0.0735
0.0725
0.072
0.07
0.0705
0.0785
0.083
0.079
0.079
0.071
0.063
0.084
0.102
0.0915
0.082
0.0615
0.066
0.0785
0.0815
0.089
0.0645
0.0555
0.071
0.0745
0.0855
0.1005
0.084
0.055
0.0485
0.04
0.0435
0.0565
0.062
0.079
0.1035
0.109
0.088
0.0705
0.0645
0.076
0.089
0.082
0.0705
0.07
0.066
0.071
0.0725
0.074
0.0695
0.0615
0.0775
0.074
0.069
0.0735
0.078
0.0715
0.0645
0.0625
0.0605
0.075
0.0845
0.0855
0.0765
0.07
0.085
0.0895
0.074
0.074
0.0795
0.067
0.075
0.083
0.0705
0.0675
0.072
0.079
0.0835
0.0875
0.0865
0.0855
0.07
0.0645
0.0845
0.0825
0.0715
0.0845
0.0815
0.0725
0.0745
0.0675
0.0805
0.0945
0.0905
0.078
0.0835
0.0805
0.0745
0.0905
0.092
0.082
0.078
0.087
0.0815
0.0865
0.0995
0.089
0.062
0.0605
0.069
0.0655
0.0795
0.074
0.0675
0.069
0.068
0.074
0.0895
0.095
0.105
0.0915
0.0755
0.092
0.084
0.076
0.0805
0.0875
0.095
0.112
0.1
0.0765
0.0515
0.044
0.0885
0.0905
0.0875
0.091
0.075
0.079
0.0755
0.092
0.0905
0.082
0.0875
0.077
0.079
0.0615
0.0565
0.0685
0.0835
0.0915
0.0845
0.086
0.0905
0.1025
0.096
0.098
0.1125
0.0955
0.0795
0.0755
0.086
0.0945
0.101
0.1155
0.1195
0.1225
0.108
0.109
0.1195
0.1075
0.1
0.104
0.1195
0.124
0.1175
0.13
0.137
0.1305
0.139
0.1585
0.1645
0.148
0.134
0.116
0.1055
0.1205
0.1285
0.13
0.1385
0.135
0.131
0.1265
0.1185
0.133
0.128
0.108
0.104
0.1215
0.151
0.133
0.133
0.161
0.1615
0.1525
0.151
0.1595
0.1655
0.1875
0.188
0.166
0.158
0.1565
0.1525
0.15
0.156
0.1485
0.127
0.1145
0.1255
0.1475
0.15
0.1405
0.1315
0.1235
0.11
0.097
0.106
0.106
0.1105
0.105
0.0755
0.0795
0.085
0.0775
0.075
0.0665
0.055
0.066
0.0735
0.0655
0.0735
0.0725
0.07
0.072
0.07
0.0765
0.085
0.079
0.0795
0.0685
0.0735
0.1
0.07
0.0575
0.057
0.0385
0.058
0.069
0.076
0.088
0.0885
0.075
0.0615
0.0875
0.0845
0.079
0.085
0.0865
0.0925
0.075
0.0695
0.0565
0.055
0.0755
0.0665
0.0465
0.0415
0.054
0.076
0.07
0.068
0.0725
0.072
0.0775
0.077
0.075
0.0685
0.0735
0.084
0.0755
0.0695
0.0805
0.0765
0.0585
0.05
0.045
0.0475
0.0605
0.0715
0.0655
0.048
0.0515
0.0435
0.041
0.0595
0.072
0.087
0.106
0.13
0.1335
0.156
0.1845
0.2155
0.2715
0.305
0.324
0.345
0.3955
0.4505
0.495
0.5215
0.516
0.5245
0.573
0.595
0.563
0.529
0.5125
0.5185
0.495
0.471
0.45
0.427
0.4225
0.4005
0.3765
0.3495
0.315
0.2895
0.246
0.2015
0.168
0.137
0.1225
0.0825
0.0545
0.044
0.0425
0.037
0.0255
0.0415
0.045
0.0575
0.077
0.085
0.0865
0.0945
0.091
0.0815
0.0765
0.0605
0.062
0.0545
0.053
0.066
0.068
0.0555
0.042
0.0495
0.054
0.0555
0.05
0.047
0.0645
0.0715
0.0795
0.083
0.0565
0.068
0.088
0.081
0.071
0.0645
0.07
0.0735
0.0715
0.0745
0.0765
0.062
0.0615
0.0605
0.07
0.0765
0.0655
0.078
0.0675
0.055
0.0625
0.062
0.0635
0.074
0.08
0.075
0.0615
0.0655
0.079
0.066
0.066
0.078
0.085
0.075
0.0645
0.0765
0.093
0.0775
0.057
0.0705
0.07
0.0795
0.077
0.0615
0.0705
0.0705
0.0595
0.06
0.065
0.0665
0.0815
0.079
0.063
0.072
0.087
0.0835
0.0875
0.107
0.102
0.0825
0.09
0.088
0.074
0.083
0.086
0.0665
0.0515
0.076
0.1005
0.097
0.093
0.0795
0.0845
0.092
0.074
0.077
0.0755
0.0705
0.0835
0.077
0.074
0.0845
0.0805
0.073
0.0705
0.0685
0.0665
0.0795
0.086
0.075
0.0755
0.0765
0.072
0.072
0.079
0.088
0.074
0.0655
0.0815
0.089
0.091
0.1005
0.0925
0.065
0.067
0.0735
0.0785
0.0885
0.0895
0.0815
0.0725
0.0725
0.0605
0.056
0.064
0.0715
0.0735
0.0715
0.0675
0.0515
0.079
0.109
0.094
0.081
0.058
0.063
0.079
0.083
0.077
0.083
0.105
0.096
0.0935
0.098
0.086
0.0765
0.069
0.066
0.09
0.0915
0.0865
0.089
0.075
0.0775
0.0705
0.0785
0.0685
0.0665
0.082
0.078
0.0925
0.091
0.079
0.065
0.071
0.069
0.069
0.0705
0.058
0.071
0.0775
0.0785
0.092
0.094
0.079
0.073
0.083
0.0875
0.073
0.061
0.0495
0.043
0.046
0.0495
0.0475
0.044
0.0465
0.052
0.058
0.051
0.041
0.045
0.0465
0.0415
0.053
0.051
0.056
0.068
0.0635
0.0635
0.025
0.014
0.0305
0.032
0.045
0.0415
0.054
0.054
0.0455
0.048
0.0435
0.053
0.0625
0.053
0.0405
0.0365
0.0265
0.0315
0.034
0.04
0.055
0.042
0.0205
0.01
0.033
0.0395
0.026
0.0215
0.0165
0.04
0.043
0.0385
0.039
0.038
0.041
0.0405
0.0305
0.0235
0.0465
0.0475
0.063
0.084
0.0705
0.047
0.035
0.0465
0.058
0.0485
0.043
0.064
0.06
0.0505
0.051
0.051
0.055
0.058
0.0585
0.0615
0.05
0.048
0.088
0.077
0.069
0.0935
0.082
0.07
0.054
0.0505
0.069
0.0855
0.054
0.043
0.0765
0.0845
0.0875
0.084
0.0775
0.0645
0.067
0.0695
0.064
0.061
0.064
0.069
0.072
0.072
0.072
0.088
0.08
0.0665
0.0785
0.0705
0.0735
0.077
0.0605
0.057
0.0555
0.067
0.0865
0.082
0.067
0.0705
0.0595
0.068
0.0795
0.0855
0.095
0.0705
0.0635
0.0685
0.076
0.0865
0.088
0.0885
0.0925
0.0935
0.0875
0.077
0.084
0.1
0.096
0.079
0.068
0.069
0.071
0.088
0.095
0.091
0.0915
0.0895
0.0865
0.102
0.0895
0.056
0.0645
0.083
0.0905
0.091
0.0825
0.0745
0.0725
0.067
0.071
0.0715
0.08
0.1045
0.0875
0.077
0.0805
0.08
0.0875
0.0815
0.0775
0.0765
0.0835
0.088
0.0905
0.091
0.0905
0.075
0.07
0.0835
0.076
0.073
0.08
0.0945
0.107
0.102
0.0885
0.081
0.08
0.0945
0.0955
0.0915
0.0875
0.0515
0.056
0.0725
0.09
0.0865
0.0705
0.0745
0.061
0.0715
0.0685
0.071
0.074
0.064
0.063
0.0575
0.079
0.1075
0.098
0.08
0.0815
0.085
0.08
0.0855
0.0815
0.0635
0.053
0.0545
0.065
0.078
0.0925
0.072
0.0845
0.089
0.082
0.0865
0.0805
0.101
0.0845
0.073
0.064
0.065
0.066
0.063
0.077
0.059
0.0605
0.06
0.0425
0.0535
0.0785
0.0715
0.075
0.087
0.0595
0.0565
0.062
0.0635
0.0715
0.0735
0.067
0.077
0.081
0.072
0.0765
0.0665
0.0605
0.0665
0.0635
0.059
0.0655
0.0645
0.072
0.0655
0.07
0.077
0.069
0.072
0.0685
0.0945
0.0835
0.0725
0.0875
0.084
0.0875
0.079
0.0845
0.084
0.062
0.066
0.072
0.0625
0.077
0.1045
0.096
0.0815
0.094
0.08
0.0695
0.076
0.066
0.0745
0.07
0.0695
0.066
0.043
0.044
0.064
0.0745
0.069
0.0745
0.0735
0.079
0.082
0.074
0.073
0.0805
0.083
0.051
0.055
0.066
0.059
0.07
0.0695
0.05
0.057
0.059
0.065
0.0865
0.065
0.088
0.079
0.0695
0.0935
0.089
0.1005
0.1075
0.1065
0.086
0.0855
0.0935
0.075
0.0515
0.041
0.066
0.0855
0.064
0.0495
0.068
0.081
0.071
0.065
0.069
0.0635
0.0655
0.0785
0.073
0.071
0.065
0.048
0.038
0.049
0.0705
0.0675
0.0605
0.0685
0.08
0.0665
0.08
0.0845
0.0605
0.0725
0.085
0.0865
0.0675
0.0715
0.0775
0.0705
0.093
0.0825
0.0785
0.0875
0.073
0.0665
0.0725
0.081
0.071
0.083
0.096
0.0895
0.084
0.086
0.0885
0.079
0.0785
0.0775
0.071
0.068
0.0555
0.064
0.082
0.0555
0.0705
0.083
0.087
0.094
0.061
0.059
0.0525
0.0605
0.0885
0.0945
0.091
0.091
0.085
0.0935
0.1115
0.0775
0.0775
0.088
0.076
0.0745
0.071
0.083
0.099
0.1025
0.08
0.084
0.0775
0.0765
0.0735
0.05
0.0615
0.063
0.0605
0.0655
0.0825
0.086
0.0775
0.081
0.0835
0.0865
0.0895
0.1015
0.104
0.0895
0.117
0.1415
0.12
0.122
0.117
0.117
0.099
0.077
0.1205
0.1355
0.1205
0.116
0.138
0.141
0.123
0.1255
0.125
0.127
0.1165
0.1255
0.1365
0.118
0.121
0.1145
0.1015
0.114
0.1145
0.1105
0.115
0.11
0.126
0.123
0.1245
0.1435
0.1255
0.135
0.125
0.123
0.1485
0.1535
0.153
0.1395
0.1605
0.1575
0.1335
0.13
0.1365
0.142
0.1035
0.132
0.1485
0.11
0.114
0.1235
0.138
0.1385
0.132
0.1155
0.087
0.0845
0.0945
0.0795
0.0895
0.097
0.084
0.1045
0.0835
0.0495
0.0635
0.0725
0.069
0.084
0.0975
0.0905
0.083
0.0795
0.07
0.055
0.052
0.064
0.0745
0.068
0.0665
0.067
0.0575
0.069
0.078
0.081
0.078
0.065
0.055
0.0585
0.0685
0.079
0.0765
0.0665
0.082
0.0815
0.085
0.0935
0.066
0.0365
0.052
0.08
0.0725
0.0665
0.0435
0.0325
0.0605
0.06
0.0515
0.04
0.0455
0.042
0.055
0.085
0.061
0.059
0.0595
0.061
0.0675
0.0595
0.07
0.0735
0.075
0.0925
0.103
0.077
0.0645
0.059
0.037
0.0345
0.044
0.0485
0.0355
0.044
0.0475
0.0265
0.0265
0.033
0.033
0.036
0.052
0.078
0.0975
0.124
0.1675
0.195
0.2275
0.275
0.2975
0.328
0.3665
0.3985
0.4375
0.461
0.481
0.5115
0.526
0.5425
0.5735
0.5585
0.5075
0.476
0.462
0.4365
0.4375
0.436
0.3965
0.3735
0.3555
0.347
0.3285
0.2925
0.2655
0.2245
0.184
0.143
0.1115
0.103
0.0765
0.042
0.0335
0.0425
0.052
0.0605
0.0655
0.072
0.073
0.076
0.085
0.0705
0.062
0.0545
0.0565
0.0665
0.063
0.064
0.06
0.056
0.0655
0.0625
0.0475
0.031
0.0335
0.047
0.04
0.0455
0.078
0.082
0.055
0.052
0.05
0.0555
0.0595
0.07
0.067
0.057
0.077
0.072
0.058
0.069
0.071
0.0515
0.0515
0.052
0.065
0.0615
0.062
0.0765
0.083
0.085
0.0745
0.0915
0.082
0.07
0.061
0.05
0.055
0.044
0.035
0.048
0.067
0.088
0.093
0.0795
0.085
0.081
0.071
0.0835
0.0875
0.0775
0.0765
0.085
0.0775
0.0595
0.064
0.077
0.076
0.0675
0.077
0.081
0.0755
0.0655
0.0505
0.062
0.0925
0.083
0.0705
0.077
0.069
0.06
0.07
0.1
0.067
0.0465
0.067
0.064
0.0785
0.0735
0.0605
0.0805
0.085
0.0815
0.086
0.0785
0.067
0.062
0.0595
0.052
0.0625
0.077
0.0835
0.0855
0.0775
0.0705
0.0625
0.0695
0.0765
0.087
0.0835
0.0745
0.064
0.0435
0.063
0.0805
0.094
0.0985
0.0735
0.0835
0.093
0.0685
0.075
0.0735
0.0595
0.069
0.0715
0.074
0.0745
0.0725
0.058
0.058
0.069
0.0805
0.0835
0.074
0.081
0.08
0.0735
0.0795
0.082
0.0695
0.0695
0.064
0.086
0.105
0.099
0.0995
0.081
0.0885
0.093
0.0815
0.0665
0.051
0.06
0.0585
0.0515
0.0715
0.086
0.095
0.093
0.0685
0.068
0.046
0.0295
0.0465
0.0595
0.075
0.087
0.1045
0.1025
0.0955
0.0865
0.0555
0.045
0.058
0.0575
0.049
0.0495
0.0545
0.058
0.048
0.0495
0.078
0.082
0.08
0.082
0.068
0.065
0.069
0.069
0.061
0.061
0.0645
0.0515
0.051
0.066
0.0705
0.069
0.0525
0.054
0.0575
0.0455
0.045
0.0375
0.0315
0.0245
0.043
0.051
0.045
0.0365
0.019
0.0335
0.042
0.055
0.057
0.0465
0.0665
0.0525
0.036
0.0385
0.041
0.06
0.047
0.04
0.0365
0.0175
0.0165
0.031
0.0345
0.0215
0.017
0.017
0.024
0.0205
0.026
0.028
0.0315
0.0215
-0.002
0.0075
0.0265
0.0505
0.042
0.0525
0.0705
0.0415
0.058
0.065
0.0505
0.053
0.0415
0.045
0.033
0.0345
0.0415
0.0275
0.0305
0.033
0.035
0.0375
0.0365
0.044
0.043
0.039
0.049
0.048
0.049
0.043
0.053
0.0705
0.0745
0.073
0.059
0.0625
0.053
0.0235
0.021
0.066
0.0885
0.079
0.0755
0.082
0.0775
0.0685
0.0825
0.0655
0.054
0.0595
0.053
0.0695
0.0815
0.08
0.0635
0.0635
0.0995
0.076
0.049
0.0465
0.056
0.0765
0.0715
0.0515
0.053
0.0755
0.0715
0.0765
0.0845
0.08
0.077
0.0805
0.062
0.076
0.0915
0.0705
0.081
0.065
0.058
0.062
0.0805
0.101
0.0885
0.088
0.081
0.0715
0.0705
0.0805
0.0875
0.0855
0.054
0.058
0.079
0.0845
0.0965
0.088
0.09
0.0885
0.09
0.0735
0.0695
0.091
0.0805
0.0635
0.0615
0.069
0.068
0.06
0.075
0.0905
0.083
0.0775
0.074
0.0705
0.064
0.058
0.0665
0.0735
0.0685
0.062
0.066
0.052
0.0435
0.068
0.0655
0.061
0.0725
0.074
0.08
0.0905
0.0885
0.083
0.098
0.087
0.0645
0.0835
0.087
0.0815
0.1075
0.0985
0.091
0.114
0.097
0.0545
0.06
0.0885
0.082
0.0935
0.084
0.059
0.0625
0.064
0.067
0.0585
0.06
0.075
0.079
0.0665
0.071
0.0705
0.0575
0.0575
0.062
0.0625
0.0635
0.0725
0.067
0.0605
0.058
0.057
0.0635
0.063
0.057
0.0695
0.081
0.0725
0.0705
0.064
0.0665
0.074
0.0675
0.069
0.0555
0.0405
0.0415
0.0645
0.077
0.0715
0.0705
0.068
0.059
0.055
0.051
0.0545
0.067
0.0735
0.098
0.092
0.082
0.0765
0.074
0.082
0.08
0.087
0.0755
0.0675
0.0605
0.0635
0.068
0.0535
0.0555
0.048
0.0505
0.079
0.0855
0.0815
0.0965
0.0705
0.0645
0.081
0.0665
0.073
0.086
0.076
0.079
0.086
0.0535
0.071
0.056
0.0395
0.0745
0.0725
0.075
0.0615
0.0515
0.0535
0.056
0.062
0.0645
0.0735
0.069
0.067
0.0675
0.06
0.0785
0.09
0.1055
0.105
0.0595
0.05
0.0685
0.0725
0.0735
0.055
0.048
0.05
0.063
0.0685
0.0595
0.0605
0.065
0.0735
0.0865
0.111
0.0565
0.037
0.0615
0.0445
0.0385
0.0325
0.052
0.0685
0.063
0.0605
0.0865
0.099
0.07
0.0595
0.077
0.078
0.0685
0.058
0.058
0.0895
0.08
0.051
0.0635
0.0795
0.071
0.0545
0.069
0.0615
0.0495
0.077
0.0625
0.042
0.0635
0.0645
0.0465
0.0525
0.072
0.064
0.0655
0.084
0.082
0.0695
0.073
0.082
0.0565
0.0785
0.0785
0.0625
0.083
0.053
0.059
0.0725
0.078
0.078
0.0535
0.061
0.0795
0.0775
0.0705
0.07
0.0685
0.0745
0.0785
0.0705
0.071
0.0835
0.0845
0.084
0.0625
0.0545
0.069
0.075
0.076
0.061
0.0685
0.075
0.064
0.067
0.076
0.094
0.09
0.062
0.0715
0.09
0.094
0.084
0.0705
0.0485
0.0415
0.0645
0.0545
0.029
0.039
0.0645
0.074
0.075
0.0525
0.0665
0.0915
0.082
0.085
0.0785
0.081
0.088
0.0845
0.089
0.0815
0.0555
0.0555
0.057
0.0805
0.1015
0.0605
0.071
0.0585
0.068
0.115
0.0915
0.0925
0.0875
0.0775
0.064
0.051
0.0575
0.058
0.0825
0.0715
0.08
0.096
0.0855
0.1145
0.108
0.099
0.096
0.0895
0.1155
0.116
0.092
0.108
0.119
0.117
0.1305
0.119
0.098
0.11
0.1255
0.107
0.1
0.1
0.098
0.118
0.1305
0.1215
0.119
0.114
0.1275
0.1595
0.1375
0.104
0.1265
0.1325
0.112
0.122
0.1215
0.1215
0.1335
0.119
0.105
0.1105
0.131
0.153
0.176
0.14
0.088
0.107
0.121
0.1315
0.136
0.1325
0.145
0.155
0.1455
0.1235
0.137
0.1455
0.1395
0.134
0.1265
0.1195
0.1225
0.1295
0.1385
0.134
0.1225
0.128
0.126
0.136
0.12
0.1215
0.125
0.0925
0.0855
0.0815
0.0895
0.092
0.0815
0.077
0.074
0.067
0.0725
0.0705
0.054
0.0705
0.0705
0.0825
0.0575
0.0385
0.0785
0.0895
0.081
0.0665
0.0705
0.0745
0.0735
0.0635
0.0565
0.042
0.064
0.0725
0.0495
0.068
0.0495
0.0415
0.06
0.072
0.084
0.065
0.0535
0.06
0.0535
0.0515
0.044
0.052
0.064
0.064
0.0905
0.084
0.089
0.084
0.0635
0.0765
0.077
0.0625
0.078
0.0835
0.064
0.083
0.08
0.0925
0.086
0.0555
0.066
0.065
0.065
0.058
0.0565
0.0845
0.0665
0.069
0.088
0.041
0.0195
0.048
0.0555
0.043
0.0615
0.0395
0.028
0.0595
0.046
0.0565
0.0855
0.1115
0.15
0.16
0.192
0.248
0.2635
0.265
0.3145
0.3625
0.395
0.4355
0.454
0.4675
0.48
0.5095
0.55
0.5385
0.481
0.468
0.4675
0.4305
0.431
0.4105
0.3845
0.373
0.359
0.3515
0.3185
0.291
0.257
0.234
0.183
0.136
0.136
0.1085
0.0675
0.0535
0.06
0.0605
0.0425
0.033
0.0215
0.03
0.058
0.0655
0.0555
0.0665
0.0905
0.053
0.0705
0.09
0.0705
0.088
0.0705
0.0595
0.078
0.0785
0.053
0.0515
0.066
0.055
0.0605
0.0735
0.0645
0.0505
0.0425
0.0385
0.053
0.06
0.0555
0.085
0.0645
0.051
0.0695
0.0735
0.0835
0.0555
0.075
0.069
0.0465
0.0745
0.0725
0.083
0.0935
0.07
0.0345
0.0305
0.043
0.0555
0.0675
0.081
0.0745
0.0605
0.0675
0.0625
0.068
0.059
0.0865
0.094
0.066
0.0745
0.073
0.0965
0.0675
0.0475
0.0445
0.042
0.0795
0.072
0.0595
0.0735
0.071
0.078
0.109
0.079
0.083
0.1125
0.08
0.0875
0.0925
0.077
0.076
0.0865
0.088
0.0735
0.075
0.0825
0.078
0.068
0.071
0.0575
0.0685
0.0855
0.079
0.07
0.0595
0.0735
0.0815
0.0875
0.0675
0.0675
0.0825
0.0775
0.087
0.0805
0.0745
0.0515
0.0455
0.07
0.088
0.072
0.0775
0.104
0.0845
0.0755
0.065
0.063
0.0815
0.0905
0.0805
0.0725
0.0685
0.0665
0.065
0.0765
0.0935
0.081
0.067
0.0545
0.059
0.071
0.06
0.0635
0.082
0.0805
0.0755
0.0935
0.0975
0.0835
0.0945
0.0975
0.077
0.086
0.101
0.1025
0.073
0.0485
0.074
0.0605
0.054
0.061
0.058
0.08
0.0815
0.083
0.086
0.074
0.069
0.078
0.079
0.0605
0.0665
0.0785
0.0655
0.074
0.0635
0.0365
0.0455
0.0485
0.065
0.07
0.0635
0.069
0.0855
0.0955
0.074
0.082
0.073
0.08
0.08
0.068
0.084
0.0915
0.101
0.0855
0.084
0.072
0.0645
0.0625
0.0585
0.063
0.0675
0.069
0.0685
0.0705
0.073
0.0795
0.0845
0.077
0.052
0.0445
0.038
0.043
0.057
0.0575
0.0545
0.0405
0.049
0.067
0.03
0.018
0.055
0.05
0.0325
0.048
0.054
0.0395
0.04
0.0435
0.056
0.0555
0.038
0.0245
0.0265
0.0545
0.059
0.0545
0.0415
0.0455
0.055
0.0415
0.05
0.0415
0.034
0.0175
0.0095
0.0335
0.033
0.0185
0.0335
0.036
0.001
0.0265
0.053
0.0405
0.034
0.0285
0.031
0.0295
0.0365
0.0555
0.0385
0.0245
0.0415
0.048
0.016
0.019
0.0535
0.034
0.028
0.037
0.0405
0.022
0.0155
0.039
0.0435
0.0535
0.0375
0.0205
0.0445
0.0425
0.04
0.0605
0.0525
0.0385
0.0485
0.0605
0.0605
0.0595
0.065
0.073
0.08
0.0715
0.0465
0.031
0.042
0.071
0.0615
0.039
0.036
0.0415
0.067
0.075
0.045
0.043
0.0675
0.0635
0.061
0.063
0.0705
0.071
0.063
0.046
0.029
0.069
0.0735
0.0535
0.0445
0.033
0.0615
0.063
0.0895
0.1035
0.082
0.083
0.072
0.0715
0.081
0.073
0.08
0.0965
0.073
0.0785
0.096
0.0875
0.0575
0.0395
0.07
0.107
0.09
0.0555
0.0645
0.06
0.0645
0.0725
0.072
0.0765
0.079
0.0765
0.08
0.0755
0.075
0.091
0.078
0.083
0.0495
0.036
0.0635
0.0555
0.0745
0.0835
0.085
0.082
0.0565
0.0565
0.072
0.0845
0.0745
0.0535
0.061
0.05
0.037
0.075
0.085
0.0885
0.101
0.0815
0.072
0.08
0.1085
0.0925
0.0635
0.071
0.075
0.068
0.0625
0.0905
0.0785
0.0575
0.062
0.0575
0.0595
0.0575
0.0635
0.0525
0.0325
0.029
0.045
0.0655
0.0725
0.0705
0.0735
0.064
0.0605
0.0585
0.049
0.0615
0.063
0.066
0.07
0.0765
0.0705
0.0585
0.0685
0.073
0.072
0.1045
0.099
0.072
0.053
0.0445
0.059
0.042
0.0625
0.0735
0.079
0.069
0.0525
0.063
0.0635
0.079
0.0665
0.057
0.0645
0.0575
0.051
0.047
0.0515
0.0635
0.074
0.067
0.0565
0.0595
0.047
0.0455
0.046
0.029
0.044
0.0615
0.064
0.0665
0.0585
0.038
0.0405
0.069
0.07
0.069
0.063
0.086
0.1055
0.08
0.0795
0.0745
0.051
0.0475
0.047
0.0335
0.05
0.041
0.037
0.074
0.0575
0.0535
0.068
0.0485
0.0665
0.0805
0.068
0.0885
0.0915
0.0685
0.077
0.064
0.061
0.045
0.0265
0.0615
0.076
0.0885
0.084
0.0585
0.0555
0.0685
0.0695
0.0605
0.039
0.0365
0.044
0.058
0.0615
0.046
0.053
0.0375
0.0495
0.0655
0.067
0.07
0.062
0.076
0.0635
0.051
0.0675
0.0635
0.0545
0.052
0.0405
0.0355
0.039
0.0455
0.069
0.069
0.063
0.073
0.053
0.061
0.0515
0.0565
0.0725
0.052
0.055
0.042
0.053
0.0565
0.0415
0.0425
0.0505
0.0765
0.0765
0.049
0.0665
0.082
0.0625
0.0615
0.0795
0.08
0.0625
0.055
0.037
0.038
0.067
0.0875
0.0725
0.069
0.0875
0.0715
0.0585
0.0375
0.0575
0.081
0.075
0.073
0.0525
0.082
0.0925
0.0615
0.062
0.065
0.073
0.078
0.0735
0.082
0.0795
0.08
0.0735
0.0615
0.0645
0.0665
0.065
0.0635
0.065
0.053
0.0615
0.0835
0.084
0.074
0.0795
0.085
0.0655
0.079
0.0645
0.049
0.046
0.0415
0.066
0.0685
0.061
0.076
0.079
0.037
0.041
0.057
0.041
0.06
0.0865
0.061
0.057
0.0665
0.0605
0.0745
0.067
0.061
0.0715
0.077
0.044
0.0315
0.06
0.056
0.049
0.05
0.057
0.067
0.066
0.0715
0.056
0.06
0.079
0.0705
0.081
0.1
0.0885
0.058
0.057
0.0565
0.033
0.046
0.0605
0.054
0.05
0.0665
0.092
0.0965
0.1055
0.108
0.0935
0.085
0.1015
0.1115
0.117
0.092
0.078
0.0955
0.083
0.083
0.0835
0.087
0.096
0.1
0.0945
0.0955
0.115
0.0885
0.094
0.092
0.0785
0.1005
0.086
0.081
0.0785
0.063
0.0565
0.0975
0.133
0.117
0.1065
0.0935
0.0875
0.1095
0.1075
0.1225
0.1415
0.135
0.116
0.0965
0.1195
0.1315
0.129
0.1295
0.1215
0.134
0.1655
0.1465
0.129
0.148
0.1285
0.1115
0.1245
0.101
0.084
0.1115
0.128
0.1425
0.1375
0.1075
0.0995
0.1095
0.1085
0.0985
0.0915
0.0885
0.1095
0.0925
0.0875
0.107
0.086
0.0835
0.0735
0.0705
0.062
0.034
0.029
0.0655
0.0835
0.0595
0.064
0.07
0.046
0.056
0.0705
0.0625
0.0685
0.063
0.0825
0.0555
0.025
0.0455
0.045
0.044
0.0475
0.0455
0.0595
0.0895
0.084
0.0645
0.0835
0.068
0.045
0.0715
0.0605
0.067
0.074
0.0465
0.029
0.035
0.0395
0.041
0.0465
0.0435
0.051
0.0415
0.043
0.045
0.057
0.084
0.0705
0.069
0.0735
0.065
0.0745
0.081
0.069
0.0355
0.045
0.064
0.059
0.0565
0.0645
0.0675
0.0425
0.0605
0.0745
0.057
0.063
0.077
0.063
0.0515
0.049
0.038
0.022
0.005
0.0145
0.022
0.035
0.0545
0.06
0.0775
0.106
0.122
0.1485
0.2055
0.232
0.2435
0.2775
0.321
0.378
0.407
0.4405
0.4545
0.4375
0.4455
0.4705
0.466
0.425
0.402
0.4015
0.3805
0.3395
0.347
0.353
0.3445
0.34
0.3235
0.3125
0.2875
0.258
0.2175
0.1665
0.129
0.114
0.0885
0.0455
0.024
0.0215
0.0205
0.0205
0.0305
0.029
0.0305
0.045
0.055
0.0635
0.0725
0.062
0.0695
0.0855
0.071
0.0495
0.0415
0.062
0.043
0.061
0.0805
0.034
0.0255
0.017
0.0295
0.0725
0.0735
0.045
0.037
0.049
0.0465
0.0465
0.059
0.0655
0.0595
0.066
0.07
0.0765
0.1025
0.099
0.083
0.078
0.072
0.0705
0.0715
0.072
0.083
0.0845
0.0765
0.069
0.078
0.0875
0.0695
0.0685
0.0695
0.0795
0.077
0.057
0.0725
0.074
0.07
0.0805
0.0915
0.05
0.036
0.066
0.056
0.057
0.0585
0.071
0.0895
0.1025
0.084
0.0795
0.094
0.0615
0.0605
0.075
0.077
0.0785
0.074
0.0805
0.071
0.08
0.087
0.083
0.0865
0.095
0.104
0.0845
0.0985
0.094
0.0685
0.0605
0.059
0.0615
0.059
0.0675
0.073
0.0785
0.0625
0.069
0.084
0.09
0.1185
0.1155
0.0575
0.032
0.0685
0.088
0.0805
0.0725
0.0715
0.058
0.0705
0.0745
0.077
0.1005
0.0795
0.0895
0.0955
0.115
0.099
0.0385
0.0375
0.049
0.0745
0.0635
0.07
0.096
0.106
0.0815
0.049
0.0825
0.081
0.0615
0.074
0.0725
0.0775
0.0815
0.0655
0.076
0.0945
0.0755
0.074
0.0875
0.093
0.095
0.09
0.081
0.0645
0.0765
0.09
0.0885
0.0945
0.091
0.0885
0.0885
0.0825
0.0775
0.0945
0.111
0.091
0.083
0.075
0.066
0.0715
0.067
0.0845
0.0945
0.0715
0.0955
0.087
0.068
0.084
0.08
0.0935
0.0885
0.075
0.068
0.075
0.075
0.064
0.0575
0.033
0.052
0.0935
0.0925
0.0885
0.086
0.0965
0.0765
0.0595
0.0825
0.0905
0.0765
0.0725
0.0765
0.0585
0.0735
0.054
0.021
0.026
0.03
0.05
0.069
0.056
0.052
0.0555
0.0405
0.0655
0.067
0.041
0.055
0.0725
0.0575
0.049
0.067
0.059
0.0535
0.066
0.066
0.05
0.031
0.0385
0.052
0.0345
0.005
0.002
0.038
0.048
0.053
0.058
0.046
0.09
0.0745
0.0295
0.052
0.057
0.03
0.016
0.022
0.029
0.058
0.0465
0.033
0.0585
0.051
0.043
0.046
0.0435
0.021
0.01
0.0225
0.0395
0.062
0.0575
0.044
0.0435
0.045
0.0525
0.0565
0.0445
0.032
0.0235
0.0295
0.0505
0.0745
0.0805
0.0485
0.0385
0.05
0.0465
0.054
0.0535
0.058
0.057
0.056
0.063
0.0555
0.0475
0.035
0.0415
0.068
0.082
0.062
0.067
0.073
0.0705
0.0555
0.046
0.0635
0.079
0.0915
0.071
0.072
0.0505
0.0525
0.072
0.0665
0.06
0.046
0.064
0.059
0.0685
0.0825
0.07
0.0605
0.054
0.0745
0.0705
0.0675
0.087
0.0945
0.0975
0.0915
0.084
0.08
0.08
0.093
0.091
0.091
0.099
0.08
0.0735
0.071
0.068
0.064
0.077
0.095
0.0695
0.053
0.0645
0.067
0.0695
0.079
0.0855
0.0965
0.085
0.0895
0.104
0.0875
0.0975
0.1
0.0615
0.0735
0.0795
0.069
0.0675
0.0635
0.097
0.0875
0.092
0.0925
0.068
0.07
0.047
0.056
0.0855
0.0925
0.0825
0.0855
0.08
0.0545
0.085
0.0985
0.091
0.0745
0.065
0.0765
0.077
0.081
0.073
0.0805
0.078
0.084
0.0945
0.088
0.0975
0.0925
0.0935
0.0895
0.047
0.042
0.054
0.066
0.081
0.103
0.1125
0.0815
0.093
0.106
0.0865
0.0815
0.0955
0.077
0.0685
0.087
0.084
0.0965
0.0985
0.0815
0.081
0.0955
0.0815
0.068
0.064
0.056
0.074
0.061
0.0485
0.0615
0.078
0.0755
0.0645
0.0885
0.0775
0.0845
0.096
0.0595
0.0565
0.079
0.0865
0.0695
0.069
0.082
0.079
0.0705
0.0635
0.077
0.097
0.0825
0.083
0.0915
0.106
0.1195
0.1015
0.0935
0.074
0.0515
0.0655
0.086
0.0585
0.0425
0.0485
0.056
0.0775
0.0615
0.0715
0.0905
0.083
0.073
0.0615
0.0915
0.0935
0.083
0.089
0.061
0.0415
0.037
0.0545
0.0695
0.0565
0.062
0.0795
0.0835
0.0755
0.0705
0.0515
0.0475
0.071
0.072
0.0885
0.082
0.069
0.0925
0.0785
0.079
0.0925
0.0745
0.0885
0.094
0.0745
0.0625
0.0675
0.0735
0.072
0.083
0.079
0.0575
0.0525
0.077
0.077
0.076
0.0715
0.0585
0.0615
0.0475
0.0535
0.061
0.07
0.0935
0.079
0.0835
0.0835
0.072
0.083
0.0775
0.078
0.07
0.067
0.0705
0.0865
0.1005
0.079
0.074
0.086
0.074
0.0615
0.067
0.0695
0.062
0.061
0.072
0.065
0.0595
0.067
0.06
0.0795
0.0935
0.083
0.0895
0.069
0.077
0.1085
0.081
0.062
0.072
0.075
0.0805
0.0885
0.0865
0.093
0.0875
0.072
0.0755
0.0705
0.0605
0.0745
0.1065
0.106
0.0975
0.098
0.06
0.0395
0.063
0.0725
0.0755
0.081
0.076
0.0715
0.0685
0.0515
0.026
0.0495
0.0795
0.0675
0.0605
0.065
0.077
0.0855
0.0705
0.069
0.0815
0.0935
0.088
0.0775
0.1125
0.1145
0.0955
0.0935
0.0645
0.0635
0.0665
0.0685
0.082
0.0625
0.086
0.0995
0.0915
0.0935
0.0615
0.0685
0.0915
0.0905
0.0805
0.0675
0.0575
0.0555
0.0765
0.0675
0.0615
0.08
0.08
0.091
0.0845
0.0925
0.098
0.072
0.0885
0.1045
0.0775
0.0815
0.08
0.04
0.051
0.075
0.0905
0.0895
0.0825
0.089
0.0855
0.0905
0.103
0.099
0.0915
0.095
0.098
0.093
0.077
0.0865
0.0905
0.0735
0.0795
0.0935
0.099
0.096
0.0945
0.0965
0.1
0.101
0.0965
0.089
0.0895
0.0795
0.0695
0.0815
0.09
0.086
0.094
0.105
0.11
0.1085
0.101
0.129
0.1205
0.112
0.1575
0.1645
0.1655
0.1355
0.099
0.101
0.1055
0.1195
0.1305
0.1335
0.1055
0.098
0.116
0.1155
0.1185
0.1275
0.133
0.1265
0.1385
0.144
0.1165
0.0965
0.0835
0.1065
0.1275
0.1175
0.133
0.1245
0.117
0.123
0.133
0.149
0.1335
0.122
0.121
0.1325
0.14
0.1425
0.1555
0.1515
0.155
0.159
0.158
0.152
0.138
0.137
0.1305
0.1215
0.1305
0.128
0.1385
0.1545
0.1465
0.146
0.1385
0.126
0.1085
0.103
0.0975
0.101
0.105
0.0885
0.088
0.089
0.0915
0.0935
0.072
0.077
0.0815
0.065
0.0715
0.092
0.109
0.09
0.09
0.0895
0.073
0.076
0.0855
0.089
0.082
0.066
0.0505
0.044
0.054
0.065
0.0645
0.08
0.075
0.071
0.083
0.0785
0.061
0.069
0.087
0.0825
0.086
0.096
0.097
0.08
0.0785
0.089
0.078
0.069
0.0725
0.0715
0.0795
0.109
0.096
0.0565
0.0695
0.058
0.059
0.0965
0.0895
0.0635
0.049
0.073
0.0885
0.0725
0.0735
0.07
0.055
0.068
0.0685
0.059
0.065
0.0645
0.051
0.0525
0.056
0.0455
0.0475
0.0055
-0.005
0.0355
0.0355
0.059
0.0765
0.0805
0.106
0.113
0.1235
0.1435
0.1665
0.1935
0.223
0.256
0.2865
0.327
0.37
0.399
0.441
0.4755
0.481
0.49
0.511
0.538
0.511
0.46
0.431
0.409
0.388
0.364
0.3655
0.3425
0.3265
0.3175
0.284
0.2975
0.281
0.2445
0.2035
0.1515
0.14
0.1195
0.092
0.0705
0.052
0.041
0.0395
0.037
0.0295
0.0445
0.061
0.0465
0.039
0.0525
0.0715
0.0735
0.0715
0.0755
0.056
0.0575
0.068
0.065
0.0565
0.066
0.078
0.0675
0.0775
0.0515
0.0245
0.0655
0.0695
0.0755
0.111
0.0885
0.0765
0.0775
0.069
0.0815
0.067
0.06
0.0815
0.0795
0.0725
0.0575
0.067
0.083
0.0635
0.08
0.088
0.079
0.0775
0.0685
0.0875
0.096
0.0925
0.1
0.0815
0.062
0.071
0.092
0.092
0.072
0.094
0.0935
0.0735
0.0825
0.0845
0.097
0.0935
0.0975
0.081
0.065
0.0855
0.072
0.0725
0.0735
0.069
0.086
0.0835
0.0865
0.0985
0.0955
0.0785
0.0705
0.065
0.0685
0.077
0.073
0.0745
0.0745
0.07
0.071
0.0765
0.073
0.08
0.0805
0.074
0.08
0.086
0.104
0.1075
0.1
0.0925
0.066
0.06
0.077
0.074
0.0875
0.0875
0.0595
0.0655
0.079
0.091
0.071
0.0665
0.083
0.0825
0.0835
0.0855
0.087
0.081
0.0965
0.089
0.085
0.0825
0.079
0.096
0.084
0.084
0.0765
0.065
0.092
0.0985
0.0955
0.0945
0.0795
0.0775
0.078
0.0765
0.0755
0.0725
0.084
0.1105
0.0965
0.0735
0.0855
0.0995
0.102
0.102
0.114
0.1155
0.0935
0.0785
0.063
0.044
0.047
0.0585
0.0485
0.039
0.0505
0.064
0.0795
0.0705
0.061
0.0745
0.078
0.0865
0.097
0.0955
0.0905
0.0875
0.087
0.0815
0.094
0.076
0.066
0.0825
0.0795
0.085
0.0955
0.097
0.078
0.0745
0.0785
0.09
0.051
0.0465
0.1025
0.0865
0.0685
0.053
0.071
0.09
0.0705
0.0815
0.0915
0.0835
0.081
0.072
0.0595
0.073
0.078
0.076
0.061
0.0545
0.0565
0.0495
0.0545
0.051
0.043
0.05
0.0655
0.058
0.0585
0.079
0.095
0.0815
0.0575
0.0515
0.048
0.062
0.0725
0.076
0.075
0.076
0.072
0.0555
0.067
0.06
0.0385
0.031
0.0065
0.0125
0.029
0.024
0.034
0.0495
0.0535
0.046
0.036
0.0305
0.0355
0.032
0.0325
0.029
0.0235
0.0355
0.05
0.0515
0.047
0.049
0.0395
0.025
0.0165
0.0395
0.031
0.018
0.0415
0.047
0.0385
0.0295
0.0365
0.0205
0.016
0.0405
0.0455
0.045
0.0445
0.0335
0.0435
0.0505
0.0445
0.0405
0.029
0.0345
0.044
0.0515
0.0525
0.0465
0.0425
0.063
0.064
0.0525
0.052
0.043
0.058
0.0575
0.056
0.0525
0.059
0.06
0.06
0.055
0.044
0.0755
0.061
0.066
0.1025
0.096
0.0705
0.0555
0.061
0.071
0.0695
0.051
0.058
0.0585
0.0605
0.064
0.0565
0.0685
0.0645
0.064
0.065
0.061
0.0895
0.1085
0.0955
0.082
0.073
0.0835
0.0935
0.086
0.0865
0.08
0.0605
0.055
0.0605
0.0725
0.0775
0.0745
0.0835
0.0905
0.08
0.0745
0.07
0.048
0.0475
0.0545
0.0625
0.075
0.079
0.082
0.074
0.075
0.0705
0.0615
0.0795
0.0955
0.0785
0.066
0.0685
0.0725
0.0755
0.0645
0.059
0.056
0.0545
0.064
0.081
0.0895
0.099
0.0855
0.0645
0.0565
0.0705
0.1075
0.1035
0.088
0.0855
0.0755
0.0785
0.081
0.086
0.0995
0.0955
0.086
0.0895
0.089
0.082
0.0855
0.0895
0.0875
0.0845
0.0715
0.0545
0.047
0.061
0.0745
0.072
0.054
0.0495
0.058
0.066
0.063
0.0625
0.091
0.103
0.0895
0.075
0.074
0.087
0.0815
0.048
0.0445
0.0465
0.06
0.0765
0.0855
0.081
0.0545
0.0685
0.068
0.0665
0.076
0.078
0.0875
0.093
0.0875
0.064
0.078
0.106
0.092
0.0735
0.066
0.086
0.096
0.0865
0.091
0.082
0.073
0.0635
0.057
0.065
0.075
0.0595
0.0535
0.0635
0.051
0.058
0.0675
0.064
0.0595
0.054
0.056
0.048
0.0395
0.047
0.0635
0.073
0.065
0.0565
0.063
0.0645
0.077
0.071
0.053
0.073
0.0685
0.0595
0.0665
0.0735
0.069
0.077
0.0805
0.055
0.0715
0.0875
0.095
0.0975
0.0795
0.0655
0.0695
0.0705
0.061
0.051
0.055
0.0645
0.058
0.0865
0.088
0.0585
0.05
0.0485
0.0585
0.0555
0.0655
0.071
0.0715
0.079
0.063
0.058
0.068
0.067
0.053
0.0555
0.0605
0.065
0.072
0.0635
0.074
0.0755
0.0555
0.044
0.056
0.0675
0.07
0.073
0.069
0.073
0.0635
0.0685
0.08
0.0805
0.0665
0.0545
0.073
0.063
0.066
0.0945
0.1
0.092
0.0705
0.046
0.041
0.0595
0.066
0.0465
0.043
0.0455
0.054
0.0765
0.061
0.0515
0.062
0.051
0.049
0.052
0.0595
0.0635
0.0645
0.0805
0.076
0.0685
0.0685
0.0675
0.0605
0.056
0.0695
0.074
0.07
0.083
0.1005
0.074
0.0605
0.0805
0.0785
0.0895
0.0895
0.0765
0.086
0.0725
0.069
0.073
0.069
0.055
0.0615
0.0855
0.0695
0.068
0.0765
0.0845
0.0765
0.0815
0.0615
0.045
0.064
0.0485
0.0565
0.056
0.055
0.0605
0.073
0.0755
0.0605
0.0745
0.0755
0.072
0.0745
0.0715
0.0615
0.058
0.0615
0.0615
0.0685
0.0705
0.0655
0.0675
0.068
0.0735
0.0795
0.0825
0.072
0.0595
0.0685
0.0615
0.056
0.059
0.0715
0.0825
0.0705
0.0805
0.086
0.076
0.087
0.1055
0.113
0.0935
0.082
0.08
0.0775
0.0855
0.081
0.0635
0.0435
0.056
0.0625
0.055
0.062
0.0605
0.0535
0.0505
0.059
0.062
0.0605
0.0575
0.0415
0.055
0.0805
0.0745
0.0725
0.077
0.073
0.057
0.065
0.0975
0.0965
0.0875
0.092
0.0925
0.086
0.086
0.0815
0.067
0.082
0.086
0.0735
0.0665
0.072
0.0985
0.1015
0.095
0.081
0.0815
0.101
0.112
0.1135
0.101
0.0925
0.0865
0.0875
0.089
0.0825
0.082
0.093
0.099
0.0995
0.099
0.1065
0.119
0.124
0.12
0.112
0.1105
0.1325
0.139
0.1175
0.121
0.133
0.118
0.11
0.1165
0.1215
0.1225
0.1275
0.1375
0.1285
0.1215
0.11
0.118
0.128
0.1305
0.15
0.156
0.155
0.14
0.142
0.16
0.152
0.1435
0.1425
0.1355
0.1505
0.1525
0.1325
0.113
0.1095
0.127
0.123
0.1275
0.127
0.1335
0.139
0.1245
0.1155
0.0995
0.1
0.1085
0.099
0.0815
0.08
0.08
0.083
0.0745
0.05
0.042
0.0465
0.0665
0.062
0.0645
0.068
0.046
0.0455
0.0405
0.0415
0.052
0.056
0.0595
0.0755
0.0775
0.0645
0.068
0.0675
0.056
0.0545
0.069
0.0595
0.047
0.0615
0.077
0.079
0.0575
0.04
0.0445
0.0515
0.0525
0.052
0.053
0.059
0.0625
0.062
0.0635
0.047
0.0555
0.0515
0.039
0.056
0.056
0.06
0.0575
0.05
0.0595
0.0695
0.0605
0.063
0.055
0.042
0.052
0.057
0.055
0.0585
0.0735
0.0785
0.091
0.0915
0.0835
0.076
0.076
0.0795
0.069
0.062
0.0285
0.009
0.0145
0.0205
0.0275
0.029
0.0365
0.039
0.041
0.065
0.0915
0.121
0.1435
0.155
0.18
0.2165
0.2475
0.269
0.319
0.37
0.3935
0.414
0.4365
0.459
0.4675
0.483
0.4775
0.449
0.4285
0.399
0.3725
0.358
0.3655
0.3645
0.3615
0.356
0.332
0.321
0.303
0.294
0.26
0.182
0.1245
0.107
0.1035
0.092
0.056
0.0045
-0.0025
0.0155
0.0245
0.0345
0.043
0.04
0.0345
0.0495
0.055
0.0255
0.015
0.0395
0.047
0.0525
0.061
0.058
0.047
0.038
0.04
0.053
0.0455
0.0205
0.034
0.0555
0.0575
0.049
0.0385
0.0465
0.0695
0.0695
0.0645
0.0685
0.061
0.0745
0.073
0.0555
0.055
0.0535
0.0515
0.0405
0.062
0.0895
0.0905
0.078
0.0535
0.0455
0.049
0.0505
0.0605
0.063
0.067
0.0805
0.086
0.076
0.063
0.052
0.05
0.062
0.05
0.049
0.051
0.0405
0.051
0.0675
0.0705
0.062
0.0575
0.0645
0.07
0.067
0.075
0.0965
0.096
0.0755
0.0745
0.0805
0.0835
0.079
0.0695
0.0665
0.061
0.062
0.071
0.0745
0.0655
0.0635
0.07
0.068
0.064
0.0545
0.0495
0.0555
0.0545
0.0535
0.075
0.0785
0.061
0.0735
0.065
0.0555
0.0655
0.059
0.0615
0.072
0.088
0.0815
0.083
0.076
0.0755
0.086
0.0615
0.0615
0.0455
0.038
0.0565
0.0525
0.0625
0.076
0.09
0.086
0.048
0.038
0.058
0.0875
0.0985
0.078
0.0655
0.047
0.042
0.049
0.0535
0.069
0.0625
0.0525
0.057
0.0675
0.0855
0.0795
0.0605
0.0545
0.0575
0.0555
0.0485
0.0595
0.0705
0.063
0.069
0.079
0.068
0.0685
0.0625
0.0595
0.0665
0.0605
0.052
0.046
0.0735
0.0685
0.0445
0.0605
0.066
0.067
0.0675
0.0725
0.0765
0.073
0.0735
0.0665
0.061
0.0585
0.0585
0.0685
0.0675
0.0695
0.053
0.048
0.068
0.0705
0.086
0.0855
0.0665
0.0565
0.062
0.0645
0.066
0.0665
0.066
0.0695
0.056
0.0435
0.054
0.073
0.063
0.0425
0.038
0.041
0.0515
0.055
0.048
0.0465
0.034
0.022
0.034
0.047
0.0605
0.057
0.0525
0.065
0.079
0.074
0.031
0.023
0.041
0.0435
0.049
0.058
0.064
0.0545
0.0505
0.048
0.043
0.0445
0.0405
0.0375
0.038
0.031
0.035
0.0375
0.0405
0.045
0.0395
0.048
0.053
0.025
-0.0145
-0.0025
0.021
0.001
-0.01
0.007
0.0095
0.0045
0.0065
0.0055
0.0145
0.015
0.01
0.0095
0.0105
0.009
0.019
0.032
0.034
0.0345
0.0205
0.0175
0.023
0.03
0.0325
0.0285
0.025
0.0215
0.0205
0.0215
0.0265
0.0285
0.031
0.0255
0.028
0.0385
0.0245
0.0265
0.0305
0.027
0.0435
0.033
0.028
0.036
0.035
0.0365
0.036
0.0385
0.0275
0.033
0.04
0.0285
0.0355
0.037
0.0485
0.0695
0.068
0.066
0.0635
0.06
0.074
0.0775
0.073
0.077
0.0675
0.066
0.054
0.049
0.063
0.0685
0.0635
0.0605
0.071
0.0715
0.0765
0.072
0.076
0.0905
0.0735
0.042
0.037
0.067
0.078
0.064
0.0545
0.0585
0.0605
0.053
0.0485
0.046
0.058
0.0665
0.0545
0.0435
0.0345
0.038
0.0485
0.057
0.059
0.0605
0.0615
0.046
0.049
0.0655
0.063
0.0615
0.0605
0.065
0.075
0.0665
0.051
0.0455
0.0585
0.0495
0.054
0.0745
0.0845
0.0905
0.0615
0.047
0.05
0.0565
0.056
0.059
0.0675
0.0595
0.0485
0.0465
0.0505
0.0595
0.073
0.062
0.065
0.068
0.063
0.069
0.061
0.0665
0.065
0.0625
0.0665
0.0545
0.043
0.0385
0.036
0.033
0.0325
0.029
0.022
0.031
0.053
0.0605
0.074
0.095
0.088
0.051
0.058
0.081
0.0765
0.076
0.0735
0.087
0.086
0.076
0.0745
0.08
0.0705
0.049
0.047
0.0405
0.043
0.0605
0.065
0.0635
0.071
0.073
0.0815
0.0985
0.0835
0.0405
0.0345
0.0655
0.069
0.057
0.0415
0.042
0.0535
0.048
0.053
0.0495
0.0385
0.043
0.056
0.0615
0.0535
0.064
0.067
0.0485
0.0325
0.022
0.0265
0.023
0.034
0.046
0.0505
0.057
0.0525
0.0525
0.032
0.023
0.043
0.072
0.072
0.0565
0.0485
0.0415
0.0555
0.0705
0.068
0.0645
0.0635
0.0605
0.068
0.0705
0.0615
0.0555
0.0495
0.0435
0.0525
0.0425
0.036
0.049
0.049
0.0395
0.0225
0.025
0.0315
0.043
0.059
0.057
0.0455
0.0515
0.0525
0.0535
0.0545
0.047
0.062
0.0545
0.041
0.0245
0.015
0.018
0.0205
0.0325
0.038
0.039
0.046
0.0515
0.0595
0.053
0.044
0.0505
0.041
0.0465
0.0595
0.0495
0.036
0.0385
0.0685
0.0935
0.0895
0.085
0.0775
0.0615
0.067
0.075
0.0705
0.061
0.069
0.077
0.055
0.044
0.044
0.0475
0.063
0.06
0.0555
0.0745
0.081
0.056
0.0275
0.028
0.0375
0.027
0.0305
0.045
0.053
0.056
0.043
0.033
0.0355
0.041
0.041
0.0415
0.047
0.047
0.0465
0.0575
0.0545
0.043
0.0495
0.0615
0.0695
0.051
0.0395
0.047
0.0565
0.0695
0.073
0.0805
0.071
0.0675
0.074
0.054
0.05
0.0535
0.0595
0.0665
0.0475
0.0525
0.0605
0.0555
0.069
0.0575
0.051
0.069
0.073
0.075
0.0805
0.0855
0.07
0.0505
0.034
0.031
0.0485
0.045
0.0385
0.038
0.0385
0.0485
0.052
0.049
0.0535
0.0625
0.0615
0.0485
0.05
0.0575
0.0505
0.0365
0.0265
0.032
0.041
0.0465
0.0545
0.052
0.041
0.0305
0.043
0.0765
0.083
0.062
0.052
0.0555
0.0685
0.086
0.0855
0.0905
0.0995
0.102
0.09
0.0495
0.0275
0.045
0.061
0.0655
0.0645
0.0655
0.0685
0.0645
0.063
0.068
0.077
0.0645
0.054
0.0445
0.0305
0.034
0.037
0.051
0.0475
0.036
0.044
0.054
0.0565
0.053
0.0565
0.057
0.057
0.0715
0.081
0.079
0.074
0.075
0.0765
0.069
0.07
0.0735
0.066
0.0655
0.0735
0.065
0.067
0.0745
0.077
0.089
0.083
0.0735
0.058
0.055
0.073
0.084
0.1015
0.093
0.072
0.077
0.085
0.081
0.0845
0.1
0.1
0.0825
0.073
0.0905
0.101
0.098
0.1015
0.1005
0.1055
0.103
0.1
0.103
0.108
0.119
0.1205
0.127
0.1285
0.1175
0.106
0.1025
0.115
0.1175
0.1075
0.112
0.12
0.114
0.111
0.118
0.11
0.1115
0.127
0.1275
0.134
0.124
0.1225
0.1225
0.1175
0.128
0.128
0.1325
0.135
0.1335
0.105
0.094
0.11
0.112
0.1285
0.111
0.0855
0.086
0.071
0.069
0.0805
0.085
0.0815
0.0825
0.083
0.0675
0.073
0.092
0.0815
0.055
0.0455
0.0505
0.053
0.0535
0.0575
0.0685
0.063
0.0595
0.063
0.0605
0.0665
0.06
0.0425
0.0275
0.0285
0.0395
0.03
0.0225
0.0315
0.036
0.041
0.0435
0.05
0.063
0.0615
0.0465
0.033
0.0335
0.032
0.0175
0.024
0.043
0.0515
0.064
0.07
0.058
0.0505
0.0495
0.049
0.053
0.0525
0.063
0.074
0.055
0.0315
0.0315
0.034
0.036
0.0335
0.042
0.0555
0.0405
0.0405
0.0455
0.052
0.0635
0.07
0.0635
0.0515
0.06
0.0375
0.023
0.024
0.0225
0.0255
0.018
0.0145
0.007
0.0145
0.0225
0.037
0.047
0.053
0.081
0.093
0.1075
0.142
0.1795
0.2195
0.2415
0.274
0.322
0.359
0.387
0.402
0.4405
0.4475
0.45
0.5
0.5255
0.509
0.4755
0.445
0.4215
0.416
0.4055
0.3775
0.34
0.3325
0.339
0.3215
0.315
0.2885
0.231
0.1965
0.16
0.1185
0.1015
0.076
0.042
0.015
0.006
0.0155
0.011
0.015
0.041
0.0455
0.039
0.031
0.007
0.0075
0.021
0.0275
0.037
0.038
0.0395
0.03
0.0305
0.04
0.041
0.048
0.042
0.053
0.0635
0.0455
0.0385
0.031
0.03
0.033
0.025
0.032
0.043
0.0475
0.046
0.0395
0.035
0.0285
0.031
0.032
0.03
0.0335
0.039
0.052
0.049
0.0495
0.0565
0.0575
0.0565
0.0445
0.0325
0.022
0.021
0.033
0.0315
0.0185
0.037
0.056
0.055
0.0565
0.0465
0.039
0.0365
0.0385
0.061
0.075
0.0595
0.0505
0.053
0.0535
0.0505
0.0525
0.059
0.062
0.052
0.0435
0.0585
0.0505
0.044
0.0585
0.0585
0.0535
0.043
0.039
0.0525
0.0555
0.0545
0.0615
0.0605
0.057
0.056
0.0675
0.065
0.057
0.0395
0.0215
0.0375
0.0385
0.0385
0.0385
0.037
0.045
0.061
0.053
0.023
0.039
0.059
0.0505
0.0405
0.049
0.059
0.0565
0.0685
0.069
0.0505
0.0395
0.041
0.048
0.045
0.0375
0.0315
0.0405
0.0475
0.046
0.0475
0.05
0.063
0.063
0.0585
0.048
0.0315
0.0405
0.047
0.0475
0.064
0.072
0.0605
0.052
0.0555
0.0495
0.035
0.0295
0.036
0.041
0.042
0.0525
0.062
0.0705
0.0665
0.0615
0.0555
0.0625
0.068
0.0615
0.0615
0.05
0.0515
0.0375
0.0425
0.0555
0.058
0.0605
0.0505
0.058
0.0565
0.042
0.039
0.0495
0.054
0.0565
0.052
0.0495
0.0465
0.041
0.056
0.0695
0.0575
0.061
0.0665
0.0595
0.0635
0.049
0.0615
0.056
0.033
0.064
0.073
0.062
0.068
0.0485
0.039
0.039
0.0355
0.0535
0.0415
0.02
0.0295
0.034
0.0405
0.0415
0.0395
0.0515
0.0355
0.015
0.013
0.0145
0.0265
0.033
0.049
0.046
0.022
0.0295
0.03
0.0245
0.033
0.0385
0.032
0.0155
0.026
0.045
0.044
0.0395
0.0325
0.022
0.034
0.04
0.0335
0.0375
0.025
0.014
0.001
0.003
0.0205
0.024
0.024
0.0205
0.0175
0.0185
0.0305
0.0155
-0.016
-0.02
-0.012
0.0
0.008
0.0135
0.0075
0.004
0.005
0.0025
0.0185
0.0205
0.007
0.004
-0.001
-0.013
-0.0095
0.007
0.0205
0.0285
0.0255
0.015
0.015
0.026
0.025
0.017
0.009
0.0075
0.006
0.003
0.013
0.015
0.0155
0.038
0.041
0.0265
0.0395
0.048
0.0425
0.0465
0.049
0.041
0.03
0.026
0.0285
0.034
0.046
0.042
0.033
0.035
0.0345
0.034
0.034
0.0325
0.0405
0.0415
0.0365
0.0355
0.039
0.0495
0.049
0.047
0.055
0.036
0.019
0.0285
0.032
0.051
0.052
0.047
0.053
0.047
0.0555
0.047
0.034
0.0345
0.036
0.047
0.0525
0.058
0.062
0.0505
0.038
0.044
0.026
0.0195
0.053
0.0625
0.048
0.045
0.058
0.057
0.053
0.0415
0.041
0.045
0.0325
0.03
0.0425
0.0465
0.0325
0.046
0.0715
0.063
0.047
0.047
0.0535
0.061
0.069
0.0675
0.0465
0.0345
0.0335
0.035
0.0375
0.0375
0.0455
0.045
0.044
0.048
0.051
0.0575
0.056
0.052
0.054
0.059
0.0625
0.0675
0.077
0.08
0.0715
0.0585
0.0415
0.028
0.028
0.0285
0.025
0.036
0.0575
0.066
0.0595
0.06
0.0565
0.0225
0.013
0.0335
0.0485
0.0545
0.0595
0.058
0.0515
0.055
0.0445
0.046
0.039
0.0285
0.043
0.033
0.023
0.049
0.073
0.064
0.0545
0.0355
0.022
0.036
0.036
0.0425
0.0555
0.0635
0.0675
0.066
0.065
0.0525
0.0495
0.056
0.0535
0.0475
0.032
0.024
0.039
0.042
0.0415
0.045
0.033
0.0285
0.0355
0.0305
0.0225
0.027
0.037
0.041
0.0395
0.032
0.0165
0.0155
0.0295
0.035
0.043
0.052
0.05
0.033
0.039
0.0395
0.03
0.062
0.0695
0.054
0.036
0.0385
0.0645
0.0645
0.061
0.058
0.046
0.041
0.0425
0.0365
0.0385
0.0455
0.0415
0.022
0.009
0.013
0.0155
0.025
0.0355
0.045
0.0445
0.0465
0.0505
0.042
0.032
0.023
0.024
0.031
0.037
0.046
0.0455
0.035
0.0235
0.0125
0.011
0.0235
0.041
0.062
0.0665
0.067
0.0635
0.0295
0.0265
0.041
0.0435
0.043
0.037
0.0215
0.0235
0.0445
0.025
0.0335
0.055
0.043
0.0395
0.041
0.0495
0.0505
0.045
0.0415
0.0295
0.0295
0.0385
0.0485
0.0595
0.058
0.055
0.052
0.051
0.067
0.072
0.05
0.043
0.0505
0.033
0.0215
0.039
0.044
0.0455
0.043
0.032
0.0315
0.031
0.039
0.043
0.035
0.029
0.031
0.034
0.027
0.028
0.0335
0.044
0.0485
0.0525
0.055
0.0565
0.055
0.047
0.052
0.0515
0.058
0.0675
0.0605
0.0415
0.0405
0.0415
0.046
0.048
0.0285
0.041
0.0565
0.054
0.042
0.04
0.0565
0.058
0.061
0.063
0.0565
0.0465
0.036
0.046
0.056
0.0435
0.0355
0.0275
0.014
0.025
0.041
0.0405
0.0555
0.063
0.05
0.048
0.0525
0.049
0.0385
0.04
0.047
0.0465
0.044
0.0485
0.055
0.0475
0.0455
0.046
0.036
0.0395
0.03
0.0245
0.0495
0.0495
0.045
0.0485
0.047
0.0605
0.064
0.05
0.052
0.0415
0.0315
0.0535
0.078
0.082
0.0745
0.0705
0.0605
0.0475
0.0465
0.0575
0.0505
0.0445
0.038
0.032
0.0435
0.0465
0.0555
0.06
0.038
0.0235
0.0465
0.0635
0.0625
0.0575
0.046
0.047
0.0415
0.0475
0.064
0.061
0.057
0.0565
0.055
0.057
0.0625
0.0675
0.0665
0.0735
0.082
0.075
0.0775
0.089
0.0935
0.0965
0.0955
0.0885
0.092
0.098
0.095
0.099
0.1125
0.1125
0.0875
0.0845
0.1005
0.1165
0.106
0.0765
0.0835
0.0995
0.111
0.1045
0.0985
0.104
0.1005
0.0935
0.088
0.0995
0.107
0.0975
0.097
0.099
0.1015
0.117
0.1225
0.119
0.117
0.1155
0.1215
0.121
0.111
0.104
0.113
0.1325
0.131
0.124
0.1175
0.117
0.123
0.1355
0.1485
0.133
0.1235
0.1265
0.1245
0.1275
0.1285
0.1185
0.1115
0.101
0.0975
0.099
0.085
0.081
0.0815
0.088
0.086
0.0795
0.086
0.0945
0.101
0.0865
0.049
0.027
0.0395
0.049
0.043
0.0315
0.028
0.033
0.042
0.053
0.057
0.0535
0.0475
0.0475
0.045
0.0325
0.0315
0.0355
0.02
0.0205
0.0345
0.027
0.0205
0.0305
0.029
0.024
0.0205
0.0195
0.0335
0.038
0.0465
0.0565
0.0565
0.0475
0.0415
0.037
0.021
0.03
0.042
0.0545
0.0575
0.038
0.045
0.059
0.064
0.0505
0.0435
0.0475
0.034
0.0335
0.0405
0.046
0.045
0.039
0.04
0.05
0.0525
0.042
0.0395
0.044
0.05
0.0385
0.0345
0.036
0.0295
0.0275
0.0125
0.0025
0.0085
0.0235
0.0305
0.033
0.055
0.084
0.1025
0.129
0.1675
0.204
0.241
0.2635
0.291
0.343
0.3995
0.4375
0.471
0.505
0.5095
0.53
0.5595
0.57
0.5605
0.519
0.496
0.481
0.452
0.4365
0.4245
0.3965
0.393
0.38
0.351
0.354
0.297
0.2345
0.191
0.1215
0.1045
0.094
0.0625
0.0255
0.0035
0.002
-0.0075
-0.018
0.0065
0.035
0.031
0.0425
0.0375
0.0185
0.024
0.037
0.042
0.043
0.0485
0.0425
0.043
0.037
0.0345
0.0425
0.0285
0.0225
0.0195
0.0275
0.0275
0.0255
0.0235
0.021
0.0475
0.0595
0.071
0.067
0.062
0.061
0.057
0.0655
0.06
0.061
0.0415
0.0345
0.0425
0.038
0.0495
0.0425
0.0365
0.0435
0.036
0.034
0.0345
0.0385
0.0445
0.0475
0.0565
0.061
0.054
0.043
0.0425
0.048
0.047
0.045
0.051
0.0605
0.0595
0.04
0.027
0.0225
0.0155
0.012
0.0155
0.036
0.046
0.048
0.0555
0.0595
0.068
0.0625
0.053
0.0445
0.049
0.062
0.0525
0.052
0.065
0.072
0.0675
0.072
0.074
0.0435
0.011
0.0245
0.051
0.045
0.0345
0.046
0.061
0.053
0.045
0.056
0.0655
0.0505
0.039
0.042
0.0615
0.0645
0.0515
0.049
0.026
0.0365
0.0545
0.043
0.0435
0.0455
0.0515
0.0605
0.055
0.0515
0.059
0.0715
0.0715
0.0665
0.067
0.062
0.063
0.0605
0.059
0.0655
0.07
0.0575
0.0495
0.051
0.0465
0.05
0.06
0.0615
0.059
0.055
0.0455
0.045
0.052
0.072
0.0735
0.0505
0.0455
0.0545
0.0695
0.0685
0.0625
0.0685
0.044
0.0295
0.0405
0.0425
0.049
0.0525
0.0585
0.059
0.0575
0.058
0.06
0.06
0.061
0.069
0.069
0.061
0.0495
0.0595
0.0745
0.071
0.0695
0.072
0.0755
0.0705
0.058
0.0695
0.0855
0.077
0.0625
0.056
0.0535
0.047
0.0375
0.0295
0.039
0.0405
0.0425
0.051
0.0525
0.0365
0.0335
0.0645
0.0595
0.0505
0.0385
0.0175
0.054
0.0735
0.039
0.055
0.085
0.0855
0.078
0.0445
0.0335
0.0495
0.058
0.055
0.041
0.038
0.0575
0.066
0.047
0.033
0.0385
0.0475
0.046
0.0465
0.045
0.041
0.0395
0.0305
0.032
0.03
0.0315
0.022
0.0135
0.02
0.02
0.032
0.0255
0.014
0.011
0.013
0.02
0.0155
0.0195
0.027
0.02
0.016
0.0095
0.01
0.0295
0.0325
0.027
0.029
0.029
0.031
0.039
0.047
0.051
0.036
0.004
0.0065
0.023
0.024
0.0235
0.0235
0.026
0.0295
0.0315
0.039
0.0525
0.047
0.033
0.0405
0.0535
0.0385
0.0235
0.019
0.016
0.0235
0.027
0.019
0.0215
0.0265
0.029
0.032
0.034
0.0355
0.025
0.028
0.0305
0.028
0.028
0.0215
0.0305
0.0575
0.07
0.059
0.056
0.066
0.0575
0.047
0.0465
0.046
0.0545
0.0625
0.0625
0.068
0.072
0.0555
0.0525
0.0625
0.068
0.0715
0.072
0.079
0.073
0.0555
0.039
0.0415
0.057
0.0635
0.0675
0.0725
0.0725
0.065
0.0625
0.063
0.048
0.0445
0.053
0.0515
0.055
0.0575
0.0565
0.064
0.069
0.073
0.0765
0.073
0.0655
0.0565
0.0505
0.0515
0.0495
0.0495
0.0535
0.0595
0.0665
0.07
0.07
0.068
0.07
0.069
0.0675
0.061
0.049
0.0485
0.059
0.054
0.042
0.0525
0.062
0.0685
0.0815
0.0885
0.0885
0.096
0.1015
0.088
0.084
0.088
0.0775
0.0585
0.0505
0.049
0.054
0.064
0.0645
0.0735
0.071
0.082
0.073
0.0385
0.059
0.0675
0.057
0.066
0.0685
0.0715
0.082
0.078
0.064
0.061
0.058
0.0625
0.0715
0.0685
0.0685
0.0675
0.064
0.0715
0.0555
0.029
0.0385
0.047
0.036
0.0365
0.0375
0.04
0.046
0.054
0.05
0.0455
0.057
0.058
0.052
0.0435
0.052
0.0545
0.059
0.0645
0.054
0.0535
0.0565
0.064
0.06
0.0575
0.069
0.0735
0.0585
0.051
0.0655
0.0695
0.0705
0.0705
0.062
0.0575
0.072
0.079
0.0585
0.0535
0.056
0.0525
0.0515
0.0475
0.0615
0.0585
0.0545
0.06
0.041
0.034
0.0355
0.035
0.0445
0.042
0.038
0.04
0.043
0.063
0.082
0.091
0.085
0.077
0.0705
0.0645
0.0555
0.0445
0.044
0.057
0.0745
0.0595
0.049
0.056
0.059
0.0615
0.065
0.0605
0.0555
0.0495
0.0435
0.046
0.0645
0.086
0.0735
0.061
0.043
0.037
0.052
0.062
0.065
0.0655
0.051
0.0355
0.06
0.069
0.0645
0.0605
0.056
0.0505
0.03
0.0285
0.0395
0.0505
0.062
0.065
0.065
0.063
0.062
0.0635
0.059
0.0535
0.0525
0.0405
0.036
0.0495
0.062
0.0665
0.0585
0.0535
0.0545
0.04
0.0455
0.059
0.052
0.062
0.0595
0.0685
0.0915
0.0825
0.0625
0.05
0.051
0.06
0.0605
0.0575
0.057
0.057
0.063
0.0635
0.0625
0.063
0.0635
0.068
0.067
0.0655
0.0615
0.0515
0.0455
0.057
0.059
0.0435
0.0495
0.058
0.056
0.06
0.0685
0.078
0.091
0.0915
0.071
0.0535
0.0515
0.0665
0.0935
0.1035
0.088
0.0775
0.056
0.0525
0.059
0.0695
0.079
0.049
0.0435
0.0345
0.0395
0.055
0.061
0.073
0.064
0.0625
0.0595
0.068
0.0775
0.0755
0.0685
0.054
0.05
0.059
0.059
0.0505
0.051
0.057
0.0595
0.0575
0.0685
0.0665
0.071
0.083
0.0675
0.0635
0.0665
0.0755
0.091
0.0885
0.078
0.069
0.0645
0.06
0.056
0.0625
0.059
0.0575
0.071
0.077
0.072
0.071
0.0795
0.075
0.069
0.0655
0.0585
0.0705
0.0865
0.0885
0.084
0.083
0.074
0.076
0.0865
0.09
0.0825
0.062
0.058
0.0675
0.071
0.0665
0.068
0.073
0.08
0.077
0.0655
0.073
0.091
0.0955
0.0855
0.086
0.098
0.1125
0.1125
0.105
0.101
0.096
0.111
0.1125
0.093
0.1045
0.1215
0.1145
0.1105
0.122
0.137
0.1455
0.151
0.1425
0.1215
0.118
0.116
0.113
0.131
0.1465
0.1265
0.1145
0.12
0.116
0.1195
0.1265
0.1365
0.128
0.1185
0.13
0.14
0.14
0.143
0.1365
0.1375
0.1475
0.148
0.167
0.177
0.178
0.171
0.1565
0.1505
0.1495
0.159
0.1615
0.1595
0.1495
0.145
0.148
0.134
0.136
0.143
0.141
0.14
0.1235
0.1105
0.106
0.1005
0.0985
0.1045
0.108
0.095
0.096
0.0895
0.074
0.0835
0.087
0.082
0.074
0.0645
0.053
0.05
0.0675
0.0745
0.052
0.029
0.0195
0.029
0.0485
0.053
0.0545
0.0525
0.0535
0.052
0.048
0.053
0.046
0.042
0.048
0.047
0.051
0.059
0.061
0.0625
0.049
0.0435
0.0565
0.06
0.061
0.0515
0.0415
0.0445
0.0475
0.051
0.0585
0.0565
0.0525
0.068
0.0755
0.082
0.0865
0.0675
0.0715
0.0695
0.039
0.0425
0.0505
0.038
0.0485
0.069
0.069
0.0585
0.058
0.054
0.0565
0.0665
0.0635
0.059
0.0365
0.0335
0.049
0.0475
0.048
0.045
0.03
0.0265
0.039
0.0335
0.036
0.053
0.0685
0.0875
0.1065
0.1325
0.165
0.1995
0.2335
0.2705
0.294
0.3205
0.3945
0.4695
0.4975
0.518
0.529
0.528
0.5465
0.584
0.5945
0.5505
0.5195
0.5095
0.496
0.4755
0.4415
0.422
0.417
0.3935
0.3585
0.3475
0.335
0.301
0.2565
0.1995
0.153
0.143
0.1245
0.07
0.038
0.0285
0.0225
0.027
0.018
0.011
0.0195
0.039
0.0505
0.045
0.046
0.05
0.051
0.054
0.059
0.053
0.041
0.0345
0.0265
0.03
0.0335
0.031
0.035
0.04
0.0495
0.057
0.058
0.0655
0.064
0.062
0.0585
0.029
0.023
0.0345
0.0425
0.065
0.0695
0.067
0.0665
0.0555
0.0605
0.0625
0.055
0.0565
0.0595
0.063
0.0655
0.0665
0.0595
0.0545
0.0495
0.038
0.0415
0.0535
0.066
0.073
0.0625
0.0595
0.0575
0.0555
0.0535
0.0345
0.04
0.0415
0.0275
0.0275
0.0325
0.045
0.038
0.0395
0.047
0.043
0.046
0.0565
0.0705
0.0685
0.0735
0.076
0.0585
0.0615
0.084
0.094
0.083
0.059
0.0565
0.067
0.073
0.071
0.0575
0.053
0.044
0.0355
0.054
0.072
0.0735
0.0695
0.0675
0.07
0.0685
0.0635
0.0615
0.058
0.0545
0.0415
0.0555
0.0575
0.0165
0.042
0.066
0.044
0.051
0.073
0.087
0.076
0.066
0.074
0.08
0.074
0.0765
0.078
0.0705
0.065
0.0465
0.045
0.0415
0.0465
0.067
0.0625
0.06
0.0665
0.0725
0.0715
0.0675
0.063
0.061
0.065
0.076
0.0735
0.07
0.0745
0.0495
0.049
0.069
0.072
0.06
0.0605
0.0715
0.067
0.0595
0.0515
0.051
0.057
0.066
0.061
0.063
0.0655
0.0595
0.069
0.0695
0.073
0.077
0.076
0.072
0.058
0.062
0.069
0.072
0.0685
0.0605
0.0605
0.0715
0.088
0.088
0.0935
0.087
0.0685
0.065
0.062
0.07
0.0755
0.068
0.0615
0.0645
0.065
0.065
0.0715
0.084
0.0795
0.058
0.05
0.0505
0.0525
0.0545
0.054
0.058
0.073
0.064
0.0525
0.046
0.0295
0.0415
0.0685
0.056
0.036
0.0445
0.0395
0.0695
0.0845
0.0585
0.052
0.069
0.0705
0.041
0.034
0.0405
0.055
0.0615
0.051
0.043
0.042
0.047
0.042
0.0375
0.036
0.028
0.0265
0.0345
0.04
0.04
0.0485
0.048
0.044
0.048
0.037
0.019
0.014
0.019
0.0255
0.039
0.0365
0.038
0.045
0.0305
0.0105
0.006
0.014
0.005
-0.008
-0.0005
0.0035
0.01
0.042
0.0495
0.0455
0.0365
0.0175
0.0215
0.022
0.023
0.023
0.0205
0.0285
0.0355
0.0285
0.0265
0.0335
0.03
0.032
0.0365
0.0365
0.043
0.053
0.059
0.051
0.0475
0.061
0.0515
0.031
0.0325
0.0285
0.0415
0.056
0.0385
0.047
0.038
0.016
0.0375
0.0365
0.038
0.05
0.0555
0.0585
0.0525
0.062
0.0545
0.056
0.055
0.045
0.0605
0.052
0.0505
0.0515
0.064
0.0795
0.0685
0.0755
0.081
0.069
0.0645
0.071
0.067
0.066
0.071
0.073
0.0695
0.069
0.0675
0.0575
0.0505
0.056
0.069
0.0655
0.0725
0.0755
0.059
0.0635
0.0675
0.057
0.0515
0.0395
0.0345
0.0435
0.0495
0.0475
0.0415
0.038
0.0335
0.043
0.057
0.0605
0.062
0.057
0.0575
0.057
0.0475
0.0525
0.0665
0.0675
0.064
0.0615
0.065
0.077
0.0785
0.067
0.063
0.0685
0.074
0.076
0.0545
0.047
0.0655
0.082
0.0815
0.073
0.078
0.0775
0.0755
0.077
0.0835
0.08
0.0655
0.0605
0.0615
0.053
0.05
0.0485
0.047
0.0535
0.042
0.039
0.043
0.0425
0.049
0.039
0.0425
0.064
0.0735
0.0695
0.0625
0.0675
0.0665
0.0605
0.0515
0.046
0.0565
0.0595
0.071
0.075
0.07
0.0705
0.071
0.0785
0.0815
0.067
0.0385
0.0305
0.0405
0.0505
0.04
0.048
0.0745
0.073
0.067
0.0625
0.061
0.0605
0.0585
0.0495
0.0485
0.046
0.037
0.0475
0.0505
0.051
0.062
0.065
0.0615
0.0555
0.0485
0.0435
0.052
0.0645
0.06
0.051
0.0395
0.0335
0.037
0.044
0.048
0.041
0.041
0.0455
0.042
0.0435
0.0675
0.078
0.068
0.063
0.057
0.0545
0.06
0.066
0.0575
0.0545
0.055
0.046
0.0355
0.0465
0.06
0.059
0.0635
0.0495
0.036
0.047
0.0395
0.0125
0.01
0.0275
0.0545
0.0665
0.073
0.0815
0.067
0.058
0.039
0.0325
0.0505
0.0515
0.0435
0.0275
0.018
0.028
0.042
0.0445
0.0325
0.0245
0.03
0.028
0.0285
0.035
0.046
0.064
0.0585
0.0515
0.0585
0.0555
0.06
0.064
0.0595
0.058
0.05
0.0425
0.04
0.0435
0.0495
0.0605
0.072
0.0665
0.0475
0.045
0.0505
0.042
0.049
0.0565
0.0465
0.0485
0.0685
0.0775
0.0725
0.055
0.052
0.0675
0.0635
0.069
0.0655
0.064
0.0515
0.022
0.037
0.0545
0.059
0.0595
0.0495
0.052
0.062
0.0655
0.047
0.049
0.0735
0.063
0.0595
0.061
0.0525
0.055
0.06
0.0625
0.064
0.066
0.065
0.064
0.058
0.0605
0.066
0.062
0.066
0.0695
0.063
0.0605
0.061
0.065
0.063
0.054
0.0605
0.0625
0.054
0.0345
0.0255
0.046
0.0525
0.05
0.051
0.047
0.0555
0.057
0.0555
0.0585
0.0495
0.05
0.062
0.0715
0.0695
0.0565
0.038
0.033
0.048
0.0535
0.0555
0.061
0.0565
0.06
0.0605
0.052
0.0495
0.0455
0.041
0.048
0.0555
0.0595
0.069
0.075
0.076
0.076
0.062
0.042
0.052
0.071
0.0655
0.057
0.0555
0.051
0.0605
0.07
0.0645
0.0595
0.057
0.063
0.0675
0.078
0.083
0.0655
0.065
0.0725
0.0745
0.0755
0.0715
0.073
0.07
0.0665
0.0705
0.072
0.082
0.084
0.0795
0.088
0.0895
0.095
0.1015
0.107
0.1165
0.1245
0.1315
0.1135
0.086
0.094
0.109
0.1145
0.1185
0.1065
0.1085
0.117
0.1245
0.1395
0.149
0.142
0.1285
0.131
0.12
0.1175
0.124
0.124
0.136
0.1345
0.1295
0.122
0.1185
0.1295
0.1275
0.122
0.1405
0.1475
0.1275
0.126
0.1285
0.1275
0.1405
0.153
0.1645
0.174
0.1645
0.15
0.138
0.1315
0.1365
0.1415
0.138
0.1405
0.1535
0.136
0.114
0.1165
0.119
0.1155
0.114
0.1245
0.1355
0.1265
0.1105
0.1015
0.1095
0.1095
0.061
0.044
0.06
0.0465
0.0465
0.0555
0.0595
0.0645
0.0465
0.0305
0.0455
0.0615
0.065
0.067
0.0575
0.056
0.058
0.046
0.059
0.0715
0.062
0.0595
0.055
0.0435
0.0445
0.0505
0.054
0.0605
0.055
0.0415
0.044
0.0515
0.0595
0.0575
0.042
0.038
0.0325
0.0415
0.058
0.057
0.0635
0.065
0.0595
0.054
0.054
0.061
0.053
0.039
0.042
0.052
0.054
0.0605
0.0655
0.0715
0.065
0.0675
0.074
0.0635
0.07
0.0385
0.0305
0.053
0.043
0.0405
0.0365
0.039
0.0365
0.035
0.038
0.043
0.0385
0.02
0.0125
0.0185
0.0255
0.03
0.026
0.021
0.0455
0.0735
0.1015
0.147
0.2045
0.254
0.284
0.3165
0.342
0.3445
0.3995
0.472
0.5145
0.553
0.5685
0.5895
0.6125
0.616
0.5805
0.5435
0.531
0.514
0.501
0.478
0.4495
0.4295
0.4165
0.4005
0.377
0.3505
0.303
0.25
0.2045
0.161
0.13
0.11
0.0835
0.0545
0.0345
0.019
0.019
0.028
0.035
0.047
0.052
0.0485
0.0405
0.0335
0.0335
0.023
0.022
0.0355
0.0375
0.0345
0.0245
0.0255
0.042
0.0575
0.048
0.033
0.04
0.0395
0.0355
0.031
0.015
0.027
0.058
0.069
0.0675
0.0505
0.0425
0.041
0.0445
0.049
0.0505
0.062
0.0515
0.0445
0.059
0.05
0.0315
0.0335
0.0275
0.0165
0.0235
0.0345
0.042
0.057
0.075
0.0715
0.072
0.0705
0.057
0.062
0.0625
0.0635
0.0635
0.0585
0.055
0.0465
0.058
0.0645
0.0505
0.0345
0.0355
0.0475
0.0475
0.052
0.065
0.0675
0.072
0.0765
0.0615
0.0475
0.041
0.0475
0.049
0.0455
0.062
0.0665
0.058
0.0575
0.0595
0.0585
0.0545
0.0595
0.0605
0.0605
0.0675
0.0685
0.072
0.069
0.065
0.072
0.0685
0.065
0.075
0.0725
0.06
0.056
0.0595
0.0545
0.0495
0.0475
0.0515
0.063
0.058
0.0575
0.07
0.075
0.077
0.0645
0.066
0.082
0.076
0.0805
0.078
0.0715
0.067
0.0605
0.0655
0.0705
0.082
0.0865
0.0745
0.0595
0.037
0.022
0.049
0.0565
0.042
0.0695
0.081
0.0785
0.1025
0.082
0.054
0.074
0.066
0.0585
0.059
0.051
0.0475
0.0455
0.05
0.0475
0.065
0.074
0.072
0.0655
0.0585
0.0625
0.065
0.0715
0.068
0.07
0.074
0.079
0.0615
0.047
0.0735
0.0855
0.087
0.074
0.0595
0.0505
0.0445
0.0645
0.069
0.0685
0.082
0.079
0.0825
0.086
0.0775
0.0675
0.063
0.0655
0.0685
0.081
0.079
0.0675
0.073
0.081
0.0695
0.0605
0.069
0.078
0.077
0.06
0.053
0.0545
0.054
0.0575
0.056
0.0525
0.0535
0.063
0.0685
0.0665
0.058
0.0485
0.0435
0.043
0.044
0.044
0.037
0.042
0.048
0.0405
0.0565
0.0695
0.067
0.065
0.059
0.0585
0.069
0.0585
0.0415
0.0425
0.0555
0.0615
0.036
0.015
-0.001
-0.002
0.015
0.023
0.03
0.025
0.0155
0.018
0.0205
0.026
0.039
0.0335
0.018
0.0225
0.0275
0.0195
0.014
0.0245
0.0285
0.0325
0.0415
0.0385
0.0375
0.033
0.029
0.0275
0.0325
0.0375
0.034
0.0345
0.027
0.019
0.024
0.029
0.034
0.0405
0.0505
0.047
0.032
0.029
0.0295
0.029
0.026
0.029
0.031
0.0335
0.034
0.0305
0.0535
0.0555
0.029
0.0405
0.0635
0.063
0.055
0.058
0.0625
0.063
0.049
0.039
0.046
0.05
0.051
0.0525
0.0615
0.0665
0.074
0.071
0.065
0.071
0.076
0.0675
0.046
0.0425
0.0455
0.046
0.0515
0.0525
0.0535
0.0465
0.0495
0.058
0.0725
0.11
0.1015
0.073
0.065
0.0485
0.0515
0.054
0.0395
0.0375
0.046
0.058
0.061
0.06
0.065
0.0725
0.0665
0.0555
0.0595
0.0645
0.068
0.0545
0.0195
0.019
0.0485
0.047
0.048
0.065
0.0675
0.0665
0.057
0.0505
0.057
0.066
0.058
0.0355
0.0355
0.0575
0.069
0.0685
0.0645
0.063
0.0725
0.076
0.078
0.0725
0.0665
0.077
0.0725
0.0635
0.0605
0.051
0.055
0.068
0.07
0.067
0.0465
0.045
0.0805
0.0925
0.08
0.064
0.0625
0.0605
0.06
0.073
0.077
0.059
0.057
0.0795
0.0825
0.0755
0.0625
0.0505
0.0565
0.063
0.0585
0.0355
0.0225
0.0365
0.035
0.0415
0.056
0.0585
0.063
0.056
0.055
0.0525
0.0495
0.0595
0.061
0.0575
0.0475
0.0515
0.0555
0.052
0.0605
0.057
0.0545
0.059
0.0465
0.033
0.039
0.056
0.0755
0.082
0.0725
0.054
0.044
0.045
0.0475
0.0395
0.022
0.036
0.054
0.055
0.0475
0.037
0.039
0.048
0.0605
0.0645
0.0635
0.0575
0.0515
0.0555
0.059
0.058
0.055
0.0445
0.04
0.0365
0.026
0.034
0.047
0.0445
0.036
0.0315
0.02
0.036
0.0715
0.0695
0.0645
0.0585
0.046
0.045
0.057
0.072
0.0615
0.0505
0.0505
0.0515
0.0555
0.0545
0.054
0.054
0.0475
0.049
0.051
0.0485
0.0695
0.0795
0.06
0.0465
0.034
0.036
0.052
0.052
0.042
0.0435
0.065
0.0605
0.036
0.0445
0.0325
0.016
0.0275
0.033
0.04
0.045
0.0495
0.059
0.0535
0.042
0.0505
0.0675
0.0955
0.0965
0.0585
0.042
0.0505
0.0455
0.0315
0.0365
0.0445
0.0435
0.037
0.0335
0.034
0.037
0.0465
0.047
0.0485
0.044
0.043
0.061
0.0545
0.043
0.0485
0.05
0.048
0.0425
0.0495
0.0605
0.0545
0.0565
0.0465
0.0415
0.052
0.0475
0.0625
0.0715
0.0695
0.064
0.0645
0.079
0.0795
0.067
0.0405
0.041
0.05
0.042
0.0435
0.04
0.0445
0.057
0.058
0.0575
0.0705
0.0865
0.0705
0.04
0.033
0.0495
0.064
0.064
0.065
0.0615
0.0515
0.057
0.0545
0.0495
0.0625
0.0555
0.0425
0.0445
0.043
0.039
0.0365
0.041
0.0435
0.0475
0.0635
0.066
0.0585
0.0595
0.0685
0.067
0.055
0.0495
0.0615
0.068
0.0565
0.055
0.0585
0.063
0.0615
0.0495
0.0395
0.038
0.0375
0.04
0.0485
0.049
0.0585
0.0685
0.0665
0.0695
0.0745
0.065
0.0575
0.066
0.0725
0.0695
0.063
0.0665
0.063
0.045
0.0515
0.065
0.0695
0.0765
0.0655
0.0635
0.073
0.0695
0.0675
0.072
0.0795
0.0835
0.077
0.0725
0.0675
0.08
0.105
0.1115
0.1255
0.1135
0.0965
0.1125
0.1245
0.1265
0.1195
0.102
0.096
0.1185
0.1315
0.1285
0.1305
0.1415
0.148
0.1435
0.1575
0.1455
0.1125
0.1005
0.089
0.09
0.104
0.102
0.1065
0.12
0.1215
0.128
0.1285
0.125
0.116
0.1105
0.123
0.137
0.139
0.142
0.1635
0.1585
0.1535
0.1675
0.165
0.15
0.1295
0.138
0.1495
0.1435
0.128
0.11
0.1115
0.121
0.127
0.117
0.119
0.132
0.1215
0.108
0.103
0.102
0.097
0.0815
0.0645
0.052
0.0435
0.0465
0.051
0.054
0.0545
0.0575
0.0645
0.0615
0.0445
0.0445
0.0565
0.049
0.0285
0.021
0.0345
0.0355
0.03
0.0325
0.0245
0.0205
0.0245
0.0235
0.0325
0.055
0.0635
0.058
0.065
0.08
0.0755
0.037
0.0145
0.0345
0.0355
0.0335
0.044
0.0305
0.0245
0.0395
0.039
0.036
0.031
0.0195
0.0225
0.0335
0.0535
0.0555
0.0475
0.0545
0.064
0.061
0.052
0.0595
0.0645
0.0505
0.0465
0.045
0.0325
0.03
0.0205
0.025
0.033
0.0315
0.0455
0.0535
0.0475
0.0305
0.0275
0.033
0.0235
0.022
0.021
0.01
0.0095
0.016
0.024
0.0305
0.046
0.068
0.076
0.1065
0.1565
0.1935
0.2315
0.2795
0.3165
0.331
0.377
0.433
0.471
0.515
0.538
0.558
0.5825
0.6005
0.6
0.559
0.523
0.5195
0.5095
0.4885
0.4605
0.426
0.396
0.376
0.356
0.3385
0.3135
0.2735
0.2185
0.1405
0.1005
0.0955
0.0745
0.0435
0.027
0.026
0.029
0.004
-0.0165
0.0145
0.042
0.0605
0.0495
0.0395
0.0405
0.029
0.042
0.0515
0.0475
0.038
0.0405
0.048
0.041
0.042
0.0395
0.029
0.03
0.029
0.0255
0.026
0.0285
0.037
0.042
0.0495
0.046
0.033
0.03
0.0255
0.027
0.036
0.037
0.036
0.039
0.0365
0.0425
0.048
0.0445
0.0435
0.035
0.037
0.04
0.0385
0.036
0.016
0.0095
0.0425
0.065
0.0495
0.039
0.0485
0.063
0.0725
0.069
0.054
0.047
0.041
0.0285
0.027
0.034
0.0395
0.0435
0.052
0.0565
0.058
0.0565
0.0485
0.048
0.0525
0.065
0.068
0.0595
0.0525
0.0425
0.037
0.0405
0.0515
0.053
0.0565
0.0695
0.054
0.045
0.057
0.0605
0.062
0.0625
0.066
0.0465
0.0365
0.0525
0.0625
0.059
0.0395
0.047
0.057
0.063
0.0655
0.0535
0.0445
0.0455
0.0545
0.0525
0.054
0.0665
0.075
0.0805
0.0745
0.055
0.0545
0.0615
0.059
0.068
0.063
0.0445
0.043
0.0475
0.0445
0.0445
0.049
0.0485
0.0465
0.0455
0.0535
0.0605
0.062
0.0645
0.0615
0.07
0.064
0.031
0.036
0.073
0.065
0.062
0.092
0.074
0.0415
0.048
0.063
0.068
0.0765
0.0845
0.0775
0.069
0.0715
0.075
0.069
0.063
0.066
0.0695
0.0715
0.059
0.048
0.054
0.047
0.056
0.064
0.0655
0.074
0.065
0.0635
0.067
0.067
0.0515
0.0385
0.0425
0.054
0.0605
0.055
0.073
0.088
0.0975
0.107
0.0745
0.0575
0.064
0.0645
0.064
0.0585
0.0595
0.062
0.059
0.0595
0.061
0.054
0.0505
0.064
0.0735
0.0715
0.07
0.058
0.0565
0.051
0.0465
0.052
0.048
0.051
0.053
0.0535
0.059
0.065
0.064
0.0575
0.058
0.053
0.0415
0.048
0.051
0.05
0.0615
0.064
0.0575
0.043
0.0405
0.034
0.011
0.0195
0.0405
0.0455
0.037
0.0295
0.039
0.0405
0.0415
0.043
0.04
0.0435
0.0375
0.0335
0.038
0.035
0.033
0.0355
0.032
0.0315
0.0355
0.0355
0.0265
0.027
0.0255
0.0
-0.0025
0.022
0.0315
0.025
0.024
0.016
0.001
0.005
0.021
0.0225
0.0125
0.0155
0.023
0.032
0.042
0.043
0.0405
0.035
0.0255
0.032
0.0445
0.0435
0.0485
0.0285
0.008
0.0345
0.0495
0.042
0.0415
0.0395
0.045
0.046
0.0295
0.036
0.059
0.0595
0.049
0.0455
0.0445
0.052
0.0585
0.057
0.0505
0.042
0.0455
0.0535
0.0585
0.058
0.052
0.0445
0.0445
0.0555
0.067
0.0745
0.057
0.0315
0.0475
0.069
0.0645
0.0615
0.0735
0.076
0.07
0.068
0.077
0.0765
0.0635
0.0635
0.059
0.049
0.046
0.058
0.0645
0.0625
0.0685
0.073
0.0655
0.069
0.0815
0.0845
0.0875
0.0835
0.081
0.0665
0.0495
0.0605
0.0615
0.055
0.0605
0.063
0.0585
0.0595
0.0615
0.061
0.064
0.0695
0.0705
0.068
0.073
0.07
0.0655
0.0655
0.068
0.0585
0.033
0.0385
0.062
0.0625
0.0605
0.0605
0.0595
0.072
0.0815
0.0775
0.079
0.0735
0.073
0.0745
0.055
0.0655
0.0625
0.0525
0.067
0.0685
0.0615
0.049
0.057
0.0735
0.075
0.079
0.0785
0.068
0.0625
0.0675
0.07
0.0705
0.0725
0.052
0.047
0.054
0.048
0.056
0.0595
0.0545
0.0525
0.057
0.058
0.057
0.063
0.0745
0.083
0.0725
0.0515
0.0435
0.0645
0.0765
0.076
0.074
0.0655
0.0725
0.0755
0.0715
0.0655
0.0635
0.0595
0.061
0.0745
0.066
0.055
0.063
0.072
0.0695
0.056
0.0455
0.054
0.058
0.0525
0.057
0.066
0.064
0.055
0.049
0.046
0.054
0.0595
0.058
0.05
0.049
0.057
0.057
0.0485
0.0515
0.05
0.0455
0.05
0.0415
0.041
0.046
0.0455
0.0425
0.043
0.048
0.061
0.0675
0.073
0.0625
0.0325
0.046
0.057
0.059
0.0515
0.048
0.0605
0.0505
0.058
0.0515
0.037
0.053
0.057
0.0495
0.066
0.0725
0.0515
0.0525
0.0515
0.0465
0.0505
0.056
0.0565
0.0495
0.0475
0.0475
0.0495
0.051
0.0595
0.0575
0.0505
0.054
0.056
0.0575
0.062
0.066
0.073
0.0725
0.0585
0.0525
0.0495
0.0535
0.0585
0.054
0.051
0.0435
0.0375
0.0445
0.05
0.058
0.058
0.034
0.0295
0.0335
0.0465
0.068
0.0765
0.074
0.063
0.074
0.082
0.0905
0.0895
0.0605
0.0425
0.0465
0.057
0.055
0.059
0.063
0.059
0.05
0.052
0.0615
0.061
0.0565
0.0545
0.0565
0.053
0.05
0.0505
0.062
0.0645
0.0635
0.0645
0.0595
0.06
0.06
0.068
0.068
0.064
0.0625
0.0565
0.055
0.0495
0.0585
0.0635
0.0665
0.0775
0.0595
0.042
0.0295
0.043
0.0785
0.084
0.083
0.075
0.053
0.042
0.0435
0.0425
0.043
0.058
0.0685
0.0695
0.0635
0.064
0.0665
0.068
0.0815
0.0795
0.069
0.068
0.068
0.0665
0.0695
0.072
0.0695
0.0685
0.0655
0.0635
0.0715
0.076
0.081
0.089
0.074
0.0625
0.08
0.0775
0.0595
0.062
0.0605
0.0565
0.0545
0.0525
0.057
0.0525
0.0555
0.0685
0.072
0.0735
0.0685
0.051
0.051
0.071
0.079
0.084
0.095
0.0965
0.105
0.119
0.1215
0.1215
0.112
0.1055
0.1145
0.123
0.1235
0.1295
0.123
0.1145
0.1215
0.124
0.13
0.1395
0.1475
0.15
0.1425
0.126
0.1245
0.131
0.126
0.131
0.133
0.1375
0.1435
0.1375
0.1365
0.135
0.132
0.134
0.1295
0.1295
0.138
0.1525
0.16
0.163
0.164
0.1505
0.165
0.1855
0.1815
0.159
0.155
0.163
0.1465
0.147
0.1765
0.1895
0.1735
0.1555
0.152
0.1555
0.1405
0.135
0.1315
0.123
0.126
0.12
0.114
0.105
0.0965
0.0745
0.0615
0.0675
0.0615
0.0575
0.061
0.064
0.059
0.0605
0.064
0.0715
0.0835
0.0815
0.0755
0.0625
0.034
0.0195
0.0385
0.057
0.0485
0.034
0.037
0.048
0.0425
0.045
0.06
0.0615
0.0685
0.086
0.078
0.058
0.051
0.046
0.05
0.0625
0.064
0.0635
0.064
0.06
0.056
0.06
0.062
0.059
0.048
0.0375
0.0485
0.052
0.05
0.0525
0.048
0.047
0.0565
0.0555
0.051
0.048
0.042
0.04
0.049
0.0655
0.071
0.07
0.077
0.0945
0.0945
0.076
0.0535
0.033
0.0245
0.033
0.0385
0.0485
0.04
0.0095
0.018
0.023
0.013
0.011
0.02
0.0485
0.0725
0.0915
0.11
0.1275
0.1595
0.197
0.2375
0.287
0.3285
0.37
0.424
0.4705
0.501
0.5325
0.56
0.588
0.617
0.6365
0.6375
0.606
0.5755
0.5565
0.515
0.477
0.47
0.45
0.4255
0.4025
0.365
0.34
0.3045
0.258
0.212
0.162
0.1225
0.0895
0.062
0.0275
-0.0045
-0.01
0.001
0.0215
0.044
0.0465
0.0465
0.06
0.0495
0.0435
0.058
0.056
0.057
0.0625
0.0505
0.04
0.0425
0.0435
0.0465
0.0445
0.041
0.04
0.04
0.05
0.051
0.0465
0.044
0.0465
0.0525
0.061
0.0695
0.076
0.0745
0.064
0.0605
0.0625
0.051
0.047
0.065
0.072
0.063
0.052
0.057
0.0675
0.0545
0.047
0.058
0.0575
0.054
0.056
0.0605
0.063
0.059
0.052
0.0485
0.0555
0.062
0.0705
0.083
0.087
0.079
0.058
0.0475
0.0525
0.056
0.055
0.05
0.059
0.066
0.0665
0.072
0.061
0.0575
0.0675
0.0755
0.073
0.0645
0.066
0.057
0.063
0.0795
0.066
0.0565
0.0705
0.053
0.0385
0.0705
0.0775
0.07
0.065
0.0585
0.0625
0.06
0.059
0.068
0.072
0.08
0.0795
0.064
0.058
0.0555
0.0615
0.0675
0.0765
0.096
0.0935
0.0755
0.068
0.0735
0.074
0.0685
0.07
0.0725
0.0735
0.0735
0.0755
0.0695
0.0645
0.0645
0.067
0.0715
0.072
0.0705
0.0745
0.085
0.0855
0.074
0.0675
0.068
0.073
0.086
0.0855
0.0695
0.0605
0.067
0.078
0.091
0.099
0.095
0.073
0.052
0.0665
0.0785
0.0825
0.08
0.071
0.074
0.067
0.0735
0.085
0.077
0.0765
0.075
0.073
0.0765
0.079
0.0855
0.091
0.097
0.097
0.0865
0.065
0.057
0.081
0.088
0.075
0.069
0.071
0.0785
0.0755
0.0605
0.0565
0.059
0.059
0.068
0.0705
0.072
0.0885
0.096
0.086
0.071
0.0765
0.085
0.074
0.074
0.0795
0.065
0.055
0.061
0.0595
0.065
0.0805
0.0865
0.0855
0.09
0.0905
0.0725
0.0765
0.081
0.062
0.066
0.0725
0.074
0.07
0.053
0.0595
0.069
0.0595
0.0555
0.0615
0.0625
0.0635
0.0595
0.0525
0.056
0.056
0.0505
0.0425
0.037
0.036
0.042
0.046
0.052
0.0585
0.0495
0.0435
0.0405
0.042
0.0475
0.046
0.0445
0.0525
0.0535
0.064
0.0725
0.042
0.0185
0.017
0.024
0.0365
0.0435
0.0485
0.037
0.026
0.0335
0.0375
0.0415
0.0445
0.042
0.0425
0.0445
0.045
0.0395
0.022
0.02
0.0295
0.0265
0.0285
0.026
0.0235
0.0285
0.0345
0.0475
0.0455
0.0355
0.0375
0.0355
0.037
0.0435
0.0455
0.0385
0.039
0.0525
0.061
0.0575
0.0385
0.034
0.0365
0.0505
0.0715
0.06
0.048
0.0605
0.0715
0.07
0.0835
0.09
0.0755
0.067
0.064
0.07
0.065
0.054
0.064
0.0685
0.068
0.0685
0.058
0.0585
0.0625
0.0615
0.066
0.075
0.0825
0.0725
0.0685
0.0655
0.0645
0.069
0.0715
0.0815
0.072
0.056
0.0565
0.068
0.073
0.0735
0.0775
0.072
0.054
0.047
0.069
0.078
0.0675
0.068
0.0725
0.0805
0.0865
0.0805
0.078
0.0695
0.0505
0.0535
0.0675
0.07
0.0735
0.0805
0.088
0.0915
0.0875
0.078
0.074
0.0615
0.063
0.0695
0.054
0.0645
0.0855
0.092
0.0925
0.092
0.0845
0.065
0.049
0.0525
0.0635
0.0555
0.056
0.062
0.059
0.0525
0.0475
0.0675
0.067
0.0725
0.1145
0.107
0.0855
0.1
0.1115
0.104
0.0685
0.0505
0.0625
0.0725
0.077
0.072
0.0705
0.0755
0.0715
0.0685
0.072
0.0715
0.0645
0.06
0.07
0.0665
0.0545
0.0685
0.07
0.0605
0.0635
0.07
0.0765
0.071
0.07
0.062
0.0545
0.0615
0.06
0.048
0.048
0.064
0.0705
0.0765
0.0745
0.072
0.081
0.0845
0.087
0.084
0.071
0.0585
0.0645
0.0725
0.065
0.0635
0.0615
0.0545
0.055
0.0375
0.0335
0.0485
0.0505
0.055
0.064
0.068
0.07
0.07
0.0655
0.0765
0.0695
0.0605
0.067
0.064
0.061
0.063
0.0695
0.068
0.0625
0.056
0.0555
0.0515
0.0415
0.0385
0.048
0.0545
0.057
0.067
0.054
0.04
0.038
0.04
0.053
0.061
0.054
0.036
0.0445
0.0585
0.055
0.0545
0.053
0.059
0.0615
0.0615
0.0595
0.058
0.0555
0.048
0.048
0.042
0.0445
0.067
0.066
0.0585
0.0705
0.0695
0.0625
0.055
0.05
0.0555
0.0505
0.0435
0.0475
0.043
0.051
0.07
0.074
0.073
0.0645
0.064
0.069
0.066
0.0715
0.061
0.0505
0.059
0.061
0.061
0.056
0.0605
0.0725
0.0785
0.077
0.0685
0.071
0.07
0.071
0.0835
0.0805
0.063
0.052
0.0485
0.0535
0.062
0.068
0.0685
0.0635
0.07
0.0865
0.0945
0.081
0.0575
0.042
0.0505
0.077
0.075
0.049
0.043
0.042
0.0455
0.0535
0.0685
0.0805
0.083
0.076
0.0505
0.0495
0.052
0.06
0.056
0.0535
0.0695
0.0485
0.033
0.0425
0.0515
0.061
0.0655
0.0665
0.0745
0.08
0.0725
0.0615
0.064
0.076
0.0845
0.0685
0.049
0.0545
0.066
0.0755
0.082
0.0835
0.0805
0.071
0.0725
0.067
0.049
0.052
0.0565
0.0645
0.062
0.0525
0.056
0.064
0.068
0.07
0.079
0.0825
0.0825
0.088
0.0865
0.075
0.068
0.0725
0.079
0.076
0.0715
0.0685
0.0715
0.079
0.08
0.078
0.0775
0.085
0.085
0.075
0.0655
0.071
0.0955
0.1145
0.116
0.112
0.115
0.113
0.116
0.117
0.1145
0.119
0.1155
0.1145
0.1115
0.111
0.1185
0.125
0.1315
0.1295
0.1195
0.1245
0.139
0.1455
0.1465
0.1525
0.1575
0.15
0.1445
0.1475
0.1555
0.134
0.118
0.134
0.1485
0.1455
0.1265
0.1205
0.114
0.1215
0.1355
0.16
0.173
0.149
0.1305
0.1445
0.182
0.1855
0.177
0.174
0.174
0.176
0.1745
0.175
0.168
0.1625
0.1555
0.167
0.173
0.168
0.162
0.146
0.1365
0.1405
0.145
0.131
0.126
0.125
0.1105
0.0975
0.097
0.0985
0.087
0.079
0.079
0.087
0.0915
0.0795
0.063
0.043
0.0375
0.05
0.0565
0.06
0.0625
0.06
0.054
0.0535
0.06
0.06
0.0575
0.059
0.061
0.062
0.0635
0.0665
0.0675
0.058
0.0405
0.053
0.07
0.0695
0.0675
0.029
0.0045
0.029
0.0505
0.0535
0.0415
0.054
0.074
0.071
0.0685
0.0655
0.063
0.0625
0.061
0.064
0.063
0.0585
0.0555
0.0605
0.0625
0.053
0.056
0.058
0.049
0.049
0.044
0.047
0.0665
0.064
0.066
0.05
0.0395
0.0695
0.0845
0.0805
0.069
0.058
0.0365
0.0345
0.0425
0.038
0.036
0.023
0.0035
-0.004
0.0005
0.0015
0.01
0.025
0.0495
0.08
0.0995
0.1235
0.1655
0.2105
0.2585
0.298
0.3325
0.3785
0.427
0.4765
0.5115
0.55
0.576
0.5975
0.629
0.642
0.6355
0.6
0.576
0.5645
0.553
0.5225
0.469
0.448
0.4405
0.4185
0.379
0.338
0.2965
0.2495
0.2045
0.1525
0.109
0.081
0.0525
0.0245
0.009
0.002
0.0075
0.019
0.031
0.044
0.048
0.049
0.06
0.063
0.048
0.0375
0.0435
0.068
0.068
0.0735
0.0715
0.0405
0.039
0.0335
0.04
0.0455
0.0355
0.036
0.036
0.0405
0.0385
0.0385
0.039
0.0405
0.0465
0.0525
0.056
0.056
0.063
0.0605
0.051
0.046
0.0495
0.046
0.047
0.0655
0.0705
0.0635
0.054
0.0585
0.064
0.0495
0.049
0.063
0.0525
0.0545
0.074
0.078
0.071
0.07
0.069
0.053
0.0465
0.0505
0.0525
0.052
0.0555
0.057
0.0695
0.073
0.0605
0.0665
0.076
0.077
0.0675
0.055
0.0505
0.058
0.067
0.0705
0.07
0.068
0.073
0.0755
0.07
0.079
0.087
0.092
0.1055
0.082
0.0615
0.0655
0.074
0.07
0.0575
0.0555
0.0455
0.0535
0.058
0.062
0.0605
0.0395
0.0525
0.063
0.066
0.073
0.069
0.0685
0.0685
0.0695
0.069
0.068
0.072
0.074
0.074
0.0755
0.078
0.0705
0.0665
0.073
0.073
0.074
0.08
0.0875
0.079
0.0675
0.0695
0.059
0.0615
0.066
0.068
0.0815
0.086
0.0855
0.078
0.074
0.069
0.07
0.0855
0.0835
0.0695
0.0615
0.0565
0.0495
0.055
0.072
0.0845
0.0915
0.0955
0.095
0.094
0.098
0.101
0.096
0.094
0.099
0.0885
0.0715
0.058
0.0585
0.068
0.07
0.074
0.0755
0.073
0.0735
0.078
0.063
0.0505
0.0535
0.0475
0.0655
0.095
0.0905
0.069
0.0695
0.0835
0.0875
0.081
0.087
0.0965
0.084
0.087
0.096
0.079
0.069
0.082
0.095
0.098
0.084
0.0625
0.0585
0.073
0.079
0.064
0.0675
0.0815
0.085
0.0835
0.069
0.0625
0.066
0.068
0.067
0.069
0.072
0.0655
0.057
0.055
0.0595
0.069
0.07
0.069
0.0645
0.055
0.053
0.055
0.0665
0.067
0.066
0.0595
0.0475
0.0645
0.0665
0.058
0.051
0.043
0.051
0.06
0.064
0.053
0.047
0.054
0.052
0.047
0.067
0.081
0.0655
0.0465
0.0365
0.0345
0.0355
0.029
0.0285
0.048
0.0455
0.023
0.0105
0.0195
0.026
0.0215
0.027
0.03
0.034
0.035
0.0265
0.0225
0.034
0.041
0.041
0.0435
0.041
0.039
0.0385
0.0455
0.051
0.0395
0.033
0.0425
0.049
0.0475
0.039
0.0505
0.0485
0.039
0.0575
0.061
0.0595
0.0455
0.038
0.041
0.0485
0.063
0.0555
0.057
0.063
0.0585
0.058
0.0575
0.0685
0.076
0.058
0.057
0.0765
0.0765
0.0625
0.0585
0.064
0.069
0.0755
0.079
0.0715
0.063
0.0675
0.068
0.0765
0.089
0.0795
0.071
0.059
0.0545
0.053
0.0505
0.078
0.0925
0.0785
0.0765
0.071
0.059
0.062
0.061
0.0605
0.0615
0.063
0.0695
0.061
0.066
0.084
0.089
0.093
0.0935
0.09
0.085
0.086
0.092
0.101
0.105
0.1135
0.1075
0.0845
0.0905
0.0925
0.089
0.079
0.058
0.056
0.0605
0.065
0.0545
0.042
0.0645
0.078
0.0815
0.0865
0.078
0.065
0.0655
0.0765
0.0735
0.076
0.076
0.0705
0.0755
0.076
0.0815
0.073
0.0655
0.074
0.0775
0.0805
0.061
0.058
0.085
0.0925
0.0915
0.092
0.0875
0.082
0.0835
0.089
0.0805
0.0735
0.0765
0.077
0.08
0.076
0.077
0.072
0.073
0.0835
0.076
0.069
0.061
0.0485
0.034
0.0475
0.0725
0.0765
0.0665
0.0615
0.0665
0.0735
0.0915
0.0885
0.0755
0.067
0.053
0.0525
0.068
0.075
0.0765
0.0785
0.0725
0.061
0.0595
0.07
0.083
0.085
0.0755
0.087
0.1015
0.094
0.073
0.0645
0.075
0.0725
0.0635
0.0595
0.043
0.044
0.05
0.066
0.087
0.0755
0.0745
0.0775
0.08
0.0825
0.073
0.069
0.06
0.061
0.0675
0.0555
0.0455
0.043
0.0495
0.058
0.0595
0.0615
0.066
0.071
0.0665
0.0595
0.06
0.062
0.0615
0.066
0.0685
0.0645
0.067
0.07
0.0665
0.065
0.082
0.078
0.0415
0.0365
0.052
0.056
0.0545
0.06
0.0685
0.0655
0.0695
0.0605
0.0525
0.069
0.0545
0.054
0.0665
0.0535
0.0645
0.069
0.0605
0.0675
0.067
0.058
0.059
0.0635
0.064
0.0685
0.077
0.077
0.0855
0.081
0.0705
0.0785
0.0845
0.0885
0.0795
0.0685
0.073
0.086
0.0805
0.057
0.0475
0.0545
0.064
0.066
0.063
0.057
0.058
0.0785
0.092
0.0735
0.049
0.0445
0.0505
0.043
0.037
0.062
0.0895
0.0955
0.1045
0.091
0.072
0.086
0.0815
0.064
0.0625
0.07
0.076
0.0795
0.0775
0.0655
0.0615
0.068
0.0785
0.0765
0.068
0.0685
0.069
0.072
0.073
0.078
0.0765
0.066
0.0685
0.0635
0.064
0.076
0.0835
0.0865
0.0835
0.0785
0.0685
0.0665
0.058
0.057
0.0845
0.0915
0.0725
0.0735
0.0805
0.072
0.0655
0.0605
0.0615
0.065
0.068
0.0705
0.0725
0.0755
0.078
0.087
0.0705
0.067
0.08
0.0725
0.076
0.083
0.083
0.076
0.0755
0.075
0.068
0.071
0.063
0.0595
0.0765
0.0845
0.0845
0.0865
0.0885
0.094
0.1055
0.119
0.118
0.0975
0.0885
0.108
0.0985
0.0665
0.0795
0.1055
0.12
0.125
0.1255
0.124
0.1245
0.1275
0.13
0.13
0.119
0.1195
0.129
0.1395
0.14
0.1435
0.1505
0.1475
0.1495
0.152
0.1565
0.1565
0.1475
0.1315
0.121
0.134
0.14
0.1385
0.1505
0.1555
0.159
0.174
0.1855
0.1825
0.1715
0.153
0.1405
0.1505
0.1675
0.1695
0.165
0.172
0.1745
0.1835
0.197
0.1905
0.1665
0.161
0.169
0.1735
0.173
0.1545
0.155
0.163
0.1645
0.156
0.14
0.133
0.13
0.1335
0.123
0.1045
0.1015
0.109
0.1085
0.0945
0.0815
0.0755
0.0795
0.0805
0.0755
0.082
0.0855
0.0785
0.0755
0.0745
0.0695
0.067
0.0645
0.0745
0.074
0.0675
0.072
0.0615
0.064
0.069
0.0675
0.072
0.0605
0.0675
0.073
0.0555
0.0595
0.045
0.0405
0.0565
0.0525
0.057
0.0545
0.0505
0.069
0.077
0.0665
0.063
0.056
0.0565
0.067
0.066
0.062
0.061
0.069
0.076
0.0685
0.0615
0.0555
0.053
0.063
0.0645
0.061
0.0655
0.0565
0.044
0.057
0.071
0.079
0.085
0.071
0.064
0.0625
0.056
0.0535
0.048
0.0405
0.038
0.05
0.059
0.0515
0.0525
0.048
0.029
0.0295
0.0285
0.0285
0.0265
0.0395
0.09
0.1235
0.1525
0.186
0.22
0.2615
0.3045
0.3385
0.378
0.435
0.488
0.5235
0.5455
0.5635
0.59
0.631
0.665
0.6685
0.642
0.6135
0.5885
0.561
0.5165
0.486
0.4715
0.453
0.4285
0.388
0.375
0.347
0.297
0.2465
0.174
0.1265
0.1
0.0705
0.0445
0.0195
0.006
0.013
0.02
0.025
0.041
0.063
0.0745
0.071
0.063
0.0605
0.059
0.049
0.043
0.0495
0.034
0.0205
0.041
0.049
0.0545
0.05
0.039
0.0295
0.032
0.0715
0.088
0.0965
0.0775
0.0295
0.039
0.0555
0.047
0.0545
0.063
0.0545
0.05
0.0585
0.067
0.0675
0.0605
0.049
0.044
0.0535
0.0615
0.069
0.0745
0.0745
0.0715
0.065
0.0505
0.0505
0.071
0.0675
0.0635
0.065
0.0605
0.061
0.0575
0.0695
0.08
0.068
0.06
0.0655
0.0715
0.0735
0.076
0.07
0.0645
0.065
0.065
0.077
0.08
0.0675
0.068
0.0615
0.051
0.0705
0.0895
0.08
0.0515
0.0355
0.0485
0.0595
0.0655
0.072
0.077
0.0785
0.069
0.0625
0.071
0.0805
0.0805
0.078
0.0895
0.096
0.081
0.081
0.0835
0.074
0.078
0.084
0.088
0.0955
0.107
0.1165
0.0865
0.0485
0.0475
0.058
0.0655
0.0635
0.069
0.073
0.0715
0.0725
0.0665
0.0655
0.072
0.08
0.076
0.0745
0.0755
0.072
0.082
0.085
0.085
0.0825
0.0795
0.0925
0.0985
0.095
0.0955
0.115
0.111
0.0915
0.0855
0.07
0.0735
0.0825
0.0805
0.0805
0.08
0.085
0.0945
0.095
0.083
0.066
0.0655
0.0815
0.0845
0.0835
0.0885
0.0875
0.0875
0.0845
0.089
0.0925
0.0915
0.098
0.09
0.081
0.081
0.0845
0.089
0.088
0.09
0.0835
0.0775
0.082
0.094
0.103
0.099
0.101
0.104
0.101
0.0925
0.074
0.0735
0.089
0.0925
0.0895
0.0895
0.0925
0.094
0.098
0.102
0.0985
0.098
0.08
0.0595
0.0625
0.0555
0.059
0.078
0.0685
0.0655
0.074
0.0745
0.075
0.0745
0.077
0.075
0.0755
0.072
0.0785
0.087
0.0875
0.082
0.066
0.0685
0.071
0.0725
0.078
0.0655
0.0475
0.048
0.052
0.047
0.0565
0.06
0.059
0.068
0.0555
0.044
0.045
0.0505
0.0505
0.039
0.0475
0.0655
0.071
0.064
0.0635
0.0775
0.0765
0.0655
0.0345
0.0135
0.0245
0.0315
0.033
0.027
0.0315
0.046
0.0435
0.044
0.0495
0.0495
0.05
0.0425
0.0455
0.0575
0.053
0.048
0.044
0.05
0.052
0.0485
0.0565
0.0555
0.054
0.049
0.0515
0.0545
0.044
0.056
0.0765
0.0715
0.038
0.021
0.0355
0.044
0.0485
0.053
0.0625
0.0775
0.0805
0.0765
0.0715
0.0695
0.062
0.0545
0.0575
0.0625
0.064
0.065
0.0725
0.0705
0.0755
0.082
0.08
0.0815
0.073
0.0735
0.07
0.0635
0.064
0.0705
0.083
0.083
0.093
0.1015
0.09
0.0805
0.0765
0.084
0.077
0.072
0.0775
0.065
0.059
0.0535
0.061
0.071
0.059
0.0685
0.0735
0.073
0.0855
0.0875
0.089
0.083
0.074
0.0805
0.0835
0.083
0.095
0.104
0.1015
0.089
0.0835
0.079
0.0835
0.0895
0.09
0.095
0.085
0.0845
0.087
0.0845
0.0885
0.0885
0.079
0.0775
0.0855
0.085
0.0855
0.0855
0.087
0.0955
0.1095
0.115
0.0965
0.0735
0.068
0.0745
0.075
0.078
0.0875
0.0885
0.078
0.0725
0.081
0.077
0.086
0.0925
0.079
0.0795
0.08
0.076
0.069
0.0675
0.065
0.059
0.0605
0.063
0.068
0.0755
0.08
0.0835
0.08
0.0755
0.0815
0.078
0.0805
0.0845
0.0715
0.0775
0.089
0.0925
0.095
0.0895
0.086
0.0845
0.0795
0.0875
0.0925
0.0905
0.0955
0.0765
0.073
0.075
0.0525
0.06
0.0745
0.074
0.0725
0.074
0.076
0.077
0.0735
0.061
0.0715
0.0925
0.0895
0.0765
0.0725
0.072
0.0735
0.0675
0.06
0.063
0.068
0.066
0.0625
0.0685
0.0695
0.0675
0.0685
0.072
0.077
0.0825
0.088
0.085
0.0875
0.0865
0.069
0.0625
0.065
0.065
0.0685
0.074
0.079
0.08
0.087
0.079
0.063
0.07
0.083
0.083
0.072
0.0705
0.0725
0.0755
0.0795
0.074
0.068
0.0715
0.076
0.0685
0.0705
0.0715
0.0655
0.066
0.0615
0.0655
0.0715
0.072
0.071
0.068
0.07
0.076
0.08
0.074
0.0715
0.0675
0.0565
0.059
0.075
0.065
0.0395
0.0515
0.069
0.0635
0.0645
0.069
0.0505
0.0515
0.076
0.082
0.0855
0.082
0.066
0.058
0.0635
0.074
0.0875
0.1075
0.1
0.0815
0.0785
0.0805
0.081
0.078
0.0735
0.0595
0.0555
0.056
0.0615
0.0645
0.0605
0.0635
0.064
0.063
0.0635
0.0785
0.0965
0.0945
0.0765
0.0625
0.0575
0.0605
0.071
0.0805
0.081
0.084
0.0825
0.072
0.076
0.087
0.1015
0.104
0.0885
0.062
0.0445
0.0585
0.068
0.0655
0.058
0.0545
0.0715
0.0745
0.069
0.076
0.074
0.069
0.0695
0.072
0.086
0.092
0.093
0.0945
0.0835
0.071
0.0775
0.087
0.0805
0.0735
0.0765
0.082
0.074
0.072
0.0745
0.0645
0.074
0.0905
0.085
0.075
0.072
0.0805
0.0915
0.0935
0.095
0.1025
0.098
0.084
0.073
0.067
0.069
0.0755
0.0795
0.0855
0.086
0.069
0.0695
0.0795
0.085
0.0905
0.098
0.0925
0.0955
0.118
0.109
0.094
0.089
0.086
0.0875
0.0975
0.1125
0.1155
0.1225
0.1255
0.121
0.1245
0.135
0.1445
0.148
0.135
0.123
0.125
0.127
0.1355
0.1565
0.1745
0.1795
0.1635
0.16
0.181
0.179
0.1615
0.164
0.1685
0.1555
0.16
0.1645
0.1495
0.147
0.1465
0.15
0.1535
0.151
0.1435
0.1445
0.149
0.1525
0.181
0.1825
0.178
0.193
0.1965
0.197
0.1975
0.197
0.1975
0.1955
0.191
0.191
0.182
0.174
0.17
0.179
0.181
0.166
0.148
0.1365
0.144
0.1415
0.137
0.1285
0.108
0.1055
0.1135
0.1175
0.1025
0.0815
0.08
0.075
0.06
0.0525
0.053
0.0595
0.083
0.0925
0.0945
0.0985
0.084
0.0755
0.0605
0.0545
0.065
0.0715
0.0745
0.0725
0.0685
0.0685
0.076
0.074
0.0665
0.0725
0.084
0.0815
0.074
0.0775
0.0735
0.068
0.0665
0.065
0.064
0.059
0.0585
0.051
0.0525
0.062
0.0655
0.0735
0.0765
0.068
0.0575
0.061
0.079
0.079
0.067
0.0705
0.0635
0.061
0.07
0.07
0.0685
0.064
0.0645
0.063
0.049
0.05
0.07
0.0735
0.0725
0.0795
0.084
0.0815
0.075
0.0715
0.0545
0.0395
0.043
0.0435
0.0405
0.045
0.027
0.0305
0.0605
0.0605
0.066
0.054
0.044
0.0775
0.1145
0.152
0.196
0.231
0.258
0.301
0.3445
0.3945
0.4575
0.5085
0.5415
0.5655
0.598
0.6315
0.6625
0.6855
0.6755
0.637
0.61
0.591
0.5665
0.5415
0.5175
0.497
0.462
0.431
0.4095
0.3765
0.3405
0.301
0.241
0.1615
0.11
0.089
0.0585
0.0335
0.024
0.015
0.0195
0.025
0.036
0.054
0.0545
0.0595
0.0675
0.0755
0.077
0.081
0.0875
0.0685
0.043
0.038
0.04
0.0325
0.0335
0.043
0.05
0.0545
0.057
0.055
0.0545
0.0605
0.061
0.065
0.069
0.064
0.061
0.052
0.0595
0.0635
0.0575
0.066
0.077
0.074
0.033
0.0295
0.058
0.069
0.0885
0.088
0.0915
0.0905
0.078
0.0635
0.0575
0.077
0.08
0.0765
0.07
0.074
0.0855
0.079
0.0785
0.078
0.071
0.0715
0.0665
0.054
0.0595
0.0705
0.069
0.072
0.0775
0.0735
0.069
0.0695
0.0725
0.0705
0.074
0.074
0.061
0.0735
0.0825
0.08
0.083
0.074
0.0715
0.0715
0.0775
0.0915
0.0925
0.089
0.0885
0.0735
0.0725
0.0775
0.08
0.0895
0.0865
0.0885
0.09
0.082
0.08
0.0895
0.097
0.0985
0.1
0.106
0.1015
0.084
0.0725
0.071
0.064
0.065
0.0785
0.088
0.0925
0.086
0.082
0.086
0.083
0.0795
0.0755
0.074
0.081
0.0765
0.063
0.0735
0.083
0.0705
0.075
0.0805
0.069
0.0745
0.072
0.068
0.085
0.0835
0.087
0.1045
0.1335
0.145
0.1285
0.1
0.0795
0.082
0.0825
0.0855
0.087
0.0925
0.095
0.0955
0.0995
0.0865
0.0915
0.106
0.097
0.0985
0.0955
0.0905
0.091
0.0785
0.072
0.0655
0.0685
0.075
0.072
0.0845
0.1015
0.102
0.0995
0.0935
0.0885
0.089
0.0885
0.0955
0.0955
0.099
0.092
0.08
0.081
0.081
0.095
0.0965
0.083
0.076
0.085
0.092
0.0895
0.0945
0.099
0.094
0.095
0.0995
0.092
0.0955
0.088
0.083
0.0925
0.0865
0.077
0.0795
0.09
0.082
0.0835
0.0965
0.0945
0.0835
0.0685
0.0715
0.0685
0.0675
0.0795
0.0825
0.083
0.0895
0.082
0.063
0.06
0.0655
0.0665
0.0605
0.0625
0.065
0.058
0.048
0.045
0.0455
0.065
0.081
0.086
0.068
0.0345
0.0665
0.0905
0.067
0.0515
0.0545
0.057
0.0585
0.059
0.05
0.0475
0.0445
0.0525
0.06
0.0585
0.06
0.059
0.062
0.057
0.042
0.045
0.053
0.0555
0.061
0.0605
0.056
0.0545
0.0595
0.0555
0.0535
0.0585
0.0465
0.042
0.043
0.041
0.0395
0.045
0.0425
0.0475
0.0645
0.062
0.0665
0.0685
0.067
0.059
0.049
0.0595
0.071
0.0645
0.0635
0.0765
0.0775
0.0735
0.073
0.0815
0.0915
0.0895
0.083
0.084
0.0725
0.055
0.0595
0.0695
0.0765
0.079
0.076
0.0645
0.0595
0.077
0.075
0.0615
0.068
0.0805
0.092
0.1075
0.113
0.102
0.087
0.081
0.088
0.0915
0.0925
0.089
0.0785
0.078
0.082
0.078
0.077
0.0925
0.1
0.086
0.083
0.084
0.087
0.091
0.0865
0.0855
0.0895
0.094
0.0925
0.0985
0.096
0.0855
0.082
0.089
0.089
0.08
0.0795
0.076
0.08
0.0855
0.0845
0.086
0.0925
0.0905
0.089
0.0985
0.105
0.1055
0.0955
0.091
0.0915
0.09
0.0885
0.0775
0.079
0.0885
0.0795
0.069
0.073
0.084
0.0945
0.093
0.085
0.081
0.0785
0.085
0.0975
0.0925
0.076
0.087
0.0975
0.092
0.099
0.107
0.1085
0.094
0.069
0.056
0.0715
0.091
0.092
0.086
0.0765
0.0635
0.0615
0.0655
0.059
0.062
0.066
0.08
0.0975
0.094
0.089
0.0835
0.082
0.079
0.08
0.084
0.073
0.082
0.11
0.1015
0.0685
0.046
0.049
0.074
0.0975
0.1105
0.1065
0.1015
0.104
0.11
0.1045
0.09
0.0845
0.083
0.0785
0.048
0.045
0.075
0.081
0.0785
0.0675
0.0535
0.0585
0.06
0.048
0.054
0.058
0.068
0.068
0.0605
0.081
0.0895
0.084
0.0825
0.0825
0.08
0.0815
0.086
0.087
0.0745
0.0605
0.0565
0.0585
0.0675
0.0725
0.0795
0.08
0.0665
0.0655
0.0815
0.0905
0.085
0.075
0.07
0.0645
0.064
0.0855
0.0965
0.0765
0.0525
0.0545
0.067
0.071
0.0705
0.0685
0.073
0.0745
0.071
0.0645
0.0645
0.064
0.0685
0.068
0.065
0.0775
0.072
0.0705
0.0785
0.074
0.071
0.079
0.0765
0.07
0.081
0.0875
0.086
0.084
0.0875
0.087
0.0765
0.0805
0.077
0.064
0.065
0.0685
0.0765
0.0695
0.0595
0.0635
0.0845
0.1005
0.087
0.0795
0.083
0.076
0.0715
0.082
0.071
0.0645
0.085
0.0855
0.0825
0.0775
0.078
0.085
0.0765
0.074
0.0765
0.0825
0.087
0.085
0.0865
0.085
0.08
0.0805
0.0855
0.09
0.085
0.082
0.0865
0.0965
0.097
0.081
0.0825
0.0845
0.081
0.085
0.0955
0.099
0.0835
0.0715
0.064
0.0715
0.0865
0.0855
0.082
0.083
0.0875
0.0865
0.0895
0.107
0.1095
0.0865
0.0775
0.075
0.067
0.0725
0.0825
0.0935
0.0975
0.0915
0.0915
0.0905
0.086
0.0815
0.082
0.0835
0.0795
0.082
0.098
0.1045
0.1
0.0985
0.096
0.1085
0.111
0.105
0.104
0.075
0.043
0.048
0.069
0.0805
0.0865
0.083
0.073
0.0715
0.0865
0.0955
0.095
0.0935
0.1025
0.118
0.111
0.1105
0.0975
0.0955
0.1055
0.1055
0.1115
0.1115
0.113
0.1145
0.1295
0.15
0.1635
0.1615
0.153
0.165
0.1595
0.137
0.1345
0.1445
0.157
0.141
0.1255
0.152
0.1635
0.158
0.165
0.1755
0.1815
0.1915
0.19
0.1795
0.16
0.1315
0.1365
0.1505
0.1615
0.171
0.171
0.1685
0.1605
0.167
0.175
0.1725
0.166
0.1735
0.189
0.1915
0.2
0.2055
0.197
0.196
0.2
0.195
0.1985
0.1945
0.1825
0.1795
0.171
0.1785
0.181
0.165
0.1605
0.1665
0.171
0.1655
0.143
0.126
0.125
0.1245
0.114
0.1125
0.116
0.102
0.097
0.1005
0.0995
0.0975
0.0815
0.0595
0.065
0.063
0.056
0.0705
0.0795
0.0795
0.074
0.0715
0.0585
0.0535
0.065
0.0675
0.0685
0.0595
0.0585
0.054
0.0555
0.0835
0.0845
0.069
0.0705
0.0755
0.0755
0.079
0.079
0.072
0.068
0.071
0.078
0.0835
0.0775
0.0705
0.0755
0.0855
0.0895
0.094
0.097
0.063
0.0495
0.066
0.067
0.0655
0.0575
0.0555
0.06
0.057
0.048
0.0505
0.0545
0.0545
0.0545
0.055
0.062
0.0675
0.067
0.0655
0.0765
0.081
0.0725
0.0615
0.0605
0.0615
0.054
0.052
0.0415
0.038
0.0305
0.0175
0.0265
0.0325
0.039
0.038
0.047
0.0715
0.096
0.133
0.163
0.1955
0.2285
0.2655
0.314
0.3475
0.391
0.4565
0.499
0.5345
0.5745
0.61
0.6535
0.6855
0.7025
0.6945
0.6575
0.6285
0.5895
0.558
0.5495
0.5055
0.469
0.4555
0.433
0.4115
0.384
0.3305
0.2665
0.213
0.1345
0.0805
0.0725
0.057
0.0315
0.007
0.0
-0.0005
0.008
0.028
0.0445
0.0575
0.073
0.0805
0.07
0.061
0.0565
0.0535
0.056
0.056
0.053
0.0545
0.0565
0.057
0.0715
0.088
0.089
0.083
0.0685
0.0535
0.0405
0.0295
0.04
0.048
0.041
0.046
0.057
0.056
0.041
0.0305
0.0405
0.048
0.0485
0.053
0.0535
0.051
0.057
0.0585
0.0625
0.0775
0.0755
0.0625
0.0605
0.0665
0.0725
0.0715
0.0645
0.0635
0.0685
0.067
0.061
0.0515
0.055
0.055
0.0485
0.067
0.0775
0.0715
0.073
0.081
0.0855
0.098
0.097
0.058
0.0325
0.0395
0.0545
0.0645
0.0705
0.0645
0.053
0.0485
0.0445
0.045
0.055
0.067
0.064
0.0645
0.0705
0.072
0.067
0.0615
0.077
0.08
0.085
0.0925
0.0895
0.0815
0.0725
0.0855
0.0875
0.078
0.074
0.085
0.0785
0.066
0.0695
0.0645
0.076
0.0835
0.075
0.076
0.0785
0.0795
0.073
0.07
0.0705
0.0765
0.0785
0.0675
0.0715
0.0795
0.072
0.0635
0.0755
0.0865
0.081
0.0795
0.081
0.0755
0.075
0.087
0.0945
0.094
0.0785
0.0575
0.061
0.0785
0.086
0.0855
0.0785
0.078
0.08
0.0795
0.0845
0.0805
0.075
0.072
0.0785
0.0875
0.0885
0.1
0.093
0.0845
0.084
0.0835
0.0905
0.089
0.088
0.069
0.0575
0.0845
0.093
0.085
0.084
0.078
0.0815
0.0835
0.0835
0.0875
0.0975
0.0955
0.082
0.089
0.095
0.1005
0.0935
0.0905
0.0965
0.096
0.092
0.076
0.0695
0.0625
0.067
0.0715
0.063
0.078
0.0845
0.079
0.0815
0.0715
0.0635
0.0595
0.0655
0.0825
0.093
0.0895
0.063
0.0635
0.088
0.089
0.0745
0.0655
0.0615
0.0555
0.0655
0.068
0.0675
0.0695
0.063
0.0665
0.073
0.073
0.0625
0.059
0.0615
0.064
0.0615
0.058
0.055
0.0505
0.0485
0.0445
0.0495
0.0455
0.0465
0.0475
0.0445
0.0515
0.042
0.041
0.049
0.0415
0.039
0.0475
0.0465
0.0435
0.043
0.029
0.027
0.04
0.041
0.041
0.041
0.043
0.0425
0.028
0.0225
0.0325
0.038
0.038
0.043
0.0445
0.0445
0.0425
0.0435
0.0575
0.066
0.0745
0.0515
0.022
0.026
0.032
0.042
0.0445
0.0405
0.034
0.0325
0.0395
0.0485
0.0575
0.0535
0.0535
0.0535
0.055
0.057
0.05
0.043
0.0525
0.0675
0.0305
0.0115
0.044
0.0485
0.0605
0.0795
0.075
0.0725
0.0725
0.0555
0.0425
0.047
0.05
0.05
0.0455
0.0535
0.0645
0.0615
0.061
0.057
0.055
0.06
0.0665
0.0625
0.0575
0.06
0.06
0.062
0.0575
0.0645
0.078
0.0765
0.0695
0.0665
0.0755
0.0805
0.077
0.0755
0.0825
0.085
0.0845
0.084
0.0845
0.0875
0.089
0.0835
0.071
0.0675
0.063
0.0655
0.074
0.083
0.0775
0.073
0.0695
0.0635
0.0715
0.063
0.0675
0.057
0.0505
0.0575
0.043
0.045
0.046
0.042
0.0575
0.075
0.0715
0.073
0.076
0.08
0.0775
0.072
0.0735
0.073
0.073
0.0645
0.062
0.0695
0.073
0.076
0.0755
0.0825
0.0845
0.0735
0.0805
0.092
0.0955
0.0775
0.065
0.07
0.07
0.0775
0.066
0.056
0.0685
0.0745
0.066
0.055
0.0585
0.075
0.0765
0.057
0.0565
0.066
0.06
0.0715
0.085
0.0805
0.075
0.066
0.0635
0.0655
0.0575
0.0555
0.065
0.0685
0.0755
0.075
0.0635
0.058
0.0595
0.06
0.0655
0.075
0.0725
0.076
0.0755
0.072
0.072
0.072
0.074
0.0615
0.0465
0.063
0.0825
0.0685
0.0595
0.0625
0.068
0.047
0.0285
0.042
0.0515
0.0595
0.058
0.055
0.0565
0.0565
0.046
0.0435
0.054
0.0505
0.044
0.0405
0.0445
0.059
0.0625
0.053
0.05
0.0545
0.059
0.0595
0.06
0.057
0.0545
0.0545
0.061
0.0815
0.086
0.078
0.0655
0.063
0.0655
0.05
0.038
0.0385
0.0565
0.0545
0.0375
0.0435
0.048
0.048
0.0465
0.044
0.0465
0.06
0.0725
0.0615
0.064
0.068
0.063
0.0645
0.0605
0.0635
0.0675
0.0605
0.0515
0.054
0.058
0.0545
0.048
0.0515
0.06
0.0645
0.0705
0.075
0.076
0.064
0.0675
0.0695
0.05
0.0385
0.0325
0.0395
0.0505
0.0485
0.0475
0.054
0.0625
0.057
0.056
0.0615
0.0645
0.0755
0.062
0.0535
0.0505
0.0395
0.0505
0.065
0.075
0.0725
0.065
0.0665
0.067
0.063
0.0595
0.0555
0.0515
0.052
0.054
0.055
0.0605
0.071
0.0745
0.069
0.061
0.0685
0.065
0.059
0.083
0.0875
0.0735
0.0605
0.0675
0.082
0.08
0.075
0.074
0.0685
0.0695
0.071
0.05
0.037
0.0375
0.0405
0.045
0.0585
0.066
0.071
0.082
0.063
0.047
0.045
0.0375
0.044
0.056
0.0675
0.083
0.088
0.0665
0.059
0.083
0.081
0.0675
0.0725
0.0735
0.062
0.0625
0.0755
0.0715
0.065
0.0695
0.0715
0.0705
0.064
0.058
0.0565
0.066
0.0695
0.0655
0.075
0.083
0.086
0.067
0.049
0.05
0.0485
0.0575
0.072
0.068
0.0625
0.065
0.062
0.069
0.064
0.051
0.064
0.0855
0.0975
0.1035
0.089
0.0795
0.106
0.11
0.0945
0.1015
0.111
0.119
0.13
0.1355
0.132
0.1285
0.142
0.154
0.16
0.152
0.1405
0.149
0.1505
0.145
0.133
0.13
0.134
0.1285
0.131
0.131
0.1285
0.119
0.109
0.118
0.1275
0.132
0.1355
0.1355
0.1335
0.132
0.127
0.1335
0.1475
0.152
0.146
0.142
0.1555
0.168
0.184
0.1815
0.157
0.162
0.171
0.174
0.18
0.175
0.1675
0.16
0.1435
0.119
0.117
0.1335
0.154
0.1705
0.1685
0.151
0.1435
0.132
0.102
0.103
0.116
0.104
0.0825
0.068
0.058
0.053
0.0555
0.0545
0.0585
0.0575
0.0525
0.05
0.04
0.0475
0.054
0.045
0.0445
0.049
0.049
0.0455
0.0445
0.044
0.0495
0.0445
0.038
0.0345
0.0315
0.0495
0.0625
0.0535
0.0375
0.0415
0.0675
0.0745
0.0675
0.055
0.042
0.0495
0.057
0.06
0.0635
0.0625
0.0575
0.0395
0.02
0.015
0.0275
0.0425
0.057
0.0645
0.059
0.061
0.044
0.0265
0.0305
0.0445
0.0455
0.033
0.0435
0.0455
0.035
0.035
0.0425
0.04
0.044
0.0485
0.052
0.0645
0.058
0.0495
0.042
0.0275
0.0205
0.0265
0.026
0.015
-0.007
-0.013
0.001
-0.001
0.002
0.0115
0.0305
0.068
0.092
0.1135
0.153
0.1955
0.2505
0.301
0.3325
0.354
0.4
0.4805
0.521
0.5485
0.5945
0.629
0.6655
0.676
0.6695
0.651
0.62
0.603
0.5785
0.5415
0.504
0.471
0.4465
0.4195
0.3975
0.3675
0.33
0.282
0.2195
0.1705
0.1145
0.074
0.0555
0.0325
0.0115
0.0005
0.0
-0.006
-0.0055
-0.01
-0.0055
0.0275
0.041
0.0275
0.014
0.0165
0.034
0.048
0.0425
0.029
0.016
0.003
0.0245
0.038
0.0275
0.0345
0.0425
0.046
0.038
0.0155
0.0115
0.0205
0.0225
0.0265
0.0325
0.0395
0.0415
0.0365
0.043
0.045
0.0455
0.0415
0.0195
0.0275
0.045
0.0495
0.05
0.0415
0.039
0.035
0.031
0.0245
0.019
0.0245
0.0375
0.051
0.049
0.046
0.0365
0.023
0.0285
0.0475
0.055
0.0535
0.058
0.038
0.0265
0.0525
0.0555
0.0525
0.064
0.0635
0.0545
0.046
0.0455
0.048
0.0415
0.039
0.036
0.032
0.043
0.0565
0.0575
0.05
0.04
0.044
0.056
0.0565
0.054
0.05
0.0565
0.0555
0.0445
0.047
0.039
0.033
0.0415
0.0575
0.0565
0.0575
0.081
0.0725
0.0525
0.058
0.053
0.038
0.033
0.022
0.023
0.03
0.0325
0.0455
0.0575
0.063
0.061
0.0605
0.058
0.06
0.0645
0.059
0.0575
0.058
0.0545
0.0545
0.051
0.053
0.0565
0.053
0.0545
0.0615
0.063
0.0545
0.05
0.0415
0.0425
0.055
0.0595
0.0615
0.0645
0.0615
0.0495
0.057
0.0655
0.066
0.0735
0.0755
0.075
0.0745
0.0645
0.0535
0.056
0.0565
0.0525
0.0515
0.054
0.0565
0.059
0.064
0.056
0.063
0.072
0.059
0.0595
0.07
0.066
0.059
0.072
0.0715
0.0585
0.0645
0.0605
0.055
0.066
0.073
0.0835
0.0825
0.0575
0.057
0.072
0.069
0.0655
0.065
0.0615
0.0675
0.076
0.076
0.08
0.0565
0.0405
0.0465
0.04
0.0465
0.0585
0.071
0.061
0.049
0.0595
0.068
0.0585
0.042
0.0405
0.0455
0.049
0.053
0.0595
0.0615
0.049
0.0215
0.028
0.043
0.0475
0.044
0.021
0.032
0.038
0.039
0.059
0.058
0.056
0.0495
0.04
0.0395
0.042
0.0485
0.045
0.0435
0.049
0.0425
0.0255
0.0195
0.0215
0.016
0.014
0.0165
0.0245
0.022
0.002
0.0005
0.011
0.012
0.006
0.0185
0.0355
0.038
0.0305
0.019
0.017
0.0195
0.014
0.0085
0.0195
0.025
0.02
0.022
0.0135
-0.0025
0.0065
-0.0065
-0.0025
0.031
0.03
0.0305
0.025
0.0155
0.012
0.0145
0.019
0.022
0.0275
0.0305
0.034
0.0325
0.0315
0.0295
0.0285
0.0385
0.0445
0.05
0.053
0.0345
0.033
0.0435
0.038
0.027
0.022
0.0255
0.028
0.036
0.0495
0.0425
0.032
0.041
0.0425
0.0445
0.0445
0.039
0.0385
0.0395
0.042
0.047
0.0495
0.0435
0.0495
0.0405
0.047
0.071
0.0535
0.045
0.0435
0.041
0.0385
0.032
0.0385
0.038
0.034
0.0335
0.0405
0.0505
0.053
0.0555
0.0475
0.044
0.044
0.043
0.0515
0.0485
0.055
0.0735
0.0795
0.076
0.0675
0.0665
0.06
0.0515
0.062
0.044
0.024
0.054
0.0675
0.064
0.0585
0.0485
0.0565
0.0645
0.0605
0.0545
0.0485
0.042
0.0445
0.0485
0.046
0.0485
0.0475
0.045
0.054
0.0615
0.067
0.059
0.051
0.0365
0.035
0.068
0.0745
0.0615
0.0635
0.071
0.0675
0.0625
0.0645
0.065
0.0635
0.0645
0.067
0.0695
0.0675
0.0485
0.0295
0.034
0.045
0.051
0.051
0.052
0.0625
0.0695
0.063
0.059
0.0435
0.034
0.047
0.046
0.0285
0.0265
0.042
0.0415
0.0415
0.0385
0.0405
0.0535
0.042
0.0355
0.0375
0.036
0.043
0.0485
0.048
0.0455
0.0465
0.0465
0.048
0.0535
0.048
0.036
0.038
0.034
0.019
0.034
0.0405
0.033
0.045
0.0515
0.045
0.037
0.039
0.045
0.0465
0.0425
0.037
0.0385
0.045
0.046
0.0585
0.057
0.052
0.0585
0.0575
0.0515
0.0445
0.0555
0.0605
0.0495
0.04
0.0295
0.0085
-0.0025
0.0195
0.0395
0.039
0.039
0.0415
0.043
0.042
0.0565
0.068
0.051
0.0225
0.0105
0.0325
0.042
0.04
0.0415
0.04
0.0425
0.039
0.038
0.0415
0.0445
0.047
0.038
0.0325
0.034
0.034
0.044
0.0445
0.04
0.042
0.0365
0.0355
0.0385
0.0365
0.0385
0.0335
0.0315
0.036
0.025
0.0225
0.0295
0.0485
0.059
0.0495
0.056
0.061
0.0605
0.057
0.0435
0.0365
0.0395
0.04
0.032
0.0365
0.046
0.032
0.027
0.0435
0.0495
0.039
0.0225
0.038
0.0665
0.064
0.0545
0.037
0.0245
0.0505
0.069
0.0535
0.0345
0.0235
0.0385
0.063
0.056
0.054
0.0545
0.0455
0.0545
0.0555
0.05
0.0415
0.0395
0.047
0.053
0.06
0.063
0.0515
0.0445
0.066
0.0735
0.049
0.0425
0.047
0.036
0.0345
0.022
0.0285
0.049
0.047
0.052
0.0465
0.045
0.038
0.035
0.065
0.0575
0.035
0.042
0.045
0.0405
0.0455
0.0525
0.0505
0.051
0.048
0.0465
0.04
0.0325
0.0385
0.0495
0.0555
0.051
0.045
0.0375
0.0325
0.031
0.035
0.05
0.0545
0.0505
0.056
0.0555
0.0505
0.052
0.058
0.0625
0.063
0.0475
0.045
0.061
0.066
0.0665
0.053
0.0575
0.074
0.0695
0.0635
0.0535
0.0565
0.0485
0.031
0.038
0.045
0.048
0.054
0.052
0.04
0.06
0.0775
0.075
0.0745
0.068
0.078
0.0795
0.073
0.078
0.082
0.1045
0.1165
0.1085
0.1365
0.1555
0.152
0.146
0.1285
0.121
0.1355
0.1525
0.1445
0.1285
0.134
0.1325
0.1065
0.0965
0.1155
0.133
0.1295
0.126
0.12
0.1045
0.1005
0.103
0.1045
0.112
0.116
0.118
0.125
0.134
0.135
0.1365
0.1505
0.1605
0.166
0.167
0.1715
0.167
0.165
0.164
0.164
0.162
0.1535
0.162
0.159
0.1595
0.159
0.1475
0.1305
0.112
0.121
0.1335
0.1305
0.1215
0.1095
0.099
0.0865
0.075
0.0775
0.078
0.067
0.056
0.056
0.0755
0.0645
0.0335
0.038
0.0475
0.0445
0.044
0.026
0.012
0.0355
0.0405
0.0325
0.0395
0.034
0.03
0.037
0.0365
0.027
0.0185
0.019
0.019
0.0125
0.0185
0.043
0.0595
0.063
0.056
0.0345
0.025
0.0275
0.0425
0.044
0.038
0.0415
0.028
0.029
0.0345
0.015
0.016
0.0335
0.035
0.034
0.044
0.041
0.029
0.0395
0.048
0.037
0.03
0.022
0.0215
0.0315
0.0255
0.026
0.0285
0.028
0.0375
0.0345
0.0315
0.045
0.053
0.035
0.0255
0.027
0.018
0.0135
0.0195
0.024
0.0245
0.026
0.003
-0.0235
-0.023
-0.018
-0.0115
-0.0025
0.008
0.0245
0.039
0.0615
0.1
0.141
0.1735
0.2115
0.257
0.288
0.33
0.39
0.44
0.4795
0.529
0.577
0.613
0.657
0.678
0.684
0.6715
0.6325
0.601
0.569
0.5355
0.5005
0.48
0.4315
0.3875
0.4
0.3845
0.3335
0.2695
0.2265
0.1785
0.102
0.0595
0.0395
0.0165
-0.0025
-0.01
-0.0125
-0.0085
0.003
0.015
0.0275
0.032
0.03
0.035
0.0335
0.04
0.0535
0.053
0.048
0.0365
0.0295
0.02
0.0075
0.002
0.0115
0.0185
0.004
0.0035
0.0075
0.012
0.023
0.0255
0.025
0.0185
0.0215
0.032
0.0375
0.032
0.0355
0.038
0.025
0.034
0.0495
0.0545
0.037
0.0245
0.027
0.0055
0.0065
0.0265
0.0275
0.018
0.012
0.0225
0.029
0.029
0.033
0.041
0.0435
0.0355
0.0375
0.0465
0.055
0.0485
0.043
0.049
0.045
0.0455
0.0445
0.027
0.0205
0.0345
0.0365
0.03
0.0345
0.0325
0.025
0.024
0.0335
0.0475
0.054
0.0425
0.043
0.0605
0.0575
0.0465
0.044
0.047
0.0505
0.0495
0.0405
0.048
0.052
0.0415
0.045
0.05
0.045
0.045
0.056
0.054
0.04
0.043
0.0645
0.0745
0.076
0.0705
0.0515
0.052
0.0605
0.0535
0.048
0.0415
0.038
0.0335
0.032
0.038
0.036
0.039
0.0505
0.046
0.054
0.0735
0.082
0.076
0.0505
0.045
0.041
0.0435
0.054
0.0515
0.048
0.054
0.066
0.054
0.038
0.0465
0.057
0.0615
0.066
0.069
0.073
0.0665
0.07
0.0825
0.075
0.0425
0.039
0.059
0.0455
0.0565
0.065
0.0505
0.0465
0.049
0.054
0.065
0.078
0.0715
0.0645
0.0645
0.076
0.0855
0.0825
0.0775
0.075
0.061
0.0495
0.0635
0.076
0.0815
0.078
0.062
0.0435
0.0525
0.0655
0.069
0.0725
0.0565
0.055
0.061
0.06
0.067
0.066
0.0525
0.067
0.0765
0.059
0.056
0.0495
0.0555
0.0665
0.059
0.0535
0.0525
0.0565
0.064
0.0635
0.064
0.055
0.04
0.036
0.038
0.036
0.0335
0.0415
0.0335
0.0255
0.024
0.026
0.0395
0.047
0.059
0.0715
0.062
0.046
0.0575
0.0605
0.0575
0.0725
0.0575
0.046
0.0465
0.034
0.023
0.0265
0.027
0.0275
0.0365
0.0345
0.0335
0.028
0.036
0.0395
0.0365
0.047
0.041
0.033
0.0295
0.026
0.0235
0.0295
0.028
0.018
0.0235
0.0365
0.0495
0.047
0.019
0.009
0.0155
0.011
0.007
0.003
0.0105
0.0235
0.0245
0.0205
0.021
0.0255
0.0245
0.0125
0.011
0.0105
0.008
0.015
0.017
0.011
0.0115
0.022
0.039
0.046
0.033
0.0305
0.038
0.0375
0.038
0.0465
0.0435
0.028
0.0395
0.04
0.017
0.0235
0.0385
0.046
0.0475
0.042
0.0345
0.025
0.0235
0.0395
0.052
0.049
0.046
0.0425
0.0375
0.037
0.05
0.0595
0.0625
0.0715
0.0795
0.0825
0.075
0.065
0.052
0.038
0.0305
0.029
0.0405
0.048
0.0485
0.053
0.0465
0.055
0.0815
0.0775
0.076
0.083
0.0625
0.0535
0.0525
0.043
0.0465
0.057
0.063
0.0515
0.049
0.0645
0.0615
0.053
0.063
0.0585
0.0545
0.066
0.057
0.0485
0.055
0.0515
0.0435
0.0515
0.056
0.067
0.0725
0.061
0.05
0.0495
0.049
0.0465
0.0515
0.0495
0.058
0.0555
0.0535
0.064
0.063
0.061
0.07
0.062
0.0505
0.0555
0.049
0.051
0.067
0.0745
0.062
0.05
0.0545
0.0615
0.058
0.062
0.082
0.083
0.0645
0.0535
0.063
0.0595
0.05
0.0575
0.066
0.0645
0.0615
0.0645
0.061
0.0665
0.061
0.0415
0.037
0.0365
0.0415
0.0495
0.0515
0.047
0.054
0.062
0.062
0.0615
0.0505
0.059
0.0665
0.0465
0.0445
0.0505
0.051
0.048
0.042
0.041
0.028
0.0415
0.058
0.052
0.054
0.059
0.0695
0.082
0.086
0.0665
0.0615
0.0605
0.0355
0.027
0.0365
0.0515
0.0595
0.0525
0.0375
0.033
0.0375
0.0315
0.037
0.0475
0.051
0.057
0.0475
0.0415
0.0465
0.052
0.0565
0.056
0.05
0.043
0.047
0.0275
0.0155
0.027
0.026
0.0345
0.0415
0.0455
0.052
0.0535
0.0495
0.049
0.051
0.0485
0.0445
0.036
0.0395
0.0495
0.0545
0.0495
0.0425
0.039
0.0385
0.043
0.0385
0.042
0.045
0.0455
0.0575
0.062
0.0545
0.0525
0.0615
0.062
0.052
0.0515
0.0465
0.057
0.0665
0.0505
0.044
0.0485
0.0645
0.061
0.045
0.0405
0.029
0.026
0.02
0.0095
0.018
0.023
0.0225
0.034
0.0425
0.048
0.074
0.0735
0.0635
0.0635
0.0625
0.072
0.061
0.0585
0.048
0.0505
0.0695
0.064
0.059
0.049
0.0495
0.0565
0.052
0.0545
0.064
0.07
0.067
0.049
0.0375
0.038
0.0455
0.053
0.054
0.064
0.061
0.0515
0.043
0.04
0.0495
0.0565
0.0545
0.0505
0.05
0.045
0.0455
0.042
0.0505
0.061
0.061
0.0665
0.063
0.0505
0.0445
0.042
0.043
0.0525
0.048
0.044
0.0495
0.0575
0.0655
0.0745
0.0715
0.0615
0.0715
0.0795
0.0725
0.0595
0.062
0.0435
0.034
0.049
0.045
0.042
0.033
0.045
0.0635
0.065
0.0625
0.063
0.069
0.059
0.044
0.0455
0.056
0.0635
0.0525
0.054
0.069
0.0605
0.0545
0.052
0.049
0.034
0.0385
0.063
0.0625
0.06
0.056
0.053
0.065
0.08
0.0835
0.068
0.0535
0.071
0.079
0.077
0.0805
0.068
0.0645
0.0645
0.0805
0.0925
0.092
0.081
0.0535
0.0565
0.068
0.0675
0.0715
0.0795
0.0945
0.107
0.109
0.104
0.107
0.117
0.1075
0.1055
0.125
0.1305
0.129
0.1335
0.133
0.132
0.13
0.127
0.133
0.138
0.128
0.1295
0.15
0.1575
0.1605
0.151
0.1555
0.1615
0.1445
0.1465
0.1565
0.1545
0.138
0.132
0.15
0.162
0.1475
0.1395
0.1485
0.143
0.146
0.1565
0.149
0.159
0.173
0.1745
0.18
0.176
0.1775
0.179
0.175
0.1785
0.1775
0.171
0.1555
0.145
0.141
0.1545
0.175
0.161
0.137
0.122
0.1095
0.1065
0.1325
0.1275
0.0885
0.098
0.107
0.0925
0.0805
0.069
0.074
0.082
0.081
0.072
0.0545
0.0475
0.0425
0.043
0.0515
0.0575
0.0545
0.0535
0.0705
0.0695
0.069
0.055
0.0345
0.037
0.0445
0.055
0.054
0.043
0.0405
0.039
0.036
0.0535
0.065
0.0595
0.0555
0.0625
0.0735
0.0565
0.062
0.0665
0.042
0.038
0.0405
0.0435
0.046
0.049
0.0545
0.0495
0.0435
0.038
0.0415
0.058
0.0685
0.063
0.0325
0.033
0.0405
0.041
0.0625
0.067
0.0645
0.0655
0.072
0.071
0.0575
0.0545
0.0665
0.0715
0.0655
0.0535
0.0495
0.0405
0.021
0.0225
0.018
0.0065
-0.018
-0.013
-0.006
-0.004
0.0295
0.024
0.0205
0.0225
0.032
0.064
0.1035
0.158
0.2085
0.2345
0.245
0.284
0.3445
0.405
0.4515
0.4875
0.522
0.5555
0.585
0.6265
0.678
0.7075
0.7015
0.6505
0.6115
0.6
0.5775
0.549
0.511
0.4775
0.4495
0.4135
0.3885
0.3725
0.3315
0.2655
0.2
0.142
0.0895
0.067
0.0525
0.024
0.01
0.0125
0.021
0.0195
0.0155
0.005
0.0145
0.05
0.06
0.052
0.043
0.0435
0.0335
0.0265
0.0365
0.0355
0.03
0.018
0.0245
0.021
0.021
0.027
0.024
0.0355
0.023
0.0255
0.028
0.0165
0.0105
0.019
0.0485
0.058
0.0615
0.049
0.0365
0.047
0.057
0.0545
0.0525
0.0625
0.062
0.0555
0.0465
0.0355
0.0375
0.039
0.047
0.042
0.0315
0.045
0.06
0.0545
0.0365
0.041
0.0505
0.054
0.066
0.0725
0.072
0.057
0.0385
0.041
0.055
0.058
0.065
0.06
0.0395
0.0275
0.0285
0.0365
0.0405
0.0495
0.049
0.0365
0.0245
0.0365
0.054
0.0595
0.059
0.05
0.051
0.0355
0.0405
0.044
0.037
0.061
0.0555
0.047
0.054
0.0615
0.081
0.0935
0.0765
0.0575
0.0525
0.054
0.0735
0.087
0.0795
0.0725
0.0595
0.036
0.0375
0.047
0.0565
0.065
0.062
0.061
0.056
0.055
0.0545
0.0685
0.075
0.0605
0.0575
0.0535
0.06
0.068
0.0695
0.066
0.0615
0.0695
0.0755
0.0765
0.0735
0.064
0.061
0.0565
0.043
0.058
0.0755
0.082
0.092
0.095
0.099
0.0945
0.0965
0.0995
0.0885
0.0725
0.064
0.056
0.064
0.076
0.061
0.065
0.069
0.058
0.052
0.0585
0.0845
0.102
0.0805
0.058
0.0675
0.0735
0.072
0.07
0.073
0.0775
0.085
0.0885
0.0795
0.074
0.056
0.0495
0.0675
0.0745
0.0715
0.069
0.0725
0.079
0.0775
0.0705
0.0705
0.0705
0.0835
0.084
0.065
0.061
0.0635
0.069
0.07
0.074
0.0745
0.0735
0.0725
0.0465
0.0365
0.0525
0.0605
0.0685
0.071
0.0755
0.059
0.037
0.0575
0.07
0.068
0.067
0.0625
0.0575
0.0585
0.053
0.0505
0.0515
0.0475
0.052
0.0525
0.0585
0.0555
0.053
0.0515
0.037
0.037
0.054
0.0705
0.064
0.0575
0.056
0.057
0.062
0.0535
0.0525
0.036
0.0275
0.0455
0.0445
0.036
0.028
0.03
0.0345
0.034
0.016
0.0135
0.04
0.0405
0.0305
0.0215
0.0285
0.039
0.036
0.032
0.0325
0.0275
0.011
-0.0025
-0.0065
0.032
0.0555
0.0445
0.0495
0.0285
0.016
0.0345
0.039
0.032
0.028
0.028
0.0305
0.034
0.026
0.019
0.023
0.032
0.032
0.0285
0.026
0.028
0.034
0.0345
0.0375
0.049
0.0505
0.0445
0.061
0.0505
0.0385
0.052
0.0425
0.04
0.0415
0.0355
0.0405
0.0445
0.0545
0.056
0.0465
0.0445
0.0415
0.0385
0.0405
0.05
0.0585
0.0645
0.063
0.06
0.0625
0.0605
0.043
0.0395
0.0645
0.0715
0.0665
0.065
0.0635
0.0675
0.0735
0.0685
0.0615
0.0605
0.066
0.0725
0.0665
0.0665
0.0745
0.0825
0.077
0.0835
0.09
0.0915
0.104
0.0785
0.048
0.0435
0.0455
0.04
0.045
0.051
0.0555
0.0715
0.0715
0.074
0.0755
0.0685
0.067
0.072
0.0835
0.083
0.0715
0.0695
0.0685
0.066
0.0705
0.0625
0.0605
0.0625
0.0495
0.0565
0.075
0.071
0.07
0.069
0.0535
0.0535
0.05
0.0425
0.0475
0.0555
0.064
0.075
0.072
0.0705
0.0745
0.0775
0.08
0.075
0.07
0.0565
0.05
0.05
0.048
0.0555
0.071
0.0775
0.076
0.066
0.0615
0.069
0.07
0.081
0.071
0.063
0.065
0.0505
0.06
0.0655
0.0535
0.05
0.0595
0.0675
0.066
0.0745
0.0745
0.069
0.0675
0.065
0.062
0.05
0.037
0.0455
0.0535
0.05
0.059
0.0585
0.0545
0.0595
0.0675
0.0595
0.0455
0.049
0.05
0.056
0.063
0.072
0.0785
0.073
0.055
0.0295
0.032
0.0565
0.0675
0.0595
0.045
0.044
0.0455
0.0475
0.059
0.057
0.0485
0.0325
0.0315
0.039
0.0425
0.039
0.0345
0.054
0.055
0.048
0.053
0.058
0.058
0.054
0.05
0.047
0.0345
0.027
0.037
0.043
0.0475
0.0495
0.0425
0.0405
0.048
0.0465
0.051
0.0605
0.056
0.06
0.06
0.058
0.0635
0.0585
0.0585
0.0525
0.0435
0.0475
0.06
0.058
0.032
0.0305
0.045
0.0495
0.042
0.0285
0.0345
0.061
0.0625
0.048
0.0395
0.018
0.0465
0.0735
0.056
0.053
0.064
0.07
0.0625
0.0605
0.0645
0.0625
0.0565
0.0525
0.057
0.063
0.0515
0.0545
0.047
0.0325
0.049
0.066
0.0735
0.063
0.0595
0.077
0.0825
0.069
0.0605
0.0515
0.058
0.0675
0.052
0.0515
0.0605
0.0615
0.059
0.047
0.044
0.0495
0.0535
0.0705
0.0815
0.064
0.0525
0.0605
0.0605
0.0545
0.055
0.056
0.056
0.0585
0.036
0.024
0.0445
0.0625
0.0705
0.066
0.052
0.041
0.0535
0.0645
0.061
0.063
0.056
0.043
0.0445
0.051
0.0595
0.0625
0.06
0.0605
0.062
0.0455
0.0355
0.062
0.0675
0.055
0.058
0.065
0.0665
0.0735
0.074
0.0705
0.074
0.0575
0.052
0.06
0.0505
0.055
0.0625
0.064
0.057
0.04
0.0405
0.05
0.0665
0.061
0.0445
0.055
0.06
0.0685
0.08
0.071
0.068
0.0535
0.047
0.069
0.071
0.0765
0.074
0.063
0.0645
0.068
0.072
0.072
0.069
0.063
0.062
0.057
0.0565
0.077
0.088
0.0905
0.0915
0.073
0.064
0.061
0.055
0.066
0.072
0.0715
0.082
0.0945
0.097
0.0875
0.0715
0.069
0.0795
0.0855
0.0905
0.0865
0.082
0.0945
0.1095
0.1205
0.1195
0.1155
0.126
0.1335
0.139
0.1345
0.127
0.1405
0.1545
0.1455
0.1275
0.138
0.1505
0.15
0.149
0.146
0.151
0.161
0.1635
0.162
0.1595
0.151
0.1425
0.135
0.1405
0.15
0.1445
0.138
0.1365
0.1325
0.138
0.1475
0.144
0.1485
0.16
0.1615
0.1505
0.154
0.174
0.183
0.188
0.1835
0.1725
0.1725
0.1745
0.18
0.182
0.1655
0.16
0.164
0.1615
0.177
0.18
0.179
0.1575
0.115
0.1035
0.105
0.1095
0.0925
0.0875
0.095
0.088
0.077
0.061
0.0665
0.073
0.0735
0.076
0.0695
0.0715
0.081
0.0825
0.074
0.0665
0.0575
0.037
0.028
0.0155
0.0185
0.04
0.0395
0.0505
0.0465
0.034
0.042
0.047
0.0445
0.044
0.054
0.061
0.0645
0.054
0.044
0.043
0.051
0.047
0.0375
0.0435
0.046
0.05
0.039
0.0315
0.0465
0.054
0.058
0.058
0.0555
0.0615
0.046
0.026
0.039
0.0415
0.0365
0.0415
0.0415
0.0415
0.0385
0.0385
0.047
0.045
0.041
0.044
0.0445
0.0535
0.0635
0.063
0.048
0.0515
0.0745
0.0645
0.06
0.056
0.034
0.0345
0.0305
0.017
0.0045
0.003
0.0225
0.023
0.0015
0.0035
0.0395
0.0715
0.1015
0.1495
0.185
0.217
0.253
0.283
0.326
0.3845
0.4485
0.5005
0.551
0.6025
0.634
0.6645
0.6955
0.723
0.7105
0.666
0.6495
0.616
0.5735
0.5675
0.5495
0.5105
0.471
0.4345
0.4125
0.374
0.315
0.255
0.192
0.127
0.081
0.053
0.028
0.008
-0.013
-0.027
-0.0195
-0.0005
0.0045
0.028
0.046
0.0415
0.028
0.0245
0.041
0.044
0.0495
0.0455
0.04
0.041
0.0335
0.0225
0.0185
0.026
0.02
0.018
0.031
0.0285
0.019
0.022
0.039
0.051
0.041
0.042
0.0525
0.0445
0.0415
0.042
0.0315
0.034
0.0495
0.0475
0.055
0.0595
0.0465
0.0435
0.0435
0.0565
0.056
0.0655
0.063
0.025
0.0235
0.0415
0.0555
0.059
0.0545
0.046
0.0365
0.043
0.0585
0.0615
0.0645
0.071
0.062
0.049
0.027
0.0285
0.048
0.066
0.072
0.059
0.054
0.05
0.062
0.057
0.0495
0.068
0.0635
0.0575
0.0545
0.051
0.065
0.0715
0.0695
0.064
0.0465
0.035
0.047
0.0535
0.0415
0.049
0.055
0.049
0.0585
0.0835
0.087
0.0595
0.053
0.052
0.052
0.065
0.0625
0.0605
0.061
0.051
0.0485
0.066
0.083
0.0735
0.049
0.0465
0.0465
0.045
0.0635
0.0645
0.0625
0.073
0.0625
0.0555
0.071
0.0685
0.0555
0.0505
0.0525
0.058
0.059
0.059
0.045
0.043
0.0655
0.071
0.065
0.0745
0.074
0.052
0.0595
0.079
0.081
0.075
0.0545
0.047
0.059
0.078
0.081
0.0675
0.062
0.0755
0.083
0.078
0.076
0.071
0.0795
0.0825
0.084
0.0815
0.061
0.061
0.0675
0.073
0.0775
0.0755
0.085
0.0755
0.0445
0.0515
0.071
0.0755
0.0885
0.0845
0.0735
0.076
0.07
0.0655
0.0805
0.0925
0.089
0.084
0.083
0.0725
0.0715
0.085
0.0875
0.0925
0.0925
0.0925
0.104
0.0945
0.0695
0.05
0.047
0.0535
0.052
0.064
0.066
0.0595
0.061
0.057
0.054
0.0275
0.013
0.044
0.0635
0.0585
0.072
0.0675
0.056
0.0655
0.0635
0.057
0.057
0.0445
0.0415
0.0755
0.076
0.0595
0.0575
0.0515
0.043
0.0375
0.044
0.0525
0.062
0.058
0.0515
0.0495
0.0365
0.0315
0.0355
0.0325
0.0435
0.0475
0.038
0.0445
0.0465
0.038
0.0355
0.033
0.031
0.0195
0.0195
0.0195
0.024
0.0385
0.0335
0.038
0.0405
0.034
0.031
0.0255
0.0235
0.0365
0.0305
0.0245
0.023
0.0195
0.033
0.0285
0.0255
0.031
0.0305
0.032
0.0305
0.031
0.039
0.0405
0.038
0.0465
0.05
0.045
0.042
0.0305
0.02
0.023
0.0335
0.037
0.0425
0.054
0.0465
0.0405
0.0475
0.054
0.059
0.0715
0.0795
0.068
0.0395
0.013
0.0205
0.0625
0.0835
0.07
0.0625
0.069
0.072
0.0575
0.055
0.057
0.051
0.058
0.0635
0.056
0.0535
0.0425
0.031
0.042
0.049
0.0475
0.0475
0.0545
0.051
0.0505
0.073
0.089
0.0885
0.0775
0.065
0.062
0.069
0.0785
0.071
0.053
0.053
0.059
0.0645
0.064
0.059
0.063
0.053
0.0575
0.0705
0.0695
0.075
0.061
0.0515
0.0685
0.079
0.074
0.074
0.066
0.0585
0.0645
0.0545
0.0555
0.056
0.0635
0.065
0.0505
0.064
0.0675
0.0615
0.0725
0.0845
0.082
0.0665
0.0605
0.0665
0.073
0.0685
0.0625
0.0675
0.0685
0.071
0.075
0.065
0.0585
0.0645
0.066
0.064
0.067
0.074
0.067
0.0695
0.0795
0.074
0.084
0.0865
0.087
0.087
0.0795
0.077
0.072
0.0725
0.067
0.0655
0.0625
0.0485
0.052
0.0615
0.063
0.068
0.073
0.0695
0.075
0.0755
0.0665
0.0685
0.0655
0.0515
0.05
0.065
0.0625
0.06
0.0655
0.064
0.0575
0.0345
0.028
0.0445
0.034
0.0285
0.0465
0.042
0.0405
0.062
0.079
0.082
0.074
0.064
0.0605
0.0685
0.0755
0.059
0.057
0.06
0.051
0.0585
0.0635
0.063
0.06
0.0595
0.062
0.046
0.041
0.054
0.0585
0.0555
0.051
0.057
0.0635
0.0565
0.0365
0.04
0.058
0.053
0.0505
0.046
0.044
0.054
0.057
0.06
0.054
0.0465
0.041
0.049
0.059
0.044
0.0365
0.057
0.049
0.033
0.05
0.059
0.0665
0.0645
0.0625
0.0635
0.066
0.0715
0.0795
0.079
0.069
0.075
0.074
0.0635
0.044
0.039
0.041
0.0365
0.057
0.066
0.056
0.0535
0.04
0.044
0.064
0.0545
0.051
0.0585
0.06
0.056
0.0495
0.0575
0.0625
0.0665
0.0765
0.073
0.063
0.058
0.0465
0.0405
0.059
0.0685
0.0695
0.071
0.061
0.057
0.0525
0.0485
0.0615
0.0695
0.065
0.065
0.057
0.051
0.059
0.0705
0.0755
0.074
0.0795
0.087
0.067
0.0375
0.0465
0.0455
0.0355
0.0575
0.0645
0.059
0.062
0.062
0.0535
0.0555
0.0665
0.067
0.066
0.0685
0.0675
0.066
0.078
0.0855
0.056
0.026
0.0385
0.0555
0.064
0.0685
0.0725
0.074
0.0675
0.0645
0.064
0.06
0.05
0.053
0.0705
0.081
0.078
0.073
0.085
0.0935
0.08
0.0725
0.072
0.0575
0.048
0.054
0.0655
0.079
0.0745
0.0545
0.039
0.0365
0.061
0.081
0.0745
0.063
0.0625
0.0635
0.0635
0.082
0.0825
0.056
0.0585
0.0685
0.0615
0.059
0.061
0.0525
0.0415
0.052
0.0745
0.087
0.086
0.094
0.0855
0.0785
0.0865
0.085
0.084
0.0765
0.0625
0.0475
0.047
0.051
0.0615
0.07
0.072
0.0855
0.091
0.0855
0.081
0.081
0.0755
0.075
0.0905
0.101
0.0905
0.071
0.0855
0.0925
0.0795
0.082
0.0765
0.073
0.0865
0.1005
0.0945
0.0855
0.0785
0.093
0.1085
0.11
0.116
0.107
0.1045
0.109
0.1085
0.1085
0.1215
0.1355
0.1425
0.1405
0.123
0.1215
0.138
0.1455
0.156
0.152
0.137
0.1405
0.1425
0.145
0.1525
0.1585
0.146
0.1575
0.175
0.166
0.169
0.17
0.168
0.169
0.154
0.142
0.145
0.1145
0.103
0.124
0.1415
0.158
0.16
0.1645
0.1715
0.1885
0.192
0.181
0.1845
0.175
0.172
0.175
0.1765
0.1875
0.1805
0.1775
0.1555
0.148
0.1855
0.182
0.1655
0.1635
0.1595
0.1605
0.165
0.1585
0.145
0.1435
0.1385
0.1365
0.1275
0.124
0.1215
0.1095
0.114
0.1005
0.0835
0.073
0.0705
0.071
0.0705
0.0685
0.0635
0.0705
0.049
0.041
0.0525
0.0565
0.062
0.0575
