ECG
-0.264
-0.268
-0.2615
-0.268
-0.274
-0.2735
-0.276
-0.281
-0.281
-0.284
-0.2835
-0.2705
-0.262
-0.2645
-0.265
-0.26
-0.2575
-0.26
-0.266
-0.2715
-0.2715
-0.2675
-0.265
-0.2675
-0.2755
-0.2755
-0.269
-0.266
-0.267
-0.2695
-0.2695
-0.2725
-0.2745
-0.267
-0.2645
-0.2635
-0.257
-0.2585
-0.262
-0.2615
-0.2615
-0.2595
-0.2605
-0.2555
-0.2515
-0.2515
-0.2435
-0.2335
-0.2315
-0.235
-0.233
-0.23
-0.2245
-0.218
-0.2165
-0.213
-0.2125
-0.213
-0.2095
-0.2165
-0.2195
-0.2175
-0.219
-0.212
-0.2075
-0.2035
-0.201
-0.1995
-0.199
-0.199
-0.202
-0.204
-0.2055
-0.2075
-0.204
-0.2035
-0.1995
-0.2065
-0.2135
-0.213
-0.213
-0.2095
-0.21
-0.211
-0.209
-0.2095
-0.2065
-0.202
-0.202
-0.1995
-0.198
-0.2015
-0.2105
-0.213
-0.2075
-0.2105
-0.205
-0.199
-0.203
-0.1955
-0.19
-0.1905
-0.1885
-0.1955
-0.209
-0.2125
-0.2
-0.1915
-0.1935
-0.1925
-0.194
-0.201
-0.2005
-0.201
-0.211
-0.2215
-0.2255
-0.2165
-0.2135
-0.2125
-0.2035
-0.205
-0.213
-0.215
-0.2155
-0.219
-0.223
-0.226
-0.2255
-0.233
-0.237
-0.243
-0.2505
-0.248
-0.2525
-0.252
-0.257
-0.265
-0.2615
-0.267
-0.269
-0.274
-0.278
-0.2745
-0.277
-0.2745
-0.2745
-0.28
-0.2855
-0.2905
-0.2895
-0.291
-0.2875
-0.282
-0.2815
-0.2865
-0.2925
-0.293
-0.291
-0.2905
-0.295
-0.296
-0.2935
-0.2945
-0.293
-0.2945
-0.2935
-0.292
-0.2915
-0.2735
-0.2745
-0.282
-0.2765
-0.2805
-0.281
-0.284
-0.286
-0.2855
-0.2905
-0.288
-0.2875
-0.284
-0.2795
-0.283
-0.276
-0.277
-0.28
-0.2825
-0.2915
-0.292
-0.289
-0.2885
-0.292
-0.2875
-0.2855
-0.287
-0.2875
-0.2925
-0.2925
-0.292
-0.292
-0.294
-0.294
-0.2905
-0.2945
-0.307
-0.314
-0.3155
-0.3255
-0.3375
-0.348
-0.3615
-0.377
-0.382
-0.382
-0.3795
-0.3745
-0.377
-0.378
-0.3805
-0.3845
-0.382
-0.3665
-0.347
-0.331
-0.3015
-0.2555
-0.216
-0.168
-0.1145
-0.066
-0.006
0.044
0.0925
0.141
0.1955
0.2575
0.3075
0.3615
0.4
0.423
0.457
0.489
0.5085
0.5145
0.5175
0.5185
0.511
0.4975
0.482
0.4765
0.4735
0.4535
0.405
0.347
0.2885
0.229
0.1645
0.0975
0.0235
-0.0565
-0.1285
-0.1855
-0.212
-0.231
-0.243
-0.251
-0.2585
-0.2605
-0.2615
-0.262
-0.2665
-0.2625
-0.261
-0.267
-0.2715
-0.273
-0.2635
-0.256
-0.2565
-0.255
-0.248
-0.2535
-0.262
-0.261
-0.263
-0.2585
-0.257
-0.2665
-0.2645
-0.2585
-0.265
-0.2725
-0.2775
-0.2785
-0.276
-0.2665
-0.272
-0.2755
-0.2685
-0.2735
-0.271
-0.2675
-0.2665
-0.2665
-0.2725
-0.2745
-0.2725
-0.2715
-0.2705
-0.277
-0.2805
-0.2815
-0.2845
-0.279
-0.272
-0.2745
-0.2805
-0.285
-0.2805
-0.265
-0.2645
-0.266
-0.2625
-0.271
-0.2715
-0.2675
-0.2665
-0.2655
-0.267
-0.2675
-0.2665
-0.2645
-0.2615
-0.265
-0.2635
-0.2595
-0.261
-0.255
-0.251
-0.2535
-0.2575
-0.2635
-0.2645
-0.2655
-0.2685
-0.264
-0.257
-0.2565
-0.2585
-0.259
-0.2605
-0.2605
-0.2555
-0.2505
-0.2475
-0.2495
-0.259
-0.259
-0.254
-0.2515
-0.254
-0.2595
-0.263
-0.2655
-0.265
-0.2585
-0.248
-0.247
-0.243
-0.2325
-0.226
-0.2375
-0.248
-0.243
-0.2415
-0.242
-0.2435
-0.243
-0.244
-0.245
-0.242
-0.2395
-0.2325
-0.233
-0.235
-0.229
-0.233
-0.2335
-0.2225
-0.2185
-0.222
-0.2275
-0.2265
-0.2215
-0.217
-0.213
-0.213
-0.2135
-0.214
-0.2155
-0.217
-0.218
-0.2125
-0.21
-0.212
-0.205
-0.2045
-0.211
-0.2085
-0.2065
-0.2065
-0.1965
-0.1865
-0.188
-0.191
-0.1975
-0.1985
-0.1955
-0.192
-0.184
-0.1775
-0.1715
-0.1705
-0.1725
-0.1725
-0.1745
-0.1695
-0.1625
-0.1615
-0.156
-0.1545
-0.1515
-0.1405
-0.138
-0.1445
-0.141
-0.1335
-0.13
-0.1255
-0.127
-0.123
-0.1155
-0.1115
-0.113
-0.1185
-0.108
-0.091
-0.0945
-0.1
-0.0965
-0.0935
-0.0905
-0.0905
-0.0875
-0.0795
-0.07
-0.0685
-0.062
-0.0645
-0.0745
-0.0675
-0.0605
-0.057
-0.051
-0.0495
-0.043
-0.024
-0.021
-0.018
-0.01
-0.0085
-0.0055
-0.01
-0.0135
-0.0125
-0.0145
-0.016
-0.0175
-0.0095
0.006
0.016
0.0245
0.025
0.023
0.022
0.02
0.017
0.0155
0.017
0.021
0.0295
0.03
0.0305
0.0375
0.032
0.0305
0.0315
0.033
0.036
0.0335
0.0345
0.0265
0.022
0.023
0.021
0.015
0.0065
0.0075
0.006
0.002
0.003
-0.0015
-0.004
0.001
0.0045
-0.0035
-0.019
-0.0235
-0.027
-0.034
-0.035
-0.034
-0.0405
-0.0525
-0.0625
-0.0665
-0.07
-0.072
-0.079
-0.0935
-0.1035
-0.112
-0.119
-0.123
-0.12
-0.127
-0.141
-0.1375
-0.1315
-0.14
-0.148
-0.1505
-0.167
-0.1745
-0.1785
-0.19
-0.188
-0.1835
-0.188
-0.1915
-0.196
-0.203
-0.2
-0.199
-0.204
-0.2125
-0.219
-0.2185
-0.22
-0.2235
-0.2295
-0.229
-0.23
-0.2325
-0.233
-0.235
-0.23
-0.2295
-0.236
-0.2305
-0.2275
-0.2345
-0.2375
-0.248
-0.247
-0.239
-0.238
-0.2425
-0.2535
-0.251
-0.24
-0.233
-0.2345
-0.2355
-0.237
-0.239
-0.239
-0.2415
-0.2465
-0.2555
-0.256
-0.244
-0.2355
-0.245
-0.25
-0.2485
-0.255
-0.252
-0.251
-0.252
-0.2495
-0.253
-0.2525
-0.25
-0.2525
-0.256
-0.2575
-0.2465
-0.2475
-0.2515
-0.2475
-0.2495
-0.2495
-0.2525
-0.2555
-0.256
-0.253
-0.2555
-0.2575
-0.256
-0.2535
-0.2485
-0.2495
-0.252
-0.252
-0.2505
-0.2525
-0.2615
-0.266
-0.2535
-0.2435
-0.2515
-0.2565
-0.253
-0.2525
-0.254
-0.2535
-0.254
-0.2515
-0.2525
-0.258
-0.2555
-0.246
-0.243
-0.247
-0.249
-0.251
-0.2535
-0.2565
-0.2585
-0.2575
-0.255
-0.2575
-0.2625
-0.2585
-0.2575
-0.262
-0.2585
-0.2525
-0.25
-0.2525
-0.2495
-0.251
-0.2565
-0.26
-0.267
-0.2605
-0.252
-0.2495
-0.2455
-0.2465
-0.253
-0.258
-0.257
-0.252
-0.2545
-0.259
-0.259
-0.2605
-0.2615
-0.261
-0.2535
-0.2465
-0.249
-0.247
-0.2425
-0.244
-0.243
-0.243
-0.2495
-0.2475
-0.2465
-0.2515
-0.2515
-0.251
-0.2445
-0.246
-0.2435
-0.2355
-0.244
-0.252
-0.2555
-0.2575
-0.256
-0.254
-0.2525
-0.255
-0.2565
-0.252
-0.2535
-0.258
-0.257
-0.255
-0.2575
-0.256
-0.256
-0.2575
-0.257
-0.2615
-0.258
-0.2545
-0.253
-0.253
-0.2525
-0.2505
-0.253
-0.2445
-0.2415
-0.2525
-0.259
-0.262
-0.2645
-0.2615
-0.2575
-0.2585
-0.2565
-0.256
-0.256
-0.256
-0.254
-0.2515
-0.2535
-0.2545
-0.2605
-0.26
-0.263
-0.265
-0.255
-0.2595
-0.2575
-0.253
-0.255
-0.2555
-0.2625
-0.2655
-0.2645
-0.265
-0.2645
-0.26
-0.263
-0.263
-0.259
-0.2595
-0.261
-0.258
-0.25
-0.2475
-0.2475
-0.2425
-0.2365
-0.2365
-0.2365
-0.235
-0.235
-0.2395
-0.2365
-0.229
-0.228
-0.2245
-0.229
-0.229
-0.225
-0.2245
-0.224
-0.223
-0.224
-0.224
-0.221
-0.217
-0.218
-0.2185
-0.208
-0.2035
-0.197
-0.184
-0.177
-0.1785
-0.1865
-0.1885
-0.189
-0.1945
-0.1935
-0.196
-0.1965
-0.196
-0.2
-0.195
-0.1955
-0.194
-0.1915
-0.1925
-0.1915
-0.193
-0.192
-0.1875
-0.1835
-0.1805
-0.1805
-0.183
-0.1865
-0.191
-0.1915
-0.191
-0.193
-0.1895
-0.1905
-0.194
-0.194
-0.1945
-0.191
-0.1975
-0.1985
-0.184
-0.182
-0.1825
-0.181
-0.184
-0.1805
-0.1755
-0.178
-0.1855
-0.1965
-0.1965
-0.194
-0.1985
-0.198
-0.1975
-0.2005
-0.1995
-0.2015
-0.199
-0.1925
-0.206
-0.2085
-0.2015
-0.2075
-0.2135
-0.2185
-0.2215
-0.2205
-0.225
-0.233
-0.2355
-0.2445
-0.2495
-0.2515
-0.2595
-0.2705
-0.269
-0.259
-0.2685
-0.279
-0.277
-0.2755
-0.2735
-0.272
-0.2685
-0.26
-0.267
-0.2705
-0.264
-0.266
-0.2755
-0.285
-0.285
-0.275
-0.268
-0.2765
-0.278
-0.2735
-0.2755
-0.2695
-0.269
-0.2755
-0.274
-0.276
-0.279
-0.276
-0.275
-0.275
-0.2785
-0.2825
-0.283
-0.281
-0.2885
-0.288
-0.275
-0.2805
-0.2855
-0.2825
-0.278
-0.281
-0.29
-0.288
-0.2895
-0.292
-0.291
-0.2855
-0.2815
-0.2845
-0.288
-0.291
-0.2975
-0.298
-0.2915
-0.291
-0.292
-0.3025
-0.2965
-0.2855
-0.2885
-0.288
-0.289
-0.2835
-0.2815
-0.2895
-0.2995
-0.309
-0.3175
-0.3285
-0.3405
-0.3545
-0.3705
-0.3765
-0.379
-0.3905
-0.3895
-0.3845
-0.3865
-0.3895
-0.39
-0.39
-0.385
-0.3635
-0.347
-0.3165
-0.2655
-0.2295
-0.1895
-0.1345
-0.082
-0.016
0.049
0.1025
0.153
0.2
0.254
0.3035
0.364
0.42
0.444
0.4745
0.509
0.5345
0.558
0.5685
0.568
0.557
0.535
0.517
0.5025
0.493
0.4695
0.423
0.3715
0.3175
0.252
0.181
0.124
0.0535
-0.0215
-0.0865
-0.145
-0.185
-0.2235
-0.245
-0.246
-0.2535
-0.2605
-0.263
-0.2665
-0.281
-0.281
-0.27
-0.2755
-0.28
-0.275
-0.27
-0.2665
-0.2625
-0.2615
-0.2645
-0.2635
-0.269
-0.2735
-0.2655
-0.254
-0.252
-0.259
-0.2565
-0.2555
-0.258
-0.2605
-0.267
-0.27
-0.268
-0.2625
-0.2655
-0.2675
-0.272
-0.273
-0.267
-0.271
-0.269
-0.263
-0.2565
-0.2605
-0.271
-0.275
-0.281
-0.2785
-0.2765
-0.2805
-0.2785
-0.2745
-0.274
-0.2795
-0.2795
-0.2715
-0.2665
-0.266
-0.2625
-0.2685
-0.274
-0.269
-0.272
-0.269
-0.267
-0.2695
-0.272
-0.275
-0.2735
-0.267
-0.259
-0.256
-0.2555
-0.263
-0.266
-0.2615
-0.26
-0.2605
-0.261
-0.258
-0.2555
-0.256
-0.261
-0.262
-0.262
-0.259
-0.252
-0.249
-0.2475
-0.246
-0.2455
-0.249
-0.25
-0.2535
-0.263
-0.262
-0.256
-0.26
-0.254
-0.248
-0.2525
-0.2545
-0.2485
-0.237
-0.2385
-0.245
-0.245
-0.246
-0.2365
-0.2295
-0.23
-0.2255
-0.2305
-0.233
-0.234
-0.243
-0.2505
-0.2445
-0.239
-0.2375
-0.2315
-0.231
-0.235
-0.235
-0.227
-0.231
-0.239
-0.2355
-0.2285
-0.22
-0.216
-0.2135
-0.213
-0.218
-0.216
-0.2155
-0.219
-0.222
-0.2185
-0.2165
-0.2205
-0.212
-0.2015
-0.197
-0.195
-0.197
-0.1955
-0.1955
-0.1995
-0.1985
-0.1945
-0.189
-0.188
-0.185
-0.181
-0.1815
-0.1825
-0.1835
-0.181
-0.177
-0.1725
-0.17
-0.1665
-0.1645
-0.163
-0.1555
-0.1575
-0.157
-0.1515
-0.148
-0.1425
-0.1405
-0.1425
-0.141
-0.134
-0.13
-0.1245
-0.1225
-0.1275
-0.1285
-0.1175
-0.1105
-0.112
-0.106
-0.097
-0.093
-0.0955
-0.097
-0.086
-0.079
-0.0825
-0.081
-0.0745
-0.073
-0.072
-0.063
-0.0635
-0.06
-0.0525
-0.0415
-0.0375
-0.0375
-0.022
-0.0175
-0.02
-0.018
-0.015
-0.005
0.003
-0.004
-0.0085
-0.008
-0.007
-0.0025
0.004
0.0165
0.023
0.0215
0.014
0.0095
0.0115
0.019
0.0225
0.0185
0.0205
0.027
0.0325
0.0305
0.036
0.0435
0.036
0.0355
0.039
0.044
0.0415
0.034
0.03
0.0265
0.027
0.031
0.0365
0.031
0.0305
0.0285
0.0175
0.018
0.02
0.02
0.013
0.0065
0.006
-0.002
-0.006
-0.006
-0.013
-0.018
-0.0255
-0.0375
-0.0405
-0.0445
-0.052
-0.059
-0.067
-0.0685
-0.0725
-0.0785
-0.0785
-0.0835
-0.0905
-0.0955
-0.1075
-0.1165
-0.1185
-0.1255
-0.1345
-0.145
-0.148
-0.149
-0.151
-0.152
-0.1605
-0.17
-0.177
-0.182
-0.1945
-0.203
-0.1965
-0.1865
-0.189
-0.1985
-0.2005
-0.203
-0.206
-0.212
-0.216
-0.2155
-0.223
-0.2275
-0.2315
-0.2335
-0.233
-0.2325
-0.2365
-0.2365
-0.2285
-0.2275
-0.237
-0.2455
-0.24
-0.24
-0.2415
-0.241
-0.247
-0.2465
-0.2445
-0.245
-0.247
-0.245
-0.245
-0.254
-0.251
-0.243
-0.248
-0.251
-0.254
-0.257
-0.2535
-0.2495
-0.237
-0.244
-0.2535
-0.241
-0.247
-0.2545
-0.2615
-0.262
-0.249
-0.2465
-0.247
-0.24
-0.234
-0.2425
-0.2525
-0.258
-0.2625
-0.2645
-0.2675
-0.262
-0.2545
-0.2565
-0.257
-0.252
-0.2495
-0.261
-0.2605
-0.2555
-0.2595
-0.256
-0.2505
-0.243
-0.244
-0.2565
-0.2605
-0.2615
-0.262
-0.254
-0.254
-0.259
-0.264
-0.262
-0.262
-0.2625
-0.2615
-0.268
-0.264
-0.262
-0.26
-0.2535
-0.249
-0.251
-0.259
-0.254
-0.25
-0.2545
-0.2505
-0.2495
-0.256
-0.258
-0.2595
-0.254
-0.252
-0.26
-0.2595
-0.2555
-0.2565
-0.2585
-0.257
-0.255
-0.2515
-0.249
-0.257
-0.2585
-0.2535
-0.253
-0.2505
-0.2545
-0.258
-0.2565
-0.26
-0.2575
-0.2515
-0.254
-0.2535
-0.252
-0.258
-0.2585
-0.2545
-0.2555
-0.257
-0.2565
-0.26
-0.2625
-0.261
-0.2615
-0.264
-0.2615
-0.2505
-0.2545
-0.259
-0.252
-0.2455
-0.2425
-0.247
-0.248
-0.2515
-0.253
-0.255
-0.2515
-0.245
-0.247
-0.2425
-0.249
-0.2645
-0.264
-0.26
-0.261
-0.252
-0.248
-0.2485
-0.26
-0.2685
-0.255
-0.2515
-0.256
-0.256
-0.256
-0.2575
-0.2605
-0.254
-0.249
-0.253
-0.252
-0.2605
-0.2695
-0.2655
-0.2715
-0.276
-0.275
-0.268
-0.2585
-0.2615
-0.2645
-0.264
-0.262
-0.2615
-0.2605
-0.2575
-0.2615
-0.266
-0.263
-0.2655
-0.265
-0.2685
-0.2705
-0.256
-0.256
-0.2515
-0.2485
-0.2625
-0.261
-0.253
-0.2545
-0.256
-0.2565
-0.2605
-0.261
-0.2555
-0.2495
-0.2475
-0.246
-0.2445
-0.2505
-0.2515
-0.2455
-0.243
-0.2415
-0.2405
-0.2385
-0.2405
-0.2395
-0.2365
-0.2345
-0.2335
-0.23
-0.2205
-0.2215
-0.219
-0.211
-0.2115
-0.218
-0.2125
-0.2075
-0.21
-0.2075
-0.207
-0.2025
-0.1985
-0.1905
-0.192
-0.202
-0.2
-0.2025
-0.2015
-0.202
-0.204
-0.1985
-0.201
-0.203
-0.2005
-0.1935
-0.185
-0.189
-0.182
-0.189
-0.207
-0.201
-0.2045
-0.2025
-0.1965
-0.1955
-0.189
-0.1785
-0.185
-0.201
-0.2025
-0.212
-0.217
-0.2145
-0.21
-0.1995
-0.1865
-0.1845
-0.1945
-0.19
-0.18
-0.1795
-0.1795
-0.18
-0.185
-0.1875
-0.1845
-0.1805
-0.1835
-0.1925
-0.205
-0.203
-0.2
-0.206
-0.206
-0.2085
-0.207
-0.2015
-0.203
-0.2045
-0.203
-0.208
-0.2135
-0.2175
-0.2125
-0.211
-0.2275
-0.234
-0.2345
-0.2435
-0.25
-0.253
-0.2535
-0.2535
-0.264
-0.2565
-0.252
-0.2715
-0.278
-0.2725
-0.27
-0.277
-0.281
-0.281
-0.2765
-0.27
-0.2725
-0.279
-0.284
-0.2835
-0.2795
-0.278
-0.2775
-0.285
-0.2895
-0.2825
-0.279
-0.2795
-0.286
-0.2925
-0.2935
-0.292
-0.287
-0.2815
-0.2815
-0.2815
-0.281
-0.2775
-0.275
-0.2855
-0.2875
-0.2785
-0.275
-0.285
-0.2885
-0.283
-0.2855
-0.291
-0.2955
-0.299
-0.294
-0.2835
-0.283
-0.285
-0.279
-0.2785
-0.2835
-0.286
-0.281
-0.2745
-0.276
-0.2805
-0.292
-0.292
-0.289
-0.2905
-0.289
-0.294
-0.29
-0.2915
-0.2865
-0.283
-0.296
-0.298
-0.306
-0.3215
-0.337
-0.3525
-0.3605
-0.368
-0.373
-0.3805
-0.385
-0.389
-0.3935
-0.392
-0.3935
-0.3915
-0.398
-0.3925
-0.37
-0.351
-0.316
-0.2715
-0.234
-0.1885
-0.134
-0.086
-0.027
0.027
0.083
0.138
0.1845
0.242
0.292
0.349
0.408
0.4425
0.464
0.4965
0.5065
0.514
0.53
0.525
0.5155
0.49
0.4755
0.4665
0.463
0.4425
0.386
0.336
0.281
0.218
0.147
0.082
0.0175
-0.0605
-0.1365
-0.1875
-0.224
-0.243
-0.2545
-0.283
-0.2895
-0.2825
-0.2795
-0.278
-0.291
-0.2975
-0.29
-0.2825
-0.283
-0.2845
-0.273
-0.264
-0.2665
-0.274
-0.272
-0.2655
-0.266
-0.266
-0.268
-0.267
-0.269
-0.2715
-0.2725
-0.2825
-0.2775
-0.275
-0.28
-0.267
-0.264
-0.2645
-0.2625
-0.2635
-0.2675
-0.2635
-0.2595
-0.2695
-0.2765
-0.273
-0.269
-0.27
-0.2705
-0.2775
-0.2755
-0.274
-0.276
-0.2715
-0.269
-0.271
-0.2815
-0.2885
-0.2845
-0.278
-0.288
-0.289
-0.2835
-0.2835
-0.27
-0.2655
-0.2645
-0.267
-0.2645
-0.256
-0.2525
-0.2535
-0.261
-0.2585
-0.258
-0.2565
-0.2575
-0.265
-0.262
-0.2585
-0.262
-0.2645
-0.259
-0.256
-0.2595
-0.257
-0.2565
-0.2565
-0.2605
-0.269
-0.2595
-0.2535
-0.257
-0.2555
-0.26
-0.2615
-0.258
-0.2645
-0.271
-0.2675
-0.2715
-0.2735
-0.262
-0.249
-0.242
-0.241
-0.242
-0.2445
-0.241
-0.2405
-0.2415
-0.2385
-0.2385
-0.239
-0.238
-0.244
-0.2485
-0.245
-0.238
-0.224
-0.2255
-0.2275
-0.229
-0.2305
-0.228
-0.2415
-0.245
-0.2355
-0.2305
-0.2265
-0.2135
-0.21
-0.212
-0.213
-0.215
-0.2185
-0.229
-0.22
-0.212
-0.2165
-0.216
-0.216
-0.2135
-0.209
-0.217
-0.2205
-0.213
-0.2085
-0.201
-0.198
-0.195
-0.1965
-0.1985
-0.187
-0.1845
-0.185
-0.178
-0.1805
-0.184
-0.1825
-0.183
-0.18
-0.176
-0.178
-0.1755
-0.172
-0.1685
-0.164
-0.167
-0.1695
-0.1655
-0.1575
-0.1505
-0.145
-0.1485
-0.1495
-0.139
-0.139
-0.1475
-0.145
-0.14
-0.1345
-0.1305
-0.1265
-0.119
-0.1125
-0.1115
-0.1105
-0.097
-0.0895
-0.092
-0.0925
-0.0875
-0.086
-0.0905
-0.0985
-0.0985
-0.09
-0.0765
-0.065
-0.054
-0.0435
-0.0475
-0.0465
-0.0455
-0.0485
-0.0415
-0.0425
-0.0495
-0.043
-0.028
-0.0135
-0.007
-0.0115
-0.0165
-0.011
0.0005
-0.0055
-0.0135
-0.0115
-0.0055
0.009
0.0135
0.0105
0.0065
0.01
0.0145
0.012
0.025
0.025
0.02
0.026
0.017
0.0145
0.019
0.0175
0.0215
0.025
0.0235
0.026
0.026
0.0185
0.0165
0.019
0.0165
0.013
0.0175
0.016
0.014
0.0145
0.0105
0.0065
0.0055
0.0025
-0.006
-0.0165
-0.0235
-0.021
-0.0245
-0.0375
-0.048
-0.0505
-0.0525
-0.063
-0.068
-0.0775
-0.0825
-0.0805
-0.089
-0.0945
-0.103
-0.111
-0.1075
-0.1125
-0.1245
-0.1295
-0.137
-0.136
-0.1485
-0.1605
-0.1565
-0.1585
-0.1555
-0.172
-0.1815
-0.1725
-0.18
-0.192
-0.1925
-0.1935
-0.198
-0.2015
-0.208
-0.208
-0.2055
-0.2105
-0.2155
-0.211
-0.215
-0.2155
-0.2175
-0.2335
-0.2405
-0.239
-0.238
-0.2425
-0.2395
-0.2325
-0.24
-0.246
-0.251
-0.251
-0.2365
-0.235
-0.2435
-0.2535
-0.265
-0.268
-0.2595
-0.2565
-0.256
-0.242
-0.2365
-0.2405
-0.246
-0.251
-0.254
-0.2485
-0.2405
-0.2535
-0.253
-0.231
-0.2285
-0.232
-0.2335
-0.235
-0.238
-0.2415
-0.24
-0.244
-0.25
-0.262
-0.2645
-0.2575
-0.2505
-0.25
-0.2555
-0.2525
-0.2565
-0.258
-0.258
-0.262
-0.2455
-0.2395
-0.2525
-0.256
-0.2565
-0.257
-0.2505
-0.244
-0.253
-0.26
-0.256
-0.251
-0.2485
-0.258
-0.262
-0.259
-0.2635
-0.2675
-0.267
-0.258
-0.2535
-0.255
-0.255
-0.2595
-0.2635
-0.2685
-0.2665
-0.256
-0.253
-0.25
-0.2485
-0.251
-0.2595
-0.259
-0.2585
-0.273
-0.2745
-0.2665
-0.2535
-0.2475
-0.256
-0.2615
-0.2565
-0.254
-0.255
-0.255
-0.2585
-0.255
-0.2435
-0.2385
-0.2455
-0.248
-0.257
-0.2645
-0.259
-0.2475
-0.2455
-0.2525
-0.251
-0.2575
-0.2545
-0.26
-0.2705
-0.2505
-0.2475
-0.257
-0.254
-0.251
-0.255
-0.258
-0.258
-0.258
-0.2555
-0.253
-0.2475
-0.24
-0.238
-0.243
-0.244
-0.2425
-0.243
-0.2465
-0.2535
-0.2525
-0.2505
-0.25
-0.2545
-0.257
-0.258
-0.26
-0.253
-0.2495
-0.2465
-0.248
-0.257
-0.259
-0.2665
-0.265
-0.255
-0.2505
-0.2495
-0.259
-0.2585
-0.258
-0.2585
-0.2565
-0.2615
-0.253
-0.2505
-0.2595
-0.2585
-0.2575
-0.262
-0.2625
-0.259
-0.254
-0.2595
-0.26
-0.257
-0.267
-0.258
-0.2495
-0.262
-0.264
-0.265
-0.27
-0.2705
-0.27
-0.2605
-0.254
-0.2535
-0.249
-0.2435
-0.255
-0.262
-0.257
-0.2535
-0.2565
-0.268
-0.268
-0.262
-0.251
-0.257
-0.272
-0.263
-0.255
-0.2605
-0.265
-0.267
-0.2605
-0.2645
-0.273
-0.2595
-0.249
-0.2515
-0.261
-0.2645
-0.2635
-0.2715
-0.2735
-0.265
-0.252
-0.249
-0.2525
-0.251
-0.258
-0.257
-0.247
-0.238
-0.235
-0.239
-0.2365
-0.2365
-0.233
-0.2325
-0.23
-0.224
-0.228
-0.2265
-0.2205
-0.218
-0.2165
-0.215
-0.219
-0.2265
-0.225
-0.218
-0.221
-0.214
-0.203
-0.203
-0.195
-0.1995
-0.2095
-0.2055
-0.2015
-0.21
-0.213
-0.2025
-0.189
-0.181
-0.1825
-0.1835
-0.1945
-0.205
-0.2105
-0.208
-0.21
-0.214
-0.208
-0.199
-0.2015
-0.2085
-0.2025
-0.201
-0.2
-0.1975
-0.193
-0.2035
-0.2095
-0.2085
-0.221
-0.222
-0.223
-0.222
-0.207
-0.19
-0.1785
-0.172
-0.1785
-0.185
-0.189
-0.1885
-0.187
-0.1875
-0.191
-0.1975
-0.195
-0.1975
-0.1985
-0.204
-0.2145
-0.2145
-0.216
-0.225
-0.23
-0.221
-0.2055
-0.204
-0.207
-0.2055
-0.215
-0.2215
-0.2205
-0.2195
-0.228
-0.232
-0.2295
-0.239
-0.2455
-0.2545
-0.254
-0.255
-0.264
-0.269
-0.273
-0.2715
-0.2705
-0.267
-0.27
-0.279
-0.2815
-0.278
-0.281
-0.278
-0.262
-0.2535
-0.2595
-0.2575
-0.2635
-0.278
-0.277
-0.277
-0.28
-0.2865
-0.291
-0.2825
-0.272
-0.2845
-0.2925
-0.2885
-0.287
-0.279
-0.2855
-0.287
-0.2755
-0.2765
-0.2855
-0.2925
-0.2925
-0.2845
-0.282
-0.2725
-0.271
-0.286
-0.2745
-0.2685
-0.2805
-0.285
-0.284
-0.2775
-0.28
-0.2805
-0.2815
-0.287
-0.2855
-0.2905
-0.286
-0.2695
-0.267
-0.275
-0.285
-0.292
-0.2955
-0.3025
-0.2955
-0.288
-0.2935
-0.293
-0.293
-0.3015
-0.305
-0.3065
-0.312
-0.323
-0.339
-0.3475
-0.357
-0.364
-0.3755
-0.383
-0.3785
-0.3815
-0.3695
-0.373
-0.381
-0.377
-0.3725
-0.3525
-0.3355
-0.3045
-0.2665
-0.225
-0.1695
-0.1245
-0.0785
-0.0195
0.0385
0.0825
0.126
0.1815
0.2325
0.2795
0.3305
0.3715
0.4065
0.435
0.4465
0.461
0.476
0.472
0.462
0.4465
0.4375
0.4385
0.4315
0.4255
0.397
0.3375
0.2825
0.2275
0.156
0.0875
0.0305
-0.0365
-0.1095
-0.17
-0.211
-0.2325
-0.247
-0.2615
-0.278
-0.284
-0.2745
-0.2725
-0.2795
-0.284
-0.2815
-0.281
-0.284
-0.283
-0.2855
-0.281
-0.2695
-0.264
-0.268
-0.2625
-0.256
-0.2635
-0.2605
-0.26
-0.271
-0.2825
-0.293
-0.28
-0.267
-0.27
-0.262
-0.271
-0.2705
-0.26
-0.259
-0.259
-0.268
-0.268
-0.265
-0.266
-0.276
-0.2765
-0.2655
-0.2625
-0.268
-0.2695
-0.2685
-0.2715
-0.264
-0.264
-0.2735
-0.2745
-0.2625
-0.2515
-0.2665
-0.2765
-0.2695
-0.271
-0.268
-0.2695
-0.2675
-0.2635
-0.268
-0.2725
-0.273
-0.2675
-0.268
-0.27
-0.273
-0.2705
-0.2645
-0.263
-0.2665
-0.2655
-0.2625
-0.2675
-0.268
-0.2645
-0.263
-0.259
-0.264
-0.2615
-0.2485
-0.255
-0.259
-0.256
-0.259
-0.2605
-0.2575
-0.2625
-0.2625
-0.2555
-0.26
-0.2535
-0.2465
-0.2465
-0.2355
-0.2375
-0.246
-0.245
-0.2445
-0.2455
-0.2465
-0.247
-0.2505
-0.246
-0.242
-0.237
-0.2355
-0.2335
-0.2345
-0.2515
-0.255
-0.244
-0.2325
-0.2365
-0.234
-0.2265
-0.2275
-0.2325
-0.2355
-0.226
-0.225
-0.226
-0.2285
-0.2265
-0.2165
-0.218
-0.227
-0.2255
-0.221
-0.223
-0.2195
-0.221
-0.224
-0.2195
-0.2155
-0.219
-0.2215
-0.2185
-0.2145
-0.211
-0.2115
-0.2045
-0.2035
-0.207
-0.2065
-0.206
-0.2
-0.1935
-0.195
-0.1955
-0.19
-0.185
-0.183
-0.1975
-0.1965
-0.1825
-0.1875
-0.1875
-0.173
-0.1565
-0.1585
-0.1735
-0.176
-0.177
-0.1725
-0.1655
-0.1635
-0.1595
-0.159
-0.1535
-0.1505
-0.1565
-0.153
-0.1515
-0.1495
-0.1335
-0.1345
-0.134
-0.125
-0.1285
-0.1235
-0.1225
-0.122
-0.1135
-0.102
-0.0905
-0.0835
-0.0785
-0.08
-0.088
-0.0855
-0.078
-0.0765
-0.0735
-0.0755
-0.0725
-0.0725
-0.071
-0.066
-0.058
-0.05
-0.0565
-0.053
-0.049
-0.041
-0.026
-0.0225
-0.02
-0.021
-0.0165
-0.012
-0.0165
-0.016
-0.0165
-0.0165
-0.005
0.0015
0.003
0.0035
0.006
0.0095
0.0055
0.0035
0.0025
0.0065
0.0155
0.0135
0.008
0.012
0.0245
0.021
0.0085
0.0125
0.0135
0.0065
0.0095
0.012
0.0065
-0.0005
-0.0005
0.0025
0.0035
0.002
-0.0015
-0.006
-0.0155
-0.0245
-0.023
-0.0145
-0.023
-0.033
-0.036
-0.0365
-0.0475
-0.056
-0.045
-0.0515
-0.066
-0.0765
-0.0855
-0.083
-0.084
-0.091
-0.0915
-0.093
-0.1005
-0.107
-0.107
-0.113
-0.136
-0.149
-0.1515
-0.16
-0.1555
-0.145
-0.1535
-0.1685
-0.173
-0.1735
-0.1815
-0.186
-0.185
-0.186
-0.19
-0.1925
-0.1855
-0.1985
-0.2105
-0.2045
-0.2105
-0.218
-0.224
-0.2245
-0.224
-0.217
-0.221
-0.2305
-0.226
-0.2325
-0.223
-0.223
-0.2435
-0.2495
-0.246
-0.242
-0.247
-0.251
-0.246
-0.2425
-0.2485
-0.2465
-0.2345
-0.2355
-0.2305
-0.2255
-0.2355
-0.2435
-0.245
-0.247
-0.2475
-0.2445
-0.2435
-0.2435
-0.245
-0.248
-0.2465
-0.2455
-0.2505
-0.2485
-0.2475
-0.2475
-0.2455
-0.248
-0.25
-0.253
-0.2525
-0.255
-0.252
-0.2435
-0.248
-0.25
-0.248
-0.2505
-0.246
-0.244
-0.246
-0.248
-0.2545
-0.256
-0.2545
-0.257
-0.255
-0.2545
-0.255
-0.261
-0.263
-0.262
-0.2645
-0.2645
-0.2665
-0.251
-0.243
-0.245
-0.248
-0.252
-0.255
-0.261
-0.2545
-0.2525
-0.2585
-0.264
-0.2645
-0.2625
-0.261
-0.2545
-0.2505
-0.25
-0.251
-0.252
-0.248
-0.2415
-0.246
-0.261
-0.263
-0.259
-0.256
-0.2565
-0.253
-0.246
-0.249
-0.249
-0.2485
-0.251
-0.2625
-0.267
-0.2625
-0.257
-0.2485
-0.2505
-0.25
-0.2535
-0.247
-0.2375
-0.2425
-0.248
-0.255
-0.256
-0.257
-0.256
-0.248
-0.243
-0.2525
-0.25
-0.237
-0.2425
-0.251
-0.254
-0.2575
-0.259
-0.25
-0.238
-0.2335
-0.2375
-0.2345
-0.23
-0.238
-0.244
-0.2455
-0.2445
-0.243
-0.237
-0.236
-0.2425
-0.2475
-0.2395
-0.2405
-0.2475
-0.239
-0.2455
-0.2485
-0.246
-0.2485
-0.2475
-0.2545
-0.253
-0.2515
-0.25
-0.249
-0.253
-0.2505
-0.2495
-0.2485
-0.2505
-0.2535
-0.255
-0.2525
-0.2465
-0.2425
-0.241
-0.247
-0.2485
-0.242
-0.241
-0.244
-0.252
-0.2575
-0.251
-0.2485
-0.255
-0.254
-0.249
-0.2515
-0.253
-0.256
-0.256
-0.251
-0.2535
-0.257
-0.259
-0.258
-0.258
-0.258
-0.2555
-0.2535
-0.247
-0.242
-0.242
-0.2545
-0.259
-0.248
-0.247
-0.2485
-0.2495
-0.258
-0.2605
-0.255
-0.259
-0.264
-0.2535
-0.245
-0.252
-0.254
-0.259
-0.2625
-0.26
-0.2605
-0.261
-0.2675
-0.2625
-0.2555
-0.254
-0.255
-0.2605
-0.2575
-0.256
-0.2585
-0.2605
-0.257
-0.254
-0.2555
-0.2525
-0.247
-0.2495
-0.2555
-0.2595
-0.2655
-0.2655
-0.261
-0.262
-0.2615
-0.256
-0.25
-0.244
-0.248
-0.2535
-0.2485
-0.2455
-0.242
-0.241
-0.239
-0.2355
-0.2335
-0.2335
-0.236
-0.235
-0.229
-0.218
-0.2135
-0.213
-0.2105
-0.2085
-0.21
-0.211
-0.21
-0.2105
-0.208
-0.199
-0.203
-0.211
-0.2005
-0.202
-0.2065
-0.2
-0.197
-0.1945
-0.194
-0.196
-0.1985
-0.1985
-0.197
-0.198
-0.1965
-0.195
-0.2005
-0.199
-0.189
-0.1915
-0.192
-0.186
-0.1855
-0.1805
-0.175
-0.1785
-0.1865
-0.1845
-0.184
-0.1855
-0.1865
-0.189
-0.186
-0.194
-0.2075
-0.2
-0.191
-0.194
-0.1935
-0.1925
-0.189
-0.184
-0.18
-0.18
-0.188
-0.186
-0.1775
-0.18
-0.194
-0.2055
-0.2015
-0.206
-0.216
-0.203
-0.201
-0.206
-0.2025
-0.21
-0.2105
-0.2085
-0.2095
-0.209
-0.21
-0.216
-0.2155
-0.214
-0.2175
-0.2195
-0.229
-0.236
-0.239
-0.246
-0.246
-0.244
-0.2425
-0.244
-0.252
-0.2565
-0.265
-0.276
-0.2755
-0.2755
-0.276
-0.2735
-0.2625
-0.2585
-0.27
-0.266
-0.263
-0.266
-0.269
-0.2805
-0.2745
-0.271
-0.278
-0.273
-0.2685
-0.2695
-0.2705
-0.2685
-0.268
-0.2675
-0.27
-0.2715
-0.268
-0.268
-0.263
-0.2645
-0.2715
-0.2745
-0.2755
-0.2775
-0.2755
-0.2695
-0.27
-0.267
-0.265
-0.2695
-0.2745
-0.2755
-0.2715
-0.264
-0.2655
-0.276
-0.278
-0.278
-0.2785
-0.276
-0.2735
-0.2705
-0.2695
-0.2725
-0.2765
-0.2795
-0.274
-0.2715
-0.28
-0.278
-0.276
-0.278
-0.272
-0.271
-0.279
-0.282
-0.2765
-0.283
-0.2985
-0.313
-0.327
-0.342
-0.358
-0.358
-0.3545
-0.361
-0.372
-0.3685
-0.356
-0.351
-0.3545
-0.357
-0.3505
-0.3455
-0.337
-0.3255
-0.291
-0.242
-0.211
-0.1745
-0.126
-0.0745
-0.0155
0.0345
0.083
0.1365
0.181
0.2375
0.297
0.351
0.3995
0.422
0.4505
0.479
0.496
0.511
0.5165
0.5175
0.514
0.502
0.4945
0.4925
0.4825
0.4605
0.4125
0.355
0.3085
0.2535
0.187
0.125
0.0605
-0.015
-0.089
-0.15
-0.1855
-0.208
-0.2245
-0.2375
-0.2505
-0.2515
-0.2505
-0.2515
-0.259
-0.2615
-0.2505
-0.25
-0.2515
-0.2525
-0.248
-0.2455
-0.2525
-0.25
-0.2535
-0.251
-0.245
-0.246
-0.251
-0.2525
-0.2455
-0.248
-0.2475
-0.2475
-0.248
-0.244
-0.246
-0.251
-0.2555
-0.2545
-0.256
-0.26
-0.264
-0.2595
-0.2605
-0.266
-0.2685
-0.271
-0.2635
-0.2585
-0.255
-0.2525
-0.2565
-0.2635
-0.268
-0.2635
-0.2615
-0.258
-0.25
-0.2535
-0.262
-0.2625
-0.261
-0.262
-0.266
-0.271
-0.2725
-0.2645
-0.2505
-0.2455
-0.2445
-0.2445
-0.251
-0.2575
-0.2535
-0.2515
-0.2585
-0.2515
-0.2475
-0.2585
-0.266
-0.265
-0.26
-0.258
-0.2555
-0.256
-0.2545
-0.2515
-0.2485
-0.247
-0.246
-0.24
-0.243
-0.251
-0.246
-0.242
-0.245
-0.245
-0.2395
-0.2345
-0.2385
-0.2445
-0.242
-0.239
-0.2345
-0.2325
-0.2325
-0.2335
-0.24
-0.2335
-0.232
-0.2375
-0.2365
-0.2395
-0.24
-0.236
-0.2325
-0.235
-0.2405
-0.239
-0.2285
-0.218
-0.2165
-0.223
-0.2305
-0.231
-0.23
-0.228
-0.221
-0.2175
-0.2155
-0.21
-0.212
-0.2145
-0.217
-0.2235
-0.2235
-0.2215
-0.217
-0.2135
-0.2125
-0.2095
-0.2015
-0.1995
-0.204
-0.202
-0.201
-0.201
-0.199
-0.1935
-0.1895
-0.188
-0.1885
-0.1885
-0.188
-0.1875
-0.183
-0.1805
-0.177
-0.174
-0.177
-0.1785
-0.178
-0.1805
-0.1785
-0.175
-0.1685
-0.1645
-0.1645
-0.1635
-0.162
-0.15
-0.1455
-0.1475
-0.146
-0.144
-0.139
-0.1415
-0.142
-0.138
-0.133
-0.128
-0.127
-0.1315
-0.1305
-0.1235
-0.121
-0.118
-0.115
-0.111
-0.1075
-0.1035
-0.096
-0.098
-0.091
-0.0775
-0.078
-0.075
-0.07
-0.0715
-0.075
-0.07
-0.0615
-0.057
-0.0515
-0.048
-0.0465
-0.042
-0.037
-0.03
-0.0275
-0.0225
-0.0175
-0.024
-0.015
-0.0115
-0.0175
-0.0165
-0.0135
-0.0035
0.0055
0.0125
0.01
0.008
0.008
0.006
0.005
0.0055
0.0095
0.0115
0.015
0.0125
0.0155
0.0265
0.031
0.0305
0.031
0.0265
0.024
0.026
0.024
0.0235
0.015
0.021
0.0305
0.0345
0.034
0.03
0.0295
0.02
0.0215
0.0295
0.0295
0.017
0.0055
0.0015
-0.002
-0.0015
-0.006
-0.0115
-0.0165
-0.0235
-0.0305
-0.038
-0.0395
-0.046
-0.054
-0.0535
-0.061
-0.0635
-0.062
-0.0765
-0.0785
-0.0745
-0.0885
-0.097
-0.095
-0.105
-0.114
-0.118
-0.1325
-0.1355
-0.1395
-0.1445
-0.148
-0.155
-0.16
-0.1675
-0.166
-0.168
-0.1755
-0.179
-0.1845
-0.1915
-0.1905
-0.1915
-0.196
-0.2005
-0.2035
-0.2045
-0.209
-0.2195
-0.224
-0.2105
-0.2055
-0.2125
-0.214
-0.2215
-0.2285
-0.2225
-0.218
-0.2235
-0.226
-0.2245
-0.224
-0.224
-0.2275
-0.234
-0.239
-0.233
-0.228
-0.2295
-0.227
-0.226
-0.2235
-0.2225
-0.2265
-0.234
-0.2385
-0.2405
-0.2445
-0.2425
-0.2415
-0.2325
-0.2295
-0.229
-0.2175
-0.227
-0.242
-0.245
-0.2385
-0.2325
-0.2335
-0.238
-0.2455
-0.2475
-0.2475
-0.2455
-0.244
-0.247
-0.2495
-0.247
-0.245
-0.245
-0.244
-0.2445
-0.2425
-0.2395
-0.2385
-0.2375
-0.2455
-0.2515
-0.251
-0.2505
-0.2445
-0.2375
-0.2385
-0.2385
-0.2335
-0.2355
-0.241
-0.2405
-0.2455
-0.252
-0.255
-0.247
-0.241
-0.2445
-0.248
-0.2525
-0.2535
-0.2545
-0.2495
-0.2455
-0.247
-0.244
-0.2455
-0.237
-0.2255
-0.227
-0.2295
-0.2365
-0.242
-0.243
-0.242
-0.239
-0.238
-0.239
-0.241
-0.2405
-0.2425
-0.2425
-0.2395
-0.24
-0.2425
-0.2465
-0.25
-0.255
-0.2545
-0.251
-0.245
-0.2345
-0.238
-0.2415
-0.2465
-0.244
-0.2375
-0.2435
-0.2445
-0.242
-0.238
-0.2405
-0.246
-0.2475
-0.236
-0.2335
-0.2405
-0.2325
-0.2305
-0.241
-0.2425
-0.2315
-0.232
-0.235
-0.2305
-0.2375
-0.24
-0.2325
-0.2295
-0.2315
-0.2295
-0.225
-0.2355
-0.24
-0.2375
-0.2305
-0.2285
-0.2385
-0.2355
-0.237
-0.2345
-0.2305
-0.2385
-0.2415
-0.248
-0.246
-0.2375
-0.2355
-0.24
-0.2505
-0.247
-0.2435
-0.2395
-0.2395
-0.241
-0.233
-0.233
-0.2325
-0.2405
-0.249
-0.245
-0.237
-0.236
-0.241
-0.242
-0.24
-0.243
-0.2515
-0.2525
-0.248
-0.2445
-0.2485
-0.249
-0.245
-0.244
-0.241
-0.244
-0.2465
-0.2465
-0.247
-0.243
-0.2395
-0.2415
-0.249
-0.2495
-0.245
-0.2445
-0.244
-0.244
-0.244
-0.245
-0.252
-0.2515
-0.2445
-0.2455
-0.251
-0.2495
-0.244
-0.2445
-0.2495
-0.253
-0.249
-0.245
-0.2465
-0.2475
-0.242
-0.24
-0.2485
-0.2455
-0.246
-0.253
-0.248
-0.2525
-0.2545
-0.248
-0.2495
-0.2525
-0.2525
-0.252
-0.249
-0.2445
-0.246
-0.2525
-0.251
-0.2545
-0.2555
-0.2485
-0.2505
-0.254
-0.2525
-0.2535
-0.2525
-0.2435
-0.246
-0.2555
-0.2605
-0.257
-0.249
-0.258
-0.254
-0.243
-0.245
-0.246
-0.2485
-0.2485
-0.2455
-0.245
-0.2445
-0.2415
-0.244
-0.2435
-0.245
-0.2565
-0.256
-0.246
-0.245
-0.2475
-0.244
-0.2415
-0.2395
-0.236
-0.233
-0.232
-0.2305
-0.22
-0.226
-0.242
-0.2355
-0.228
-0.2245
-0.2145
-0.2085
-0.2065
-0.198
-0.1995
-0.1995
-0.1885
-0.186
-0.186
-0.184
-0.187
-0.194
-0.1985
-0.196
-0.1905
-0.1895
-0.1875
-0.1815
-0.179
-0.178
-0.1795
-0.178
-0.1805
-0.189
-0.1825
-0.1795
-0.1805
-0.1735
-0.176
-0.1735
-0.161
-0.158
-0.1615
-0.159
-0.1595
-0.1655
-0.1695
-0.1755
-0.18
-0.178
-0.1775
-0.171
-0.1635
-0.156
-0.159
-0.1655
-0.171
-0.176
-0.171
-0.1725
-0.1715
-0.1725
-0.168
-0.1695
-0.186
-0.187
-0.1885
-0.1855
-0.1845
-0.183
-0.1805
-0.1895
-0.1895
-0.1885
-0.187
-0.185
-0.182
-0.1845
-0.193
-0.193
-0.1955
-0.1985
-0.1965
-0.195
-0.1975
-0.202
-0.2065
-0.2125
-0.216
-0.2175
-0.2195
-0.2265
-0.2285
-0.229
-0.2405
-0.245
-0.2455
-0.2465
-0.247
-0.2505
-0.259
-0.2615
-0.2615
-0.26
-0.2605
-0.2645
-0.259
-0.2615
-0.267
-0.2665
-0.2695
-0.269
-0.2615
-0.257
-0.258
-0.2595
-0.2635
-0.267
-0.2635
-0.261
-0.266
-0.2665
-0.265
-0.2665
-0.2665
-0.267
-0.266
-0.263
-0.2615
-0.2625
-0.2625
-0.2645
-0.264
-0.2645
-0.268
-0.269
-0.273
-0.2745
-0.271
-0.269
-0.264
-0.2575
-0.2595
-0.2605
-0.2535
-0.261
-0.28
-0.283
-0.279
-0.2735
-0.27
-0.275
-0.275
-0.275
-0.2805
-0.2845
-0.2865
-0.288
-0.283
-0.272
-0.2665
-0.273
-0.2725
-0.2705
-0.274
-0.2725
-0.269
-0.27
-0.2765
-0.2795
-0.293
-0.306
-0.3035
-0.3175
-0.339
-0.3525
-0.3635
-0.3695
-0.37
-0.3615
-0.3585
-0.365
-0.3715
-0.367
-0.359
-0.342
-0.3225
-0.3085
-0.276
-0.2415
-0.2075
-0.158
-0.1045
-0.0415
0.0335
0.0845
0.1295
0.1815
0.233
0.2945
0.3445
0.392
0.4345
0.464
0.4935
0.5255
0.551
0.5615
0.5735
0.58
0.571
0.5585
0.5495
0.535
0.5215
0.4935
0.4465
0.401
0.345
0.2735
0.203
0.1395
0.066
-0.013
-0.087
-0.1465
-0.177
-0.1925
-0.2075
-0.2225
-0.2335
-0.235
-0.233
-0.2405
-0.245
-0.239
-0.237
-0.235
-0.2395
-0.2425
-0.2385
-0.2355
-0.237
-0.2415
-0.237
-0.239
-0.2455
-0.245
-0.244
-0.2445
-0.246
-0.247
-0.247
-0.249
-0.254
-0.255
-0.256
-0.2505
-0.249
-0.252
-0.2505
-0.2515
-0.256
-0.257
-0.254
-0.2475
-0.244
-0.2505
-0.2595
-0.2615
-0.26
-0.2625
-0.2635
-0.2665
-0.2575
-0.249
-0.2595
-0.26
-0.2555
-0.258
-0.262
-0.2635
-0.2615
-0.242
-0.2335
-0.243
-0.2445
-0.247
-0.246
-0.2485
-0.2465
-0.2445
-0.252
-0.253
-0.2505
-0.2485
-0.2435
-0.238
-0.239
-0.243
-0.2475
-0.247
-0.2435
-0.2485
-0.2485
-0.246
-0.2485
-0.2455
-0.241
-0.2395
-0.24
-0.2445
-0.2455
-0.2475
-0.2495
-0.2405
-0.227
-0.226
-0.2305
-0.2305
-0.2305
-0.23
-0.232
-0.2325
-0.234
-0.2365
-0.2325
-0.23
-0.2285
-0.227
-0.2325
-0.232
-0.228
-0.228
-0.2235
-0.22
-0.2215
-0.224
-0.222
-0.2205
-0.2195
-0.2225
-0.2235
-0.221
-0.2205
-0.219
-0.22
-0.2195
-0.22
-0.219
-0.2165
-0.215
-0.211
-0.21
-0.212
-0.2105
-0.2105
-0.2105
-0.2055
-0.2015
-0.198
-0.1975
-0.197
-0.196
-0.19
-0.184
-0.191
-0.197
-0.1925
-0.187
-0.184
-0.182
-0.179
-0.1775
-0.1785
-0.1795
-0.1775
-0.1725
-0.168
-0.1675
-0.1655
-0.162
-0.1615
-0.16
-0.157
-0.1585
-0.154
-0.152
-0.158
-0.148
-0.1465
-0.148
-0.1435
-0.1435
-0.144
-0.1425
-0.131
-0.118
-0.1155
-0.115
-0.1115
-0.1095
-0.106
-0.104
-0.104
-0.0995
-0.097
-0.0975
-0.0925
-0.0925
-0.091
-0.083
-0.0775
-0.072
-0.067
-0.0625
-0.0615
-0.0545
-0.047
-0.044
-0.0425
-0.0405
-0.032
-0.031
-0.039
-0.031
-0.023
-0.022
-0.016
-0.013
-0.011
-0.01
-0.005
-0.002
-0.001
0.0025
-0.0005
0.001
0.005
0.0175
0.0295
0.0295
0.035
0.0375
0.0355
0.0325
0.038
0.0385
0.0315
0.039
0.045
0.0455
0.05
0.052
0.0495
0.0515
0.05
0.051
0.0515
0.056
0.07
0.0705
0.0715
0.0745
0.073
0.0675
0.06
0.058
0.0585
0.057
0.056
0.055
0.0445
0.042
0.039
0.034
0.036
0.032
0.026
0.0165
0.011
0.0075
0.002
-0.005
-0.017
-0.0215
-0.022
-0.0275
-0.041
-0.055
-0.0595
-0.065
-0.069
-0.07
-0.072
-0.0765
-0.0795
-0.0785
-0.092
-0.107
-0.111
-0.1155
-0.1165
-0.1165
-0.121
-0.13
-0.138
-0.1445
-0.146
-0.1515
-0.1615
-0.168
-0.1745
-0.175
-0.1675
-0.1655
-0.17
-0.1735
-0.18
-0.1835
-0.187
-0.194
-0.199
-0.209
-0.205
-0.195
-0.1955
-0.203
-0.2065
-0.2055
-0.214
-0.215
-0.221
-0.2305
-0.226
-0.2235
-0.2235
-0.224
-0.2215
-0.2215
-0.2225
-0.2235
-0.225
-0.2245
-0.2175
-0.21
-0.216
-0.2215
-0.2245
-0.227
-0.231
-0.2335
-0.2275
-0.227
-0.225
-0.2225
-0.226
-0.225
-0.2275
-0.23
-0.228
-0.231
-0.2325
-0.23
-0.225
-0.2205
-0.222
-0.2285
-0.235
-0.2365
-0.237
-0.237
-0.2405
-0.242
-0.2365
-0.2325
-0.2315
-0.233
-0.237
-0.24
-0.235
-0.2315
-0.2345
-0.2335
-0.2355
-0.2365
-0.2375
-0.241
-0.2415
-0.24
-0.233
-0.2305
-0.228
-0.2355
-0.241
-0.231
-0.2365
-0.2375
-0.238
-0.243
-0.2485
-0.2555
-0.252
-0.249
-0.245
-0.2435
-0.2485
-0.2405
-0.2305
-0.237
-0.2355
-0.228
-0.226
-0.2215
-0.22
-0.2295
-0.2325
-0.2325
-0.239
-0.2345
-0.236
-0.237
-0.234
-0.238
-0.2345
-0.238
-0.2425
-0.2395
-0.236
-0.2325
-0.234
-0.239
-0.2355
-0.231
-0.2365
-0.236
-0.2335
-0.2395
-0.2435
-0.2425
-0.239
-0.2365
-0.2315
-0.2365
-0.2465
-0.247
-0.247
-0.2435
-0.238
-0.233
-0.231
-0.222
-0.2195
-0.234
-0.2345
-0.228
-0.226
-0.2255
-0.2245
-0.2255
-0.2345
-0.2365
-0.2325
-0.235
-0.234
-0.227
-0.224
-0.221
-0.2255
-0.2275
-0.227
-0.234
-0.2305
-0.2295
-0.23
-0.234
-0.2335
-0.2335
-0.237
-0.2355
-0.237
-0.234
-0.235
-0.2365
-0.236
-0.237
-0.2435
-0.247
-0.2465
-0.2475
-0.2415
-0.241
-0.24
-0.236
-0.2375
-0.244
-0.2415
-0.232
-0.2275
-0.231
-0.237
-0.2365
-0.2365
-0.2335
-0.232
-0.2315
-0.238
-0.244
-0.2425
-0.239
-0.235
-0.237
-0.237
-0.2345
-0.24
-0.242
-0.2335
-0.227
-0.2275
-0.231
-0.237
-0.235
-0.2315
-0.241
-0.2495
-0.251
-0.251
-0.247
-0.243
-0.236
-0.2365
-0.2425
-0.241
-0.244
-0.242
-0.2365
-0.2365
-0.235
-0.2435
-0.253
-0.255
-0.2565
-0.2535
-0.253
-0.25
-0.2455
-0.2485
-0.249
-0.251
-0.25
-0.25
-0.2565
-0.2575
-0.255
-0.241
-0.234
-0.239
-0.24
-0.243
-0.24
-0.2405
-0.2455
-0.249
-0.2505
-0.243
-0.238
-0.238
-0.233
-0.2355
-0.2455
-0.25
-0.2565
-0.2585
-0.263
-0.2675
-0.2565
-0.2475
-0.2425
-0.2425
-0.2445
-0.244
-0.243
-0.2425
-0.2445
-0.251
-0.2555
-0.2515
-0.251
-0.2515
-0.248
-0.249
-0.252
-0.2535
-0.2505
-0.247
-0.2455
-0.247
-0.2475
-0.2465
-0.2475
-0.2405
-0.237
-0.2355
-0.2315
-0.2345
-0.236
-0.2395
-0.2435
-0.242
-0.241
-0.238
-0.2305
-0.225
-0.219
-0.213
-0.2105
-0.2055
-0.2045
-0.205
-0.2055
-0.2
-0.191
-0.1815
-0.175
-0.1785
-0.176
-0.1715
-0.1655
-0.1675
-0.1735
-0.1715
-0.1775
-0.1785
-0.1825
-0.183
-0.176
-0.174
-0.1655
-0.158
-0.1545
-0.158
-0.1565
-0.147
-0.143
-0.138
-0.138
-0.1375
-0.1365
-0.143
-0.1505
-0.1575
-0.163
-0.157
-0.151
-0.1475
-0.145
-0.143
-0.1405
-0.1425
-0.139
-0.138
-0.139
-0.1445
-0.1495
-0.149
-0.1515
-0.1535
-0.1545
-0.157
-0.1615
-0.1635
-0.1645
-0.168
-0.172
-0.169
-0.17
-0.1755
-0.1745
-0.17
-0.1635
-0.1635
-0.1665
-0.167
-0.171
-0.1755
-0.1785
-0.183
-0.1865
-0.1865
-0.1895
-0.1935
-0.1965
-0.2005
-0.203
-0.207
-0.2075
-0.212
-0.2135
-0.209
-0.213
-0.221
-0.2265
-0.23
-0.235
-0.243
-0.2455
-0.245
-0.2505
-0.256
-0.2555
-0.252
-0.2485
-0.25
-0.2525
-0.2545
-0.258
-0.254
-0.247
-0.247
-0.248
-0.251
-0.258
-0.2615
-0.2585
-0.2545
-0.257
-0.263
-0.2655
-0.2695
-0.2705
-0.262
-0.2545
-0.2465
-0.247
-0.253
-0.26
-0.2665
-0.2705
-0.273
-0.2745
-0.2715
-0.2625
-0.265
-0.269
-0.2665
-0.266
-0.2685
-0.2745
-0.2765
-0.273
-0.272
-0.273
-0.2715
-0.271
-0.266
-0.2675
-0.2795
-0.2785
-0.2725
-0.271
-0.2645
-0.2575
-0.2615
-0.2695
-0.27
-0.272
-0.2745
-0.275
-0.274
-0.2705
-0.2675
-0.2715
-0.273
-0.2705
-0.2715
-0.2715
-0.273
-0.276
-0.275
-0.2725
-0.2735
-0.278
-0.281
-0.2855
-0.2905
-0.301
-0.3145
-0.3295
-0.348
-0.36
-0.3645
-0.37
-0.381
-0.381
-0.377
-0.3775
-0.375
-0.3785
-0.38
-0.365
-0.345
-0.332
-0.3025
-0.2565
-0.2165
-0.173
-0.116
-0.0515
0.014
0.074
0.128
0.181
0.226
0.285
0.34
0.3935
0.4505
0.48
0.5205
0.562
0.578
0.588
0.5875
0.5845
0.5805
0.565
0.556
0.548
0.537
0.5195
0.4725
0.414
0.3575
0.293
0.218
0.1505
0.0795
-0.005
-0.08
-0.138
-0.1815
-0.208
-0.2215
-0.24
-0.253
-0.249
-0.247
-0.251
-0.2575
-0.255
-0.2505
-0.2565
-0.264
-0.261
-0.254
-0.2515
-0.249
-0.244
-0.244
-0.2505
-0.2495
-0.247
-0.2515
-0.251
-0.2485
-0.2505
-0.251
-0.2535
-0.249
-0.2425
-0.25
-0.252
-0.253
-0.2495
-0.248
-0.255
-0.2575
-0.26
-0.2525
-0.2475
-0.258
-0.256
-0.259
-0.271
-0.271
-0.2725
-0.265
-0.253
-0.2565
-0.26
-0.256
-0.256
-0.2555
-0.251
-0.249
-0.249
-0.2535
-0.257
-0.252
-0.247
-0.2465
-0.2535
-0.254
-0.2495
-0.25
-0.2495
-0.2535
-0.2535
-0.2465
-0.2505
-0.2555
-0.257
-0.261
-0.2565
-0.243
-0.24
-0.2445
-0.238
-0.2335
-0.237
-0.235
-0.2355
-0.237
-0.2405
-0.2415
-0.238
-0.242
-0.246
-0.2415
-0.2355
-0.235
-0.23
-0.2255
-0.232
-0.234
-0.236
-0.236
-0.237
-0.2405
-0.234
-0.2315
-0.2285
-0.2275
-0.2275
-0.2255
-0.2325
-0.233
-0.2325
-0.2375
-0.234
-0.23
-0.2255
-0.214
-0.2145
-0.2135
-0.2055
-0.209
-0.214
-0.209
-0.206
-0.218
-0.221
-0.2135
-0.216
-0.2215
-0.219
-0.212
-0.1995
-0.1935
-0.1965
-0.1965
-0.1935
-0.187
-0.1865
-0.1905
-0.1975
-0.2055
-0.202
-0.1985
-0.201
-0.1985
-0.198
-0.1995
-0.194
-0.1875
-0.1845
-0.1765
-0.1695
-0.1705
-0.173
-0.1745
-0.174
-0.171
-0.1715
-0.1705
-0.162
-0.1555
-0.149
-0.1525
-0.155
-0.147
-0.1455
-0.143
-0.1405
-0.1365
-0.1365
-0.136
-0.1335
-0.1325
-0.127
-0.126
-0.1245
-0.1265
-0.1315
-0.1335
-0.13
-0.121
-0.1145
-0.1115
-0.1055
-0.097
-0.0965
-0.095
-0.091
-0.0835
-0.068
-0.056
-0.059
-0.0565
-0.0455
-0.039
-0.0395
-0.0415
-0.038
-0.042
-0.041
-0.034
-0.029
-0.023
-0.0205
-0.019
-0.015
-0.009
-0.017
-0.013
-0.001
0.0015
0.0075
0.0085
0.0185
0.0255
0.023
0.0315
0.034
0.034
0.0415
0.044
0.05
0.055
0.05
0.0475
0.046
0.042
0.0475
0.055
0.061
0.062
0.057
0.0675
0.074
0.065
0.0545
0.058
0.065
0.0675
0.073
0.066
0.062
0.0645
0.0605
0.062
0.064
0.0585
0.058
0.0605
0.0575
0.054
0.053
0.05
0.0485
0.046
0.04
0.0395
0.0335
0.0225
0.0215
0.0105
-0.0045
-0.009
-0.011
-0.011
-0.0135
-0.022
-0.025
-0.0335
-0.0405
-0.0445
-0.053
-0.0515
-0.0625
-0.0705
-0.0745
-0.076
-0.08
-0.0925
-0.1
-0.109
-0.117
-0.118
-0.1165
-0.1285
-0.1375
-0.1415
-0.139
-0.142
-0.149
-0.1465
-0.1545
-0.164
-0.173
-0.172
-0.1725
-0.1805
-0.176
-0.178
-0.1825
-0.179
-0.183
-0.1995
-0.207
-0.207
-0.21
-0.211
-0.2155
-0.211
-0.2155
-0.2155
-0.2055
-0.2145
-0.2185
-0.2175
-0.2205
-0.21
-0.208
-0.218
-0.2195
-0.216
-0.225
-0.233
-0.227
-0.2235
-0.2215
-0.223
-0.225
-0.223
-0.22
-0.2185
-0.224
-0.2295
-0.234
-0.234
-0.2255
-0.223
-0.2305
-0.2325
-0.231
-0.229
-0.232
-0.2395
-0.2415
-0.241
-0.2365
-0.2305
-0.2275
-0.234
-0.2395
-0.2415
-0.2445
-0.244
-0.24
-0.231
-0.226
-0.219
-0.2185
-0.224
-0.221
-0.227
-0.2385
-0.238
-0.2365
-0.244
-0.2445
-0.2355
-0.2335
-0.232
-0.2225
-0.2245
-0.2415
-0.241
-0.2275
-0.224
-0.2215
-0.2235
-0.2285
-0.225
-0.2225
-0.2285
-0.2305
-0.2345
-0.2345
-0.2285
-0.232
-0.2345
-0.233
-0.234
-0.236
-0.237
-0.239
-0.237
-0.2405
-0.248
-0.246
-0.2475
-0.244
-0.245
-0.2425
-0.239
-0.2435
-0.231
-0.229
-0.2375
-0.241
-0.246
-0.245
-0.2415
-0.2395
-0.2245
-0.22
-0.225
-0.227
-0.2345
-0.234
-0.2355
-0.229
-0.226
-0.2235
-0.218
-0.222
-0.2335
-0.2375
-0.231
-0.2225
-0.2145
-0.2255
-0.23
-0.2295
-0.2275
-0.2195
-0.2215
-0.225
-0.231
-0.2315
-0.2265
-0.221
-0.223
-0.224
-0.225
-0.2365
-0.233
-0.224
-0.232
-0.2315
-0.2295
-0.234
-0.24
-0.2435
-0.238
-0.235
-0.23
-0.2285
-0.219
-0.2165
-0.2255
-0.229
-0.2275
-0.224
-0.2245
-0.2185
-0.221
-0.223
-0.233
-0.241
-0.2335
-0.229
-0.2275
-0.2325
-0.2375
-0.2345
-0.2365
-0.247
-0.243
-0.2365
-0.232
-0.2285
-0.2315
-0.2305
-0.228
-0.224
-0.2215
-0.226
-0.2335
-0.233
-0.228
-0.231
-0.235
-0.234
-0.239
-0.2415
-0.2395
-0.245
-0.2415
-0.2395
-0.24
-0.233
-0.237
-0.2415
-0.244
-0.247
-0.2425
-0.2435
-0.2335
-0.224
-0.2365
-0.242
-0.2445
-0.238
-0.236
-0.2425
-0.2455
-0.255
-0.257
-0.2495
-0.236
-0.229
-0.23
-0.233
-0.23
-0.233
-0.2445
-0.2445
-0.239
-0.235
-0.2365
-0.2365
-0.232
-0.233
-0.2385
-0.2375
-0.24
-0.254
-0.2505
-0.2425
-0.2425
-0.245
-0.2475
-0.246
-0.249
-0.244
-0.2415
-0.2445
-0.2485
-0.248
-0.239
-0.242
-0.2425
-0.235
-0.237
-0.2355
-0.2355
-0.238
-0.239
-0.244
-0.249
-0.245
-0.2455
-0.2555
-0.25
-0.2505
-0.256
-0.2555
-0.244
-0.2365
-0.242
-0.231
-0.232
-0.2345
-0.2335
-0.2355
-0.2315
-0.2415
-0.2485
-0.244
-0.235
-0.237
-0.2495
-0.2475
-0.2355
-0.2355
-0.2305
-0.218
-0.217
-0.216
-0.2135
-0.2125
-0.2105
-0.2085
-0.204
-0.1925
-0.1875
-0.1835
-0.1775
-0.1845
-0.183
-0.175
-0.1695
-0.158
-0.1635
-0.171
-0.1705
-0.163
-0.155
-0.1585
-0.1655
-0.1675
-0.1695
-0.174
-0.166
-0.162
-0.1665
-0.157
-0.141
-0.14
-0.148
-0.1455
-0.142
-0.147
-0.153
-0.1565
-0.1555
-0.16
-0.161
-0.1575
-0.1505
-0.1485
-0.1495
-0.1415
-0.149
-0.1565
-0.1525
-0.1495
-0.149
-0.1525
-0.151
-0.147
-0.1515
-0.16
-0.17
-0.174
-0.178
-0.187
-0.1905
-0.1805
-0.1615
-0.1635
-0.1665
-0.159
-0.162
-0.1645
-0.161
-0.1645
-0.1695
-0.1665
-0.1685
-0.1785
-0.18
-0.1805
-0.184
-0.1815
-0.1905
-0.1995
-0.2025
-0.202
-0.1985
-0.201
-0.208
-0.2105
-0.21
-0.216
-0.2195
-0.2175
-0.217
-0.2245
-0.2315
-0.2355
-0.2405
-0.2415
-0.251
-0.2525
-0.2465
-0.2505
-0.252
-0.2555
-0.2555
-0.2525
-0.2505
-0.243
-0.243
-0.245
-0.2445
-0.2505
-0.2495
-0.2455
-0.251
-0.255
-0.2635
-0.275
-0.276
-0.274
-0.27
-0.2605
-0.255
-0.2465
-0.245
-0.247
-0.256
-0.2625
-0.2575
-0.259
-0.262
-0.265
-0.2645
-0.2665
-0.264
-0.2645
-0.266
-0.2635
-0.2695
-0.2665
-0.262
-0.2675
-0.272
-0.269
-0.255
-0.2565
-0.2675
-0.261
-0.2525
-0.2585
-0.2595
-0.256
-0.26
-0.2695
-0.272
-0.264
-0.2575
-0.255
-0.2595
-0.2595
-0.2515
-0.2635
-0.2825
-0.273
-0.2685
-0.267
-0.26
-0.2675
-0.2735
-0.2745
-0.2725
-0.2715
-0.27
-0.2795
-0.293
-0.3015
-0.313
-0.3275
-0.3515
-0.3595
-0.3595
-0.365
-0.3735
-0.3895
-0.396
-0.3955
-0.385
-0.374
-0.356
-0.3365
-0.332
-0.301
-0.2525
-0.207
-0.1605
-0.111
-0.052
0.0005
0.0555
0.1165
0.1685
0.224
0.282
0.327
0.379
0.4285
0.458
0.4855
0.521
0.5475
0.5625
0.573
0.5735
0.5595
0.5385
0.527
0.5235
0.518
0.4895
0.4335
0.3755
0.3275
0.2645
0.199
0.1335
0.063
-0.017
-0.098
-0.1495
-0.1935
-0.216
-0.236
-0.2545
-0.253
-0.259
-0.257
-0.255
-0.2635
-0.2665
-0.265
-0.263
-0.266
-0.2645
-0.257
-0.253
-0.252
-0.2595
-0.261
-0.2545
-0.255
-0.252
-0.2555
-0.2655
-0.253
-0.256
-0.266
-0.2585
-0.2475
-0.2395
-0.242
-0.2445
-0.2475
-0.249
-0.2445
-0.2355
-0.2355
-0.236
-0.2295
-0.2495
-0.2685
-0.2715
-0.267
-0.259
-0.267
-0.2575
-0.248
-0.253
-0.2475
-0.249
-0.2545
-0.2465
-0.25
-0.2545
-0.2455
-0.235
-0.233
-0.2535
-0.2685
-0.262
-0.252
-0.25
-0.247
-0.233
-0.228
-0.235
-0.2365
-0.234
-0.2305
-0.231
-0.239
-0.246
-0.244
-0.2325
-0.2295
-0.228
-0.226
-0.2255
-0.2285
-0.2385
-0.2375
-0.2355
-0.235
-0.2395
-0.2385
-0.2335
-0.2335
-0.231
-0.2325
-0.234
-0.2355
-0.232
-0.235
-0.247
-0.246
-0.25
-0.2465
-0.23
-0.2325
-0.241
-0.239
-0.2255
-0.219
-0.228
-0.227
-0.218
-0.223
-0.2305
-0.228
-0.2265
-0.2235
-0.2155
-0.204
-0.2065
-0.211
-0.205
-0.208
-0.206
-0.21
-0.2095
-0.199
-0.203
-0.2085
-0.212
-0.2095
-0.203
-0.2015
-0.197
-0.1915
-0.1905
-0.1955
-0.2005
-0.194
-0.188
-0.193
-0.1915
-0.1905
-0.1925
-0.194
-0.2005
-0.2015
-0.1895
-0.1775
-0.173
-0.174
-0.1835
-0.1845
-0.188
-0.1915
-0.178
-0.178
-0.182
-0.1735
-0.159
-0.148
-0.142
-0.1445
-0.1575
-0.1585
-0.154
-0.1565
-0.1535
-0.1455
-0.1425
-0.143
-0.1365
-0.131
-0.137
-0.1415
-0.132
-0.1245
-0.123
-0.1155
-0.108
-0.1
-0.102
-0.108
-0.106
-0.108
-0.1065
-0.1045
-0.099
-0.092
-0.097
-0.09
-0.0845
-0.079
-0.071
-0.08
-0.0755
-0.075
-0.0685
-0.053
-0.055
-0.062
-0.0595
-0.0565
-0.056
-0.056
-0.0535
-0.042
-0.043
-0.03
-0.018
-0.014
-0.009
-0.01
-0.005
-0.0045
0.003
0.009
0.014
0.0195
0.0175
0.022
0.0215
0.021
0.022
0.0195
0.0245
0.03
0.0295
0.04
0.0505
0.057
0.063
0.055
0.0475
0.0425
0.0415
0.0395
0.035
0.0415
0.0525
0.0515
0.054
0.058
0.0525
0.0495
0.0515
0.0535
0.051
0.0455
0.0395
0.0435
0.046
0.037
0.0285
0.0315
0.0335
0.0225
0.015
0.0195
0.013
0.0065
-0.0035
-0.012
-0.0065
-0.016
-0.0175
-0.029
-0.049
-0.0495
-0.051
-0.0515
-0.057
-0.0695
-0.075
-0.08
-0.0965
-0.0915
-0.0835
-0.087
-0.09
-0.098
-0.1045
-0.1075
-0.108
-0.129
-0.1405
-0.1375
-0.149
-0.1575
-0.155
-0.153
-0.1575
-0.166
-0.175
-0.179
-0.181
-0.185
-0.186
-0.1825
-0.1835
-0.189
-0.197
-0.1975
-0.194
-0.198
-0.209
-0.2185
-0.2055
-0.196
-0.2005
-0.2005
-0.212
-0.2265
-0.229
-0.237
-0.237
-0.2215
-0.2185
-0.213
-0.212
-0.213
-0.208
-0.221
-0.222
-0.218
-0.2245
-0.223
-0.231
-0.234
-0.228
-0.228
-0.223
-0.219
-0.224
-0.224
-0.227
-0.2445
-0.238
-0.2285
-0.2395
-0.2275
-0.225
-0.2395
-0.234
-0.233
-0.242
-0.2415
-0.239
-0.2385
-0.2345
-0.227
-0.217
-0.221
-0.2285
-0.223
-0.23
-0.241
-0.2365
-0.2405
-0.2445
-0.2415
-0.243
-0.2365
-0.2305
-0.229
-0.2265
-0.239
-0.2395
-0.233
-0.232
-0.2305
-0.233
-0.2305
-0.2355
-0.233
-0.2305
-0.236
-0.238
-0.2405
-0.241
-0.241
-0.249
-0.2455
-0.235
-0.234
-0.231
-0.2405
-0.2435
-0.2405
-0.24
-0.2245
-0.2285
-0.2365
-0.2305
-0.2345
-0.24
-0.245
-0.2425
-0.2345
-0.229
-0.228
-0.2185
-0.21
-0.211
-0.2175
-0.2305
-0.234
-0.2365
-0.2315
-0.2255
-0.222
-0.222
-0.223
-0.2255
-0.2315
-0.2245
-0.2215
-0.2205
-0.2255
-0.231
-0.2305
-0.2315
-0.2265
-0.225
-0.219
-0.221
-0.229
-0.2345
-0.228
-0.2275
-0.2365
-0.226
-0.2305
-0.2325
-0.224
-0.2275
-0.222
-0.228
-0.2315
-0.227
-0.2385
-0.2395
-0.235
-0.227
-0.223
-0.224
-0.223
-0.238
-0.233
-0.2205
-0.223
-0.218
-0.2115
-0.217
-0.2325
-0.235
-0.2395
-0.2375
-0.232
-0.236
-0.241
-0.247
-0.2395
-0.2315
-0.2195
-0.217
-0.2375
-0.242
-0.232
-0.23
-0.232
-0.2355
-0.232
-0.2265
-0.2265
-0.235
-0.2365
-0.2255
-0.226
-0.233
-0.232
-0.242
-0.2395
-0.225
-0.241
-0.2475
-0.2455
-0.2405
-0.2315
-0.236
-0.236
-0.237
-0.2415
-0.2415
-0.2425
-0.244
-0.2435
-0.2485
-0.257
-0.2575
-0.2535
-0.241
-0.2375
-0.2325
-0.221
-0.226
-0.2285
-0.2415
-0.2465
-0.2385
-0.238
-0.2385
-0.2385
-0.233
-0.2365
-0.242
-0.239
-0.24
-0.2455
-0.2515
-0.2515
-0.25
-0.247
-0.239
-0.231
-0.2305
-0.239
-0.2435
-0.2515
-0.25
-0.251
-0.259
-0.2515
-0.2475
-0.246
-0.247
-0.2425
-0.2335
-0.2275
-0.2275
-0.237
-0.2405
-0.244
-0.245
-0.241
-0.244
-0.2425
-0.2345
-0.2355
-0.2435
-0.2415
-0.2395
-0.2365
-0.2235
-0.233
-0.2445
-0.2455
-0.251
-0.2415
-0.24
-0.2505
-0.25
-0.2465
-0.244
-0.2365
-0.228
-0.233
-0.234
-0.233
-0.241
-0.2405
-0.241
-0.244
-0.249
-0.255
-0.255
-0.251
-0.245
-0.251
-0.258
-0.247
-0.233
-0.2255
-0.232
-0.2435
-0.2305
-0.225
-0.2295
-0.227
-0.2265
-0.2125
-0.1995
-0.204
-0.206
-0.202
-0.1985
-0.194
-0.196
-0.1955
-0.195
-0.1895
-0.1785
-0.175
-0.175
-0.1665
-0.1615
-0.1635
-0.169
-0.1785
-0.177
-0.1755
-0.173
-0.1725
-0.1795
-0.1735
-0.1605
-0.1595
-0.1605
-0.155
-0.1485
-0.152
-0.154
-0.1525
-0.1565
-0.1505
-0.16
-0.1745
-0.179
-0.1785
-0.169
-0.1515
-0.1455
-0.1465
-0.15
-0.161
-0.1575
-0.16
-0.1605
-0.1595
-0.1645
-0.1645
-0.1715
-0.1805
-0.1775
-0.1775
-0.187
-0.186
-0.1765
-0.175
-0.1775
-0.18
-0.172
-0.164
-0.1745
-0.175
-0.175
-0.1675
-0.1655
-0.18
-0.1805
-0.1815
-0.1785
-0.181
-0.189
-0.195
-0.202
-0.206
-0.2065
-0.2075
-0.215
-0.205
-0.192
-0.197
-0.2075
-0.208
-0.2155
-0.2295
-0.227
-0.23
-0.229
-0.2315
-0.245
-0.2435
-0.2415
-0.2345
-0.2295
-0.2355
-0.2485
-0.254
-0.2585
-0.2665
-0.263
-0.264
-0.266
-0.2665
-0.2645
-0.263
-0.253
-0.246
-0.2525
-0.245
-0.249
-0.2585
-0.253
-0.2505
-0.2485
-0.2515
-0.257
-0.2625
-0.2625
-0.2605
-0.2645
-0.2635
-0.264
-0.2745
-0.2695
-0.256
-0.263
-0.2695
-0.2725
-0.2635
-0.245
-0.253
-0.276
-0.2815
-0.268
-0.268
-0.2665
-0.264
-0.276
-0.261
-0.2525
-0.262
-0.268
-0.2675
-0.256
-0.261
-0.265
-0.2735
-0.28
-0.278
-0.2775
-0.258
-0.2525
-0.2495
-0.244
-0.2515
-0.251
-0.2565
-0.258
-0.2545
-0.258
-0.2615
-0.262
-0.26
-0.2665
-0.2785
-0.2825
-0.2895
-0.3055
-0.3125
-0.3285
-0.345
-0.3505
-0.3575
-0.366
-0.367
-0.3605
-0.3535
-0.351
-0.358
-0.3515
-0.3495
-0.334
-0.308
-0.293
-0.2545
-0.2215
-0.187
-0.137
-0.0885
-0.041
0.005
0.0545
0.1015
0.143
0.197
0.25
0.303
0.367
0.398
0.4155
0.453
0.4765
0.4675
0.48
0.491
0.486
0.4825
0.464
0.46
0.451
0.4355
0.4105
0.357
0.308
0.254
0.176
0.1165
0.0615
-0.0165
-0.091
-0.1495
-0.1965
-0.2285
-0.237
-0.247
-0.263
-0.2715
-0.2765
-0.2745
-0.2705
-0.278
-0.274
-0.263
-0.2625
-0.257
-0.2585
-0.264
-0.2575
-0.2525
-0.2565
-0.2545
-0.2535
-0.26
-0.2595
-0.2535
-0.242
-0.229
-0.2365
-0.2555
-0.257
-0.241
-0.2305
-0.2395
-0.2555
-0.2585
-0.2505
-0.2525
-0.2515
-0.2455
-0.256
-0.2555
-0.251
-0.263
-0.258
-0.2475
-0.2555
-0.258
-0.2625
-0.267
-0.2555
-0.25
-0.2565
-0.265
-0.2585
-0.25
-0.2485
-0.243
-0.2465
-0.2565
-0.2585
-0.241
-0.237
-0.2425
-0.2465
-0.253
-0.2435
-0.2345
-0.232
-0.2315
-0.227
-0.2275
-0.2295
-0.225
-0.2345
-0.2415
-0.244
-0.2435
-0.2365
-0.2355
-0.2325
-0.232
-0.2395
-0.243
-0.2385
-0.2385
-0.2395
-0.234
-0.236
-0.236
-0.233
-0.226
-0.221
-0.2255
-0.2295
-0.2315
-0.2285
-0.2325
-0.2345
-0.2315
-0.228
-0.225
-0.2235
-0.227
-0.2305
-0.2285
-0.2305
-0.2265
-0.228
-0.226
-0.2075
-0.196
-0.202
-0.213
-0.213
-0.211
-0.217
-0.2155
-0.208
-0.1985
-0.203
-0.21
-0.199
-0.2015
-0.2155
-0.223
-0.218
-0.2055
-0.1995
-0.192
-0.1945
-0.2095
-0.207
-0.196
-0.2005
-0.208
-0.197
-0.195
-0.195
-0.1955
-0.2055
-0.196
-0.1865
-0.1865
-0.1825
-0.179
-0.1785
-0.176
-0.175
-0.1755
-0.1825
-0.191
-0.1825
-0.178
-0.1765
-0.1705
-0.1705
-0.1615
-0.158
-0.1565
-0.1565
-0.1615
-0.155
-0.1485
-0.14
-0.14
-0.1475
-0.142
-0.141
-0.1415
-0.132
-0.1305
-0.1325
-0.128
-0.132
-0.1295
-0.121
-0.127
-0.1285
-0.122
-0.1225
-0.119
-0.1105
-0.0975
-0.097
-0.1005
-0.093
-0.0945
-0.0935
-0.0915
-0.0855
-0.0795
-0.0795
-0.073
-0.072
-0.068
-0.054
-0.052
-0.0545
-0.054
-0.0575
-0.057
-0.0445
-0.0265
-0.018
-0.014
-0.022
-0.032
-0.026
-0.0215
-0.0145
-0.0055
0.0005
0.0045
0.0
0.002
0.007
0.0105
0.017
0.021
0.0295
0.0255
0.021
0.0285
0.03
0.03
0.026
0.025
0.014
0.0085
0.0205
0.0245
0.028
0.032
0.032
0.0385
0.0405
0.0385
0.046
0.0465
0.043
0.042
0.0365
0.0345
0.0355
0.0325
0.027
0.028
0.0215
0.006
0.01
0.0135
0.0185
0.022
0.018
0.02
0.014
0.007
-0.0025
-0.0105
-0.0165
-0.0215
-0.0235
-0.031
-0.039
-0.0395
-0.0475
-0.055
-0.055
-0.062
-0.0625
-0.0725
-0.0865
-0.093
-0.0975
-0.0985
-0.102
-0.105
-0.107
-0.1135
-0.12
-0.1295
-0.132
-0.129
-0.143
-0.151
-0.149
-0.151
-0.1555
-0.157
-0.163
-0.17
-0.1695
-0.18
-0.1835
-0.185
-0.193
-0.2
-0.197
-0.192
-0.1995
-0.195
-0.192
-0.1945
-0.194
-0.2005
-0.203
-0.2025
-0.204
-0.206
-0.2055
-0.206
-0.2055
-0.2035
-0.2055
-0.205
-0.2065
-0.219
-0.2225
-0.2175
-0.216
-0.214
-0.219
-0.2205
-0.223
-0.2295
-0.2255
-0.2245
-0.224
-0.227
-0.231
-0.2225
-0.223
-0.221
-0.2175
-0.221
-0.2205
-0.225
-0.229
-0.223
-0.212
-0.2125
-0.2235
-0.232
-0.2375
-0.2345
-0.232
-0.238
-0.2365
-0.233
-0.232
-0.226
-0.2275
-0.232
-0.2315
-0.2325
-0.2325
-0.231
-0.233
-0.2365
-0.2385
-0.2385
-0.2375
-0.2295
-0.2275
-0.2305
-0.232
-0.228
-0.215
-0.226
-0.2335
-0.2235
-0.218
-0.2225
-0.2305
-0.231
-0.2285
-0.2225
-0.2245
-0.2255
-0.2195
-0.224
-0.23
-0.2295
-0.236
-0.2415
-0.2375
-0.239
-0.2365
-0.232
-0.2335
-0.231
-0.2245
-0.219
-0.224
-0.226
-0.2235
-0.2205
-0.214
-0.2165
-0.2165
-0.218
-0.2285
-0.234
-0.237
-0.2315
-0.2325
-0.225
-0.21
-0.219
-0.217
-0.216
-0.2245
-0.2225
-0.2245
-0.225
-0.2275
-0.2325
-0.2285
-0.2265
-0.227
-0.2255
-0.219
-0.22
-0.231
-0.23
-0.229
-0.229
-0.221
-0.218
-0.222
-0.2155
-0.21
-0.216
-0.22
-0.2195
-0.2115
-0.2105
-0.2145
-0.217
-0.2245
-0.2225
-0.2205
-0.22
-0.2165
-0.221
-0.2205
-0.223
-0.222
-0.2155
-0.2175
-0.2255
-0.235
-0.2225
-0.209
-0.217
-0.2305
-0.2355
-0.2325
-0.232
-0.2365
-0.236
-0.232
-0.2225
-0.2225
-0.2295
-0.2295
-0.235
-0.2275
-0.2215
-0.223
-0.216
-0.2175
-0.223
-0.228
-0.231
-0.224
-0.2315
-0.2335
-0.2305
-0.2375
-0.2325
-0.227
-0.222
-0.226
-0.2305
-0.2335
-0.2445
-0.2475
-0.2405
-0.2365
-0.2385
-0.227
-0.219
-0.225
-0.2305
-0.232
-0.2275
-0.2295
-0.2255
-0.219
-0.2205
-0.2245
-0.223
-0.2305
-0.245
-0.2385
-0.235
-0.236
-0.238
-0.244
-0.2465
-0.242
-0.2365
-0.2435
-0.24
-0.2335
-0.2365
-0.2285
-0.2235
-0.224
-0.2285
-0.233
-0.2315
-0.2355
-0.2375
-0.233
-0.236
-0.243
-0.2385
-0.2325
-0.24
-0.2395
-0.2355
-0.24
-0.235
-0.2345
-0.2285
-0.229
-0.2385
-0.2385
-0.237
-0.2295
-0.226
-0.2235
-0.224
-0.2355
-0.237
-0.2375
-0.239
-0.237
-0.2385
-0.231
-0.238
-0.247
-0.251
-0.2485
-0.2415
-0.2465
-0.238
-0.2335
-0.2435
-0.241
-0.23
-0.226
-0.2275
-0.2375
-0.2445
-0.2285
-0.234
-0.2565
-0.251
-0.243
-0.2365
-0.23
-0.2355
-0.2435
-0.2465
-0.239
-0.237
-0.2335
-0.227
-0.2185
-0.211
-0.2145
-0.214
-0.219
-0.221
-0.2185
-0.213
-0.2015
-0.195
-0.188
-0.177
-0.179
-0.187
-0.179
-0.177
-0.175
-0.1755
-0.172
-0.1645
-0.1635
-0.174
-0.183
-0.1755
-0.1775
-0.1705
-0.1595
-0.1535
-0.145
-0.1405
-0.132
-0.1305
-0.1305
-0.125
-0.1245
-0.1325
-0.1405
-0.143
-0.1515
-0.1575
-0.1635
-0.169
-0.165
-0.1625
-0.16
-0.1555
-0.148
-0.1475
-0.151
-0.151
-0.1575
-0.1575
-0.155
-0.157
-0.1535
-0.15
-0.1525
-0.1565
-0.1675
-0.1755
-0.1765
-0.1805
-0.187
-0.1805
-0.169
-0.174
-0.172
-0.167
-0.172
-0.1695
-0.169
-0.1715
-0.17
-0.1705
-0.172
-0.1765
-0.186
-0.1895
-0.191
-0.1975
-0.1995
-0.192
-0.186
-0.1925
-0.204
-0.2085
-0.2065
-0.2
-0.2035
-0.2155
-0.212
-0.208
-0.2085
-0.2155
-0.233
-0.242
-0.2465
-0.2535
-0.2525
-0.2415
-0.238
-0.254
-0.2545
-0.247
-0.2585
-0.262
-0.2645
-0.254
-0.233
-0.234
-0.2435
-0.242
-0.2485
-0.257
-0.256
-0.259
-0.2535
-0.2475
-0.2545
-0.2505
-0.2495
-0.2535
-0.252
-0.2585
-0.249
-0.2375
-0.237
-0.236
-0.2475
-0.255
-0.252
-0.25
-0.2515
-0.25
-0.247
-0.2535
-0.2555
-0.254
-0.256
-0.2645
-0.2635
-0.259
-0.262
-0.26
-0.259
-0.2535
-0.2545
-0.261
-0.2615
-0.2635
-0.266
-0.264
-0.2565
-0.2545
-0.258
-0.26
-0.261
-0.2625
-0.2675
-0.2625
-0.2615
-0.2655
-0.2645
-0.262
-0.255
-0.2575
-0.2605
-0.2625
-0.2655
-0.2665
-0.271
-0.277
-0.289
-0.297
-0.3035
-0.318
-0.331
-0.3365
-0.3395
-0.3435
-0.35
-0.354
-0.351
-0.3475
-0.3475
-0.347
-0.3335
-0.3185
-0.3085
-0.298
-0.274
-0.2275
-0.1925
-0.158
-0.1095
-0.064
-0.004
0.0465
0.0855
0.134
0.1825
0.2405
0.297
0.3515
0.3925
0.4235
0.457
0.4785
0.4885
0.499
0.511
0.513
0.5085
0.4955
0.489
0.4825
0.4765
0.4655
0.4215
0.361
0.3115
0.267
0.1955
0.12
0.057
-0.013
-0.083
-0.1425
-0.1835
-0.21
-0.2245
-0.238
-0.242
-0.236
-0.226
-0.224
-0.251
-0.2555
-0.2455
-0.2495
-0.2595
-0.27
-0.2565
-0.246
-0.244
-0.2395
-0.24
-0.2355
-0.2375
-0.2455
-0.2455
-0.247
-0.248
-0.248
-0.2495
-0.2385
-0.24
-0.2535
-0.251
-0.248
-0.248
-0.2435
-0.243
-0.2415
-0.241
-0.2405
-0.2405
-0.244
-0.247
-0.245
-0.244
-0.2455
-0.242
-0.243
-0.243
-0.251
-0.2555
-0.2455
-0.2495
-0.2495
-0.2455
-0.244
-0.2435
-0.247
-0.2455
-0.245
-0.2485
-0.2475
-0.2395
-0.241
-0.2405
-0.24
-0.245
-0.237
-0.2385
-0.242
-0.2425
-0.241
-0.238
-0.2465
-0.2475
-0.248
-0.2495
-0.2435
-0.2455
-0.242
-0.234
-0.244
-0.2405
-0.237
-0.244
-0.2345
-0.2225
-0.2235
-0.2305
-0.2315
-0.233
-0.2345
-0.234
-0.232
-0.23
-0.229
-0.2285
-0.2215
-0.2195
-0.224
-0.2225
-0.223
-0.2225
-0.2245
-0.224
-0.2225
-0.22
-0.217
-0.2175
-0.214
-0.211
-0.2115
-0.2145
-0.2215
-0.214
-0.204
-0.208
-0.209
-0.2015
-0.2025
-0.2085
-0.2085
-0.2105
-0.2105
-0.209
-0.2055
-0.2015
-0.2015
-0.203
-0.2035
-0.2015
-0.204
-0.2115
-0.205
-0.2015
-0.209
-0.2055
-0.201
-0.198
-0.199
-0.19
-0.182
-0.19
-0.1845
-0.1885
-0.186
-0.1795
-0.1785
-0.1695
-0.1785
-0.1765
-0.178
-0.18
-0.1685
-0.175
-0.175
-0.167
-0.1645
-0.1585
-0.1545
-0.1545
-0.156
-0.162
-0.1555
-0.1455
-0.1475
-0.142
-0.1395
-0.142
-0.144
-0.1515
-0.1435
-0.1285
-0.12
-0.122
-0.128
-0.1235
-0.1255
-0.1265
-0.1155
-0.113
-0.117
-0.115
-0.1105
-0.1035
-0.099
-0.0955
-0.089
-0.086
-0.086
-0.081
-0.08
-0.0775
-0.0625
-0.055
-0.0585
-0.06
-0.06
-0.051
-0.0425
-0.0405
-0.0405
-0.039
-0.0355
-0.031
-0.025
-0.023
-0.021
-0.0225
-0.0205
-0.0145
-0.015
-0.0085
0.0015
0.0035
0.0075
0.0105
0.007
0.0045
0.0055
0.011
0.015
0.0195
0.0235
0.0205
0.025
0.0355
0.038
0.038
0.035
0.033
0.0295
0.028
0.034
0.035
0.036
0.035
0.032
0.032
0.029
0.0345
0.043
0.0445
0.0415
0.041
0.0405
0.0415
0.0405
0.036
0.036
0.034
0.0335
0.0295
0.022
0.0165
0.011
0.006
0.002
-0.002
-0.008
-0.0115
-0.013
-0.018
-0.023
-0.036
-0.0425
-0.036
-0.0415
-0.049
-0.0485
-0.0555
-0.0655
-0.0685
-0.0715
-0.0775
-0.0835
-0.0945
-0.103
-0.115
-0.1255
-0.1285
-0.137
-0.1445
-0.1415
-0.1375
-0.1485
-0.1545
-0.1515
-0.1575
-0.1555
-0.1585
-0.1575
-0.1585
-0.175
-0.178
-0.184
-0.186
-0.18
-0.167
-0.1715
-0.187
-0.188
-0.1975
-0.2015
-0.204
-0.2065
-0.206
-0.2105
-0.216
-0.222
-0.217
-0.2115
-0.2195
-0.2205
-0.2105
-0.208
-0.206
-0.2035
-0.209
-0.2085
-0.213
-0.2185
-0.2145
-0.215
-0.22
-0.2175
-0.2175
-0.223
-0.2215
-0.221
-0.2225
-0.2285
-0.232
-0.228
-0.2265
-0.229
-0.2275
-0.222
-0.2235
-0.2315
-0.2325
-0.225
-0.223
-0.2215
-0.227
-0.231
-0.233
-0.239
-0.236
-0.2315
-0.225
-0.213
-0.2135
-0.219
-0.2195
-0.225
-0.23
-0.2315
-0.23
-0.23
-0.23
-0.2265
-0.226
-0.2295
-0.2275
-0.222
-0.2235
-0.2245
-0.224
-0.226
-0.226
-0.225
-0.228
-0.23
-0.227
-0.226
-0.228
-0.2355
-0.239
-0.239
-0.2365
-0.2205
-0.217
-0.2215
-0.222
-0.221
-0.2185
-0.223
-0.2255
-0.2245
-0.2235
-0.2285
-0.2375
-0.236
-0.2345
-0.2215
-0.2105
-0.2155
-0.219
-0.222
-0.226
-0.229
-0.227
-0.227
-0.2305
-0.2325
-0.2295
-0.2245
-0.22
-0.2215
-0.2265
-0.2285
-0.232
-0.2325
-0.234
-0.229
-0.216
-0.219
-0.221
-0.22
-0.2265
-0.225
-0.221
-0.2195
-0.2245
-0.231
-0.23
-0.2275
-0.225
-0.2265
-0.226
-0.227
-0.227
-0.2155
-0.203
-0.205
-0.215
-0.217
-0.2195
-0.2265
-0.224
-0.219
-0.2155
-0.2145
-0.225
-0.235
-0.236
-0.234
-0.2375
-0.23
-0.2155
-0.22
-0.2265
-0.225
-0.228
-0.231
-0.232
-0.2305
-0.233
-0.2305
-0.2255
-0.2295
-0.237
-0.2335
-0.2205
-0.221
-0.227
-0.2275
-0.2245
-0.229
-0.233
-0.232
-0.232
-0.2265
-0.227
-0.2265
-0.2205
-0.2215
-0.225
-0.223
-0.221
-0.223
-0.227
-0.231
-0.2355
-0.2335
-0.2315
-0.2325
-0.2295
-0.234
-0.2365
-0.23
-0.229
-0.2285
-0.228
-0.2315
-0.2375
-0.2385
-0.239
-0.243
-0.241
-0.235
-0.228
-0.228
-0.232
-0.229
-0.2235
-0.229
-0.238
-0.2405
-0.2365
-0.234
-0.235
-0.2345
-0.2385
-0.236
-0.236
-0.2405
-0.2405
-0.24
-0.226
-0.2265
-0.2315
-0.2325
-0.2375
-0.2325
-0.2335
-0.237
-0.236
-0.2415
-0.2465
-0.247
-0.246
-0.2405
-0.2355
-0.2375
-0.244
-0.24
-0.2305
-0.226
-0.227
-0.2335
-0.2325
-0.229
-0.226
-0.226
-0.2295
-0.2315
-0.2335
-0.239
-0.2415
-0.235
-0.234
-0.2355
-0.236
-0.2395
-0.2375
-0.2355
-0.2355
-0.237
-0.2385
-0.245
-0.2335
-0.2255
-0.229
-0.2255
-0.229
-0.2165
-0.208
-0.2065
-0.197
-0.192
-0.19
-0.192
-0.186
-0.181
-0.181
-0.1735
-0.171
-0.1795
-0.1745
-0.1715
-0.176
-0.1735
-0.173
-0.1705
-0.1695
-0.167
-0.163
-0.1615
-0.1635
-0.1675
-0.1685
-0.163
-0.1515
-0.142
-0.1375
-0.1365
-0.1315
-0.133
-0.137
-0.132
-0.137
-0.142
-0.143
-0.1435
-0.1485
-0.151
-0.146
-0.144
-0.1415
-0.141
-0.1405
-0.1415
-0.137
-0.132
-0.1315
-0.131
-0.1395
-0.147
-0.1475
-0.146
-0.15
-0.156
-0.154
-0.16
-0.1695
-0.171
-0.1745
-0.1795
-0.18
-0.1785
-0.1715
-0.1615
-0.157
-0.1605
-0.161
-0.159
-0.1615
-0.1725
-0.18
-0.183
-0.1835
-0.178
-0.187
-0.1985
-0.1975
-0.202
-0.2005
-0.196
-0.1965
-0.205
-0.2095
-0.2095
-0.2165
-0.222
-0.2245
-0.218
-0.213
-0.216
-0.224
-0.2315
-0.238
-0.245
-0.2475
-0.246
-0.239
-0.2465
-0.252
-0.246
-0.248
-0.252
-0.25
-0.244
-0.236
-0.2355
-0.2445
-0.2475
-0.2535
-0.2575
-0.257
-0.259
-0.2625
-0.269
-0.2635
-0.253
-0.2575
-0.264
-0.265
-0.265
-0.26
-0.259
-0.259
-0.256
-0.253
-0.252
-0.253
-0.2515
-0.254
-0.251
-0.2485
-0.2535
-0.2505
-0.2515
-0.2565
-0.2595
-0.2645
-0.257
-0.251
-0.256
-0.2475
-0.245
-0.255
-0.2605
-0.258
-0.2515
-0.253
-0.2585
-0.261
-0.259
-0.26
-0.263
-0.2635
-0.265
-0.266
-0.269
-0.2655
-0.2585
-0.2565
-0.253
-0.2585
-0.265
-0.2665
-0.273
-0.2715
-0.2735
-0.2785
-0.281
-0.289
-0.2995
-0.308
-0.3215
-0.336
-0.3415
-0.3485
-0.353
-0.346
-0.344
-0.3455
-0.345
-0.352
-0.349
-0.335
-0.317
-0.3055
-0.2935
-0.2545
-0.2115
-0.1825
-0.136
-0.0685
-0.008
0.0505
0.1055
0.1555
0.203
0.25
0.307
0.359
0.409
0.4415
0.469
0.51
0.537
0.548
0.5595
0.564
0.559
0.5545
0.545
0.5375
0.525
0.5135
0.486
0.4295
0.38
0.3255
0.246
0.1765
0.1215
0.0465
-0.031
-0.0975
-0.153
-0.184
-0.21
-0.2345
-0.24
-0.2365
-0.234
-0.236
-0.246
-0.251
-0.2345
-0.2255
-0.239
-0.2415
-0.2385
-0.2375
-0.2335
-0.236
-0.2345
-0.2325
-0.233
-0.232
-0.242
-0.2435
-0.2395
-0.239
-0.2395
-0.2445
-0.2475
-0.2475
-0.2415
-0.244
-0.2435
-0.2375
-0.247
-0.254
-0.2485
-0.2405
-0.235
-0.2385
-0.252
-0.2585
-0.255
-0.2525
-0.253
-0.2465
-0.24
-0.242
-0.242
-0.237
-0.2355
-0.2375
-0.24
-0.243
-0.241
-0.239
-0.2415
-0.242
-0.246
-0.244
-0.242
-0.24
-0.24
-0.2505
-0.254
-0.25
-0.24
-0.233
-0.238
-0.2445
-0.2365
-0.235
-0.236
-0.228
-0.2275
-0.2295
-0.2355
-0.235
-0.239
-0.2445
-0.2415
-0.244
-0.2375
-0.2295
-0.229
-0.229
-0.2325
-0.2345
-0.2335
-0.232
-0.2325
-0.232
-0.225
-0.223
-0.227
-0.2235
-0.2205
-0.2195
-0.22
-0.223
-0.2215
-0.225
-0.2215
-0.213
-0.217
-0.215
-0.218
-0.216
-0.2135
-0.221
-0.2205
-0.2225
-0.2235
-0.2215
-0.2085
-0.1975
-0.2025
-0.2015
-0.2015
-0.2025
-0.204
-0.211
-0.2035
-0.1955
-0.1985
-0.1985
-0.1995
-0.199
-0.197
-0.195
-0.2
-0.2025
-0.1975
-0.1955
-0.1935
-0.195
-0.192
-0.1875
-0.187
-0.183
-0.189
-0.1905
-0.185
-0.1785
-0.1715
-0.177
-0.1805
-0.1785
-0.171
-0.1655
-0.165
-0.1615
-0.1575
-0.1595
-0.159
-0.155
-0.1585
-0.164
-0.156
-0.1455
-0.15
-0.1525
-0.1505
-0.1485
-0.1445
-0.14
-0.137
-0.136
-0.133
-0.1285
-0.1255
-0.1255
-0.1245
-0.125
-0.1215
-0.1185
-0.12
-0.1145
-0.11
-0.103
-0.083
-0.081
-0.087
-0.088
-0.0885
-0.082
-0.08
-0.076
-0.0685
-0.063
-0.057
-0.052
-0.053
-0.054
-0.052
-0.044
-0.0365
-0.0335
-0.029
-0.029
-0.023
-0.014
-0.0095
-0.0085
-0.004
-0.001
-0.0045
-0.0035
-0.001
-0.002
0.0
0.005
0.016
0.0225
0.0185
0.0265
0.036
0.036
0.039
0.039
0.0445
0.0525
0.0545
0.0575
0.049
0.044
0.051
0.057
0.057
0.057
0.0555
0.058
0.062
0.0605
0.0625
0.065
0.0605
0.059
0.0585
0.0525
0.056
0.055
0.0575
0.063
0.06
0.064
0.063
0.059
0.058
0.052
0.049
0.052
0.042
0.0245
0.021
0.023
0.025
0.02
0.003
-0.006
-0.0045
-0.008
-0.008
-0.0055
-0.0145
-0.025
-0.0335
-0.0405
-0.0485
-0.062
-0.061
-0.0635
-0.0835
-0.0905
-0.091
-0.097
-0.1045
-0.11
-0.113
-0.1215
-0.127
-0.125
-0.124
-0.1285
-0.1355
-0.1445
-0.147
-0.148
-0.155
-0.159
-0.1575
-0.1625
-0.1725
-0.1745
-0.17
-0.177
-0.1845
-0.1835
-0.19
-0.195
-0.192
-0.19
-0.1955
-0.197
-0.191
-0.193
-0.1955
-0.1985
-0.201
-0.205
-0.212
-0.214
-0.2095
-0.2075
-0.215
-0.2175
-0.2135
-0.2115
-0.215
-0.2165
-0.2165
-0.2215
-0.2245
-0.229
-0.228
-0.226
-0.2325
-0.2235
-0.2145
-0.21
-0.2065
-0.212
-0.213
-0.223
-0.2335
-0.2365
-0.2235
-0.2145
-0.216
-0.209
-0.2065
-0.2085
-0.217
-0.2275
-0.2275
-0.227
-0.2285
-0.2245
-0.22
-0.226
-0.2355
-0.233
-0.2265
-0.224
-0.224
-0.224
-0.2245
-0.2245
-0.226
-0.2295
-0.2335
-0.235
-0.235
-0.2365
-0.234
-0.2205
-0.218
-0.2345
-0.234
-0.225
-0.222
-0.2165
-0.2145
-0.226
-0.229
-0.2265
-0.2325
-0.231
-0.2295
-0.2285
-0.221
-0.219
-0.2305
-0.2335
-0.232
-0.23
-0.225
-0.221
-0.212
-0.2185
-0.2365
-0.2365
-0.228
-0.2295
-0.2265
-0.223
-0.224
-0.2215
-0.2235
-0.226
-0.229
-0.2215
-0.2215
-0.228
-0.2205
-0.22
-0.2285
-0.232
-0.2275
-0.226
-0.2275
-0.2345
-0.231
-0.229
-0.232
-0.2315
-0.231
-0.2205
-0.2155
-0.218
-0.2215
-0.219
-0.217
-0.2195
-0.219
-0.219
-0.218
-0.217
-0.216
-0.2155
-0.2185
-0.2235
-0.225
-0.2235
-0.223
-0.221
-0.22
-0.2215
-0.226
-0.228
-0.2265
-0.2245
-0.222
-0.2215
-0.2275
-0.227
-0.222
-0.2245
-0.227
-0.225
-0.2265
-0.2275
-0.223
-0.222
-0.22
-0.216
-0.2215
-0.231
-0.23
-0.227
-0.2335
-0.236
-0.239
-0.2415
-0.236
-0.233
-0.228
-0.227
-0.2305
-0.2315
-0.2335
-0.234
-0.2265
-0.2235
-0.232
-0.2295
-0.2245
-0.2225
-0.226
-0.2335
-0.2345
-0.235
-0.232
-0.2295
-0.2215
-0.22
-0.2285
-0.2315
-0.226
-0.2255
-0.2345
-0.235
-0.232
-0.2285
-0.2265
-0.2315
-0.2385
-0.2375
-0.236
-0.2335
-0.2285
-0.236
-0.241
-0.236
-0.2315
-0.2285
-0.23
-0.2365
-0.2315
-0.2215
-0.2275
-0.23
-0.2275
-0.232
-0.2385
-0.245
-0.2495
-0.237
-0.2275
-0.2355
-0.2405
-0.2405
-0.2405
-0.241
-0.2435
-0.2455
-0.2415
-0.2385
-0.2385
-0.234
-0.2305
-0.232
-0.231
-0.23
-0.23
-0.2255
-0.224
-0.2275
-0.2265
-0.2295
-0.241
-0.2445
-0.2435
-0.246
-0.2455
-0.2395
-0.2335
-0.2275
-0.224
-0.225
-0.227
-0.2305
-0.2255
-0.2235
-0.22
-0.216
-0.213
-0.2045
-0.206
-0.2055
-0.1955
-0.1905
-0.1895
-0.181
-0.1765
-0.182
-0.1785
-0.175
-0.1725
-0.165
-0.1605
-0.161
-0.166
-0.17
-0.1695
-0.166
-0.164
-0.16
-0.159
-0.1575
-0.1535
-0.1515
-0.145
-0.1415
-0.139
-0.139
-0.135
-0.1255
-0.122
-0.1265
-0.1345
-0.127
-0.1285
-0.1385
-0.1455
-0.154
-0.1525
-0.1455
-0.1385
-0.1295
-0.123
-0.1285
-0.1315
-0.1285
-0.1315
-0.135
-0.1365
-0.131
-0.1315
-0.137
-0.1355
-0.136
-0.144
-0.1515
-0.155
-0.1565
-0.16
-0.169
-0.172
-0.1715
-0.169
-0.164
-0.162
-0.162
-0.1625
-0.159
-0.1585
-0.1615
-0.166
-0.165
-0.169
-0.1845
-0.188
-0.189
-0.192
-0.195
-0.1905
-0.184
-0.1905
-0.1955
-0.201
-0.206
-0.2075
-0.208
-0.207
-0.2165
-0.2265
-0.2255
-0.2335
-0.238
-0.236
-0.243
-0.246
-0.2445
-0.241
-0.24
-0.2345
-0.234
-0.244
-0.2485
-0.2475
-0.2475
-0.2495
-0.2515
-0.251
-0.251
-0.2475
-0.2485
-0.2525
-0.2445
-0.2475
-0.2515
-0.2495
-0.2535
-0.2545
-0.256
-0.2585
-0.2605
-0.2605
-0.259
-0.2515
-0.254
-0.2605
-0.264
-0.259
-0.2545
-0.263
-0.261
-0.257
-0.2595
-0.263
-0.256
-0.2515
-0.261
-0.264
-0.2645
-0.2665
-0.264
-0.2625
-0.2665
-0.263
-0.2635
-0.2635
-0.261
-0.2625
-0.2585
-0.2555
-0.253
-0.251
-0.257
-0.264
-0.2625
-0.261
-0.2645
-0.268
-0.2645
-0.265
-0.2685
-0.2675
-0.2635
-0.2645
-0.269
-0.2685
-0.2725
-0.2775
-0.2815
-0.287
-0.2925
-0.294
-0.3065
-0.331
-0.346
-0.357
-0.363
-0.3625
-0.3685
-0.371
-0.3615
-0.3635
-0.363
-0.362
-0.362
-0.346
-0.3285
-0.31
-0.2855
-0.2455
-0.211
-0.176
-0.112
-0.0545
0.004
0.069
0.124
0.1775
0.222
0.2705
0.3275
0.376
0.43
0.4675
0.501
0.5485
0.567
0.5735
0.588
0.5925
0.5875
0.568
0.551
0.541
0.5275
0.5115
0.4735
0.4215
0.3675
0.307
0.2305
0.1585
0.0915
0.015
-0.06
-0.127
-0.176
-0.206
-0.2245
-0.24
-0.253
-0.2535
-0.249
-0.2485
-0.252
-0.2535
-0.245
-0.247
-0.2525
-0.255
-0.254
-0.243
-0.238
-0.2355
-0.2405
-0.2435
-0.2465
-0.251
-0.2455
-0.2425
-0.241
-0.241
-0.2425
-0.2415
-0.2395
-0.244
-0.249
-0.245
-0.2395
-0.2345
-0.241
-0.2495
-0.247
-0.245
-0.2475
-0.249
-0.254
-0.2565
-0.25
-0.2475
-0.2515
-0.253
-0.252
-0.251
-0.2505
-0.2515
-0.2475
-0.2425
-0.2425
-0.2425
-0.241
-0.243
-0.246
-0.2475
-0.2485
-0.2395
-0.2345
-0.236
-0.238
-0.2415
-0.2425
-0.2385
-0.2295
-0.2355
-0.237
-0.2345
-0.245
-0.244
-0.2495
-0.251
-0.241
-0.237
-0.231
-0.2305
-0.2295
-0.2335
-0.232
-0.228
-0.234
-0.235
-0.226
-0.213
-0.22
-0.222
-0.219
-0.2195
-0.216
-0.2235
-0.229
-0.231
-0.2255
-0.219
-0.2185
-0.2185
-0.221
-0.221
-0.222
-0.227
-0.228
-0.2255
-0.219
-0.2135
-0.2185
-0.2205
-0.217
-0.219
-0.2195
-0.217
-0.215
-0.216
-0.209
-0.2
-0.2035
-0.207
-0.21
-0.2105
-0.21
-0.205
-0.2035
-0.2055
-0.198
-0.193
-0.194
-0.1945
-0.194
-0.198
-0.1945
-0.1925
-0.1935
-0.1915
-0.188
-0.17
-0.17
-0.1825
-0.1865
-0.193
-0.1935
-0.1925
-0.1845
-0.1785
-0.1805
-0.175
-0.1695
-0.168
-0.168
-0.1605
-0.155
-0.1545
-0.1545
-0.1595
-0.1635
-0.157
-0.154
-0.1555
-0.1475
-0.143
-0.147
-0.1495
-0.1535
-0.15
-0.1405
-0.139
-0.136
-0.1295
-0.1255
-0.1185
-0.1165
-0.1215
-0.118
-0.118
-0.119
-0.1135
-0.113
-0.105
-0.0895
-0.074
-0.062
-0.0655
-0.078
-0.081
-0.076
-0.0665
-0.06
-0.057
-0.056
-0.0545
-0.0435
-0.041
-0.044
-0.0395
-0.0365
-0.0375
-0.0345
-0.0305
-0.0265
-0.021
-0.011
-0.005
-0.008
-0.0065
-0.0015
0.0035
0.0085
0.0155
0.016
0.0145
0.0185
0.0215
0.0255
0.033
0.0385
0.0335
0.032
0.038
0.042
0.049
0.0515
0.053
0.056
0.0595
0.063
0.0575
0.052
0.058
0.0655
0.0645
0.062
0.06
0.0655
0.079
0.074
0.064
0.0655
0.0655
0.0685
0.0775
0.0795
0.0725
0.0715
0.0815
0.08
0.0725
0.069
0.062
0.057
0.0565
0.056
0.0545
0.0585
0.0505
0.045
0.045
0.0255
0.0085
-0.001
0.0005
0.006
-0.002
-0.014
-0.0235
-0.03
-0.0335
-0.034
-0.0365
-0.0405
-0.042
-0.047
-0.0565
-0.0675
-0.0765
-0.08
-0.091
-0.0975
-0.1025
-0.1105
-0.1115
-0.1135
-0.115
-0.1195
-0.1235
-0.1275
-0.137
-0.1445
-0.149
-0.152
-0.155
-0.16
-0.169
-0.1665
-0.164
-0.1715
-0.1825
-0.185
-0.1815
-0.1755
-0.168
-0.1775
-0.1875
-0.1865
-0.191
-0.194
-0.1875
-0.1975
-0.208
-0.2005
-0.1965
-0.198
-0.204
-0.2065
-0.207
-0.2065
-0.2055
-0.211
-0.214
-0.208
-0.206
-0.2085
-0.206
-0.211
-0.2195
-0.22
-0.2175
-0.2175
-0.2195
-0.2215
-0.221
-0.22
-0.222
-0.221
-0.2225
-0.223
-0.217
-0.2165
-0.218
-0.2195
-0.2215
-0.219
-0.222
-0.228
-0.229
-0.232
-0.231
-0.229
-0.23
-0.221
-0.218
-0.225
-0.2275
-0.234
-0.235
-0.227
-0.221
-0.218
-0.221
-0.219
-0.217
-0.2195
-0.2235
-0.2235
-0.219
-0.217
-0.2135
-0.2115
-0.2165
-0.2215
-0.2275
-0.2335
-0.2245
-0.2235
-0.223
-0.214
-0.222
-0.2335
-0.2325
-0.223
-0.221
-0.2225
-0.2225
-0.2245
-0.224
-0.2245
-0.223
-0.2185
-0.2175
-0.2185
-0.223
-0.2205
-0.2145
-0.2215
-0.225
-0.223
-0.224
-0.2215
-0.2225
-0.221
-0.219
-0.2205
-0.2195
-0.222
-0.22
-0.217
-0.2195
-0.2195
-0.2165
-0.2165
-0.219
-0.222
-0.2215
-0.22
-0.222
-0.229
-0.23
-0.2265
-0.2255
-0.208
-0.202
-0.2085
-0.209
-0.2155
-0.219
-0.218
-0.2125
-0.2165
-0.224
-0.2245
-0.2195
-0.2125
-0.212
-0.2115
-0.2185
-0.226
-0.224
-0.2195
-0.218
-0.2155
-0.218
-0.2215
-0.218
-0.219
-0.2235
-0.2285
-0.226
-0.223
-0.2265
-0.2245
-0.2235
-0.2225
-0.222
-0.224
-0.2245
-0.2295
-0.2285
-0.225
-0.221
-0.2165
-0.219
-0.219
-0.221
-0.221
-0.2215
-0.2195
-0.2165
-0.2195
-0.2225
-0.225
-0.2215
-0.2225
-0.226
-0.2255
-0.225
-0.225
-0.226
-0.2245
-0.2265
-0.2315
-0.236
-0.234
-0.2345
-0.2385
-0.23
-0.2255
-0.229
-0.2325
-0.2315
-0.2335
-0.237
-0.23
-0.231
-0.2345
-0.233
-0.2265
-0.2285
-0.235
-0.235
-0.229
-0.227
-0.2325
-0.2325
-0.2345
-0.2345
-0.2365
-0.235
-0.2325
-0.234
-0.2335
-0.232
-0.231
-0.2315
-0.227
-0.2235
-0.227
-0.23
-0.2285
-0.229
-0.228
-0.224
-0.2255
-0.224
-0.22
-0.221
-0.223
-0.2235
-0.2215
-0.2215
-0.2175
-0.2155
-0.221
-0.212
-0.202
-0.202
-0.2035
-0.2045
-0.203
-0.205
-0.206
-0.1975
-0.1955
-0.1945
-0.184
-0.1805
-0.1855
-0.1825
-0.183
-0.188
-0.188
-0.1865
-0.1795
-0.171
-0.169
-0.1695
-0.1615
-0.163
-0.1695
-0.1715
-0.164
-0.157
-0.162
-0.166
-0.1695
-0.154
-0.1375
-0.1375
-0.1395
-0.143
-0.1595
-0.1705
-0.167
-0.1735
-0.169
-0.1615
-0.1645
-0.1535
-0.1475
-0.1545
-0.1625
-0.17
-0.1605
-0.155
-0.164
-0.1665
-0.1635
-0.1585
-0.1575
-0.164
-0.166
-0.1595
-0.158
-0.1615
-0.1555
-0.147
-0.147
-0.142
-0.14
-0.145
-0.1535
-0.16
-0.165
-0.174
-0.169
-0.1645
-0.167
-0.167
-0.1725
-0.177
-0.176
-0.175
-0.17
-0.1695
-0.176
-0.1765
-0.1815
-0.186
-0.185
-0.1865
-0.194
-0.2015
-0.2055
-0.208
-0.2115
-0.2175
-0.223
-0.2285
-0.2275
-0.226
-0.228
-0.2275
-0.231
-0.234
-0.2375
-0.2445
-0.246
-0.24
-0.239
-0.249
-0.2505
-0.2465
-0.2515
-0.2545
-0.2545
-0.2525
-0.252
-0.2535
-0.2485
-0.247
-0.2405
-0.2375
-0.2375
-0.2335
-0.244
-0.25
-0.25
-0.255
-0.259
-0.2565
-0.255
-0.254
-0.255
-0.2615
-0.2575
-0.255
-0.254
-0.2445
-0.2365
-0.2375
-0.2445
-0.245
-0.2405
-0.242
-0.245
-0.2525
-0.2615
-0.2675
-0.272
-0.265
-0.257
-0.2555
-0.26
-0.255
-0.2435
-0.251
-0.2515
-0.247
-0.2465
-0.249
-0.2565
-0.256
-0.2605
-0.2545
-0.248
-0.2585
-0.262
-0.2635
-0.27
-0.2715
-0.2775
-0.294
-0.3115
-0.321
-0.3335
-0.347
-0.348
-0.3595
-0.3605
-0.3525
-0.363
-0.365
-0.3635
-0.3665
-0.358
-0.337
-0.314
-0.2925
-0.245
-0.198
-0.172
-0.12
-0.063
-0.006
0.0615
0.1185
0.1755
0.225
0.277
0.3335
0.3885
0.4435
0.479
0.5095
0.5515
0.5785
0.5905
0.603
0.595
0.581
0.566
0.5525
0.5475
0.5335
0.5195
0.484
0.4155
0.358
0.304
0.231
0.164
0.0945
0.0185
-0.0585
-0.116
-0.152
-0.184
-0.204
-0.223
-0.2315
-0.229
-0.2275
-0.235
-0.251
-0.2515
-0.245
-0.244
-0.2525
-0.2535
-0.2455
-0.243
-0.2385
-0.24
-0.234
-0.234
-0.24
-0.2365
-0.239
-0.241
-0.2425
-0.2405
-0.2395
-0.2405
-0.2325
-0.227
-0.229
-0.232
-0.2355
-0.236
-0.235
-0.237
-0.2435
-0.251
-0.25
-0.2485
-0.245
-0.2375
-0.2395
-0.237
-0.239
-0.242
-0.2395
-0.243
-0.2435
-0.2385
-0.235
-0.233
-0.2315
-0.234
-0.2335
-0.233
-0.238
-0.2385
-0.2385
-0.243
-0.2405
-0.2295
-0.2315
-0.242
-0.2445
-0.244
-0.2415
-0.232
-0.23
-0.222
-0.218
-0.2275
-0.224
-0.2325
-0.2435
-0.2375
-0.236
-0.2335
-0.235
-0.231
-0.222
-0.2245
-0.2285
-0.2295
-0.232
-0.229
-0.219
-0.2245
-0.2305
-0.23
-0.2245
-0.21
-0.2115
-0.211
-0.2055
-0.2015
-0.205
-0.211
-0.21
-0.2185
-0.2175
-0.2145
-0.214
-0.2115
-0.2145
-0.209
-0.2075
-0.211
-0.205
-0.2015
-0.202
-0.2125
-0.2185
-0.2165
-0.212
-0.197
-0.199
-0.199
-0.195
-0.202
-0.206
-0.2085
-0.209
-0.207
-0.1945
-0.1895
-0.192
-0.189
-0.189
-0.188
-0.185
-0.187
-0.19
-0.188
-0.1865
-0.186
-0.1845
-0.1815
-0.177
-0.177
-0.1725
-0.1645
-0.1675
-0.176
-0.18
-0.1755
-0.174
-0.1685
-0.1655
-0.167
-0.1665
-0.1665
-0.166
-0.1665
-0.1645
-0.163
-0.1555
-0.14
-0.1265
-0.1245
-0.126
-0.122
-0.1295
-0.1325
-0.122
-0.118
-0.1155
-0.118
-0.1265
-0.1235
-0.1085
-0.101
-0.1015
-0.102
-0.093
-0.089
-0.0915
-0.0825
-0.0785
-0.0835
-0.0875
-0.093
-0.0875
-0.076
-0.071
-0.07
-0.071
-0.0655
-0.056
-0.0495
-0.043
-0.0415
-0.0435
-0.0355
-0.0265
-0.027
-0.0295
-0.0175
-0.014
-0.0175
-0.0125
-0.0095
-0.004
-0.007
-0.009
-0.0075
0.0005
0.0215
0.0305
0.033
0.0335
0.029
0.0365
0.045
0.033
0.034
0.0415
0.04
0.0485
0.051
0.048
0.055
0.0615
0.061
0.0565
0.055
0.059
0.06
0.0615
0.0665
0.0645
0.0685
0.0745
0.0655
0.072
0.0755
0.073
0.072
0.0625
0.063
0.065
0.0665
0.0725
0.078
0.0745
0.064
0.0575
0.06
0.0585
0.044
0.0475
0.0525
0.042
0.0365
0.03
0.0235
0.0155
0.013
0.0115
0.005
0.003
-0.002
-0.0075
-0.0195
-0.0345
-0.042
-0.043
-0.0465
-0.056
-0.0535
-0.054
-0.0605
-0.066
-0.082
-0.085
-0.096
-0.0995
-0.085
-0.0955
-0.108
-0.116
-0.1245
-0.133
-0.1435
-0.149
-0.1495
-0.1485
-0.1505
-0.159
-0.1605
-0.165
-0.1785
-0.18
-0.1845
-0.1805
-0.175
-0.1795
-0.1825
-0.189
-0.1865
-0.1835
-0.185
-0.1895
-0.201
-0.199
-0.1975
-0.2065
-0.2025
-0.201
-0.2085
-0.214
-0.208
-0.2005
-0.203
-0.205
-0.21
-0.2145
-0.2075
-0.202
-0.21
-0.214
-0.2125
-0.21
-0.206
-0.207
-0.2045
-0.2125
-0.227
-0.232
-0.2245
-0.221
-0.2235
-0.2265
-0.2325
-0.222
-0.22
-0.2245
-0.219
-0.22
-0.2175
-0.2095
-0.213
-0.2165
-0.217
-0.217
-0.214
-0.211
-0.213
-0.222
-0.2215
-0.2185
-0.216
-0.2195
-0.227
-0.2315
-0.228
-0.219
-0.2165
-0.218
-0.22
-0.2205
-0.216
-0.214
-0.218
-0.2155
-0.2175
-0.221
-0.219
-0.218
-0.2195
-0.22
-0.218
-0.22
-0.225
-0.2245
-0.2155
-0.2155
-0.2175
-0.214
-0.21
-0.217
-0.2205
-0.218
-0.217
-0.21
-0.2135
-0.2155
-0.2175
-0.221
-0.225
-0.229
-0.226
-0.2225
-0.219
-0.2255
-0.226
-0.2215
-0.2205
-0.22
-0.228
-0.228
-0.2245
-0.231
-0.218
-0.209
-0.207
-0.2045
-0.2085
-0.211
-0.2235
-0.222
-0.2125
-0.2025
-0.2005
-0.218
-0.233
-0.234
-0.222
-0.2225
-0.2185
-0.206
-0.2065
-0.2065
-0.212
-0.219
-0.2175
-0.221
-0.2205
-0.219
-0.2215
-0.223
-0.226
-0.2215
-0.203
-0.1955
-0.215
-0.219
-0.212
-0.2155
-0.2215
-0.218
-0.21
-0.2095
-0.214
-0.2145
-0.2105
-0.217
-0.2195
-0.216
-0.2125
-0.2115
-0.2155
-0.227
-0.2295
-0.2185
-0.215
-0.2205
-0.2245
-0.224
-0.223
-0.2145
-0.2185
-0.2185
-0.2115
-0.221
-0.23
-0.224
-0.225
-0.234
-0.2275
-0.217
-0.2105
-0.215
-0.2235
-0.226
-0.2215
-0.2225
-0.226
-0.222
-0.2275
-0.222
-0.2145
-0.211
-0.219
-0.2375
-0.238
-0.2425
-0.2405
-0.2295
-0.2285
-0.2225
-0.2185
-0.229
-0.2335
-0.2245
-0.2305
-0.2355
-0.2275
-0.2345
-0.2315
-0.2245
-0.229
-0.232
-0.232
-0.2255
-0.2195
-0.2125
-0.213
-0.2165
-0.2225
-0.2305
-0.2265
-0.2325
-0.232
-0.225
-0.225
-0.2205
-0.227
-0.2345
-0.2305
-0.2265
-0.2225
-0.2115
-0.2075
-0.212
-0.213
-0.2185
-0.213
-0.204
-0.2065
-0.2035
-0.2
-0.201
-0.204
-0.2025
-0.201
-0.2
-0.1885
-0.1875
-0.182
-0.1765
-0.183
-0.181
-0.1825
-0.183
-0.179
-0.174
-0.1725
-0.1745
-0.172
-0.1735
-0.163
-0.1535
-0.1565
-0.1615
-0.1605
-0.1575
-0.161
-0.1575
-0.155
-0.1535
-0.1605
-0.163
-0.1555
-0.1695
-0.1845
-0.1865
-0.175
-0.171
-0.177
-0.1735
-0.1715
-0.171
-0.164
-0.1525
-0.1495
-0.148
-0.1505
-0.1595
-0.1685
-0.175
-0.1755
-0.1725
-0.1695
-0.1615
-0.158
-0.165
-0.1655
-0.163
-0.156
-0.154
-0.151
-0.142
-0.1445
-0.147
-0.1565
-0.159
-0.1565
-0.1585
-0.157
-0.16
-0.1615
-0.172
-0.17
-0.17
-0.1815
-0.1785
-0.18
-0.177
-0.173
-0.177
-0.18
-0.18
-0.1845
-0.1855
-0.1885
-0.1905
-0.2055
-0.225
-0.2195
-0.218
-0.216
-0.217
-0.2265
-0.224
-0.222
-0.2265
-0.2285
-0.223
-0.2235
-0.2295
-0.2345
-0.241
-0.246
-0.2475
-0.2425
-0.2345
-0.236
-0.245
-0.245
-0.239
-0.244
-0.2475
-0.242
-0.2415
-0.244
-0.2475
-0.248
-0.2445
-0.2365
-0.233
-0.239
-0.242
-0.252
-0.2455
-0.2395
-0.241
-0.2445
-0.2535
-0.2445
-0.2475
-0.247
-0.244
-0.247
-0.2455
-0.253
-0.248
-0.237
-0.2385
-0.247
-0.25
-0.2495
-0.242
-0.247
-0.258
-0.2495
-0.253
-0.2585
-0.251
-0.245
-0.243
-0.244
-0.244
-0.24
-0.2375
-0.2395
-0.247
-0.2565
-0.252
-0.2455
-0.2555
-0.2645
-0.2715
-0.2785
-0.2785
-0.29
-0.3095
-0.323
-0.3415
-0.3505
-0.349
-0.35
-0.3445
-0.3435
-0.3505
-0.35
-0.3445
-0.353
-0.342
-0.317
-0.2975
-0.263
-0.228
-0.188
-0.141
-0.1005
-0.05
0.015
0.0715
0.1305
0.184
0.23
0.2755
0.331
0.3975
0.436
0.4675
0.498
0.519
0.5355
0.5525
0.566
0.55
0.528
0.516
0.504
0.497
0.4905
0.4495
0.3965
0.352
0.3035
0.24
0.1615
0.0915
0.022
-0.0525
-0.123
-0.1765
-0.21
-0.227
-0.2335
-0.237
-0.2465
-0.2525
-0.249
-0.253
-0.265
-0.256
-0.2425
-0.245
-0.2475
-0.2455
-0.236
-0.2355
-0.2285
-0.2245
-0.242
-0.2395
-0.2285
-0.2315
-0.232
-0.22
-0.2125
-0.221
-0.229
-0.2195
-0.219
-0.231
-0.233
-0.231
-0.225
-0.235
-0.2425
-0.232
-0.2335
-0.2375
-0.237
-0.232
-0.2295
-0.2335
-0.2365
-0.2425
-0.2395
-0.239
-0.24
-0.24
-0.2395
-0.234
-0.229
-0.2285
-0.2385
-0.238
-0.241
-0.233
-0.2215
-0.237
-0.236
-0.2305
-0.2345
-0.231
-0.221
-0.2205
-0.222
-0.214
-0.2175
-0.2225
-0.2235
-0.228
-0.241
-0.244
-0.2305
-0.2335
-0.243
-0.2435
-0.2245
-0.2165
-0.2245
-0.2185
-0.221
-0.217
-0.2095
-0.2025
-0.204
-0.2095
-0.209
-0.2185
-0.214
-0.2045
-0.2045
-0.2055
-0.208
-0.2065
-0.1975
-0.2
-0.207
-0.219
-0.2265
-0.2175
-0.215
-0.21
-0.203
-0.206
-0.211
-0.2085
-0.2015
-0.1985
-0.1975
-0.2035
-0.208
-0.209
-0.2075
-0.2005
-0.1945
-0.203
-0.2135
-0.2015
-0.191
-0.1915
-0.193
-0.192
-0.184
-0.1875
-0.19
-0.1875
-0.189
-0.188
-0.184
-0.1795
-0.179
-0.178
-0.173
-0.17
-0.1715
-0.1795
-0.1865
-0.188
-0.183
-0.1735
-0.1825
-0.182
-0.1775
-0.1765
-0.1715
-0.1715
-0.16
-0.157
-0.154
-0.1485
-0.154
-0.1485
-0.146
-0.15
-0.141
-0.1385
-0.138
-0.139
-0.148
-0.14
-0.1265
-0.125
-0.136
-0.137
-0.124
-0.125
-0.1295
-0.1245
-0.128
-0.123
-0.114
-0.1185
-0.1145
-0.1075
-0.108
-0.1095
-0.095
-0.08
-0.0785
-0.0715
-0.074
-0.0855
-0.0825
-0.0715
-0.071
-0.069
-0.066
-0.0695
-0.0635
-0.061
-0.053
-0.041
-0.0335
-0.0295
-0.0385
-0.0375
-0.035
-0.029
-0.0285
-0.0285
-0.017
-0.02
-0.021
-0.0185
-0.0085
0.01
0.016
0.0205
0.0155
0.0135
0.0115
0.0045
0.0185
0.0225
0.0235
0.015
0.0215
0.0395
0.0345
0.047
0.048
0.051
0.0615
0.0575
0.0535
0.0555
0.0615
0.055
0.052
0.054
0.059
0.054
0.041
0.0425
0.048
0.0475
0.05
0.0645
0.066
0.051
0.0395
0.0415
0.05
0.049
0.0475
0.045
0.0405
0.0385
0.0355
0.029
0.026
0.023
0.0115
0.0045
-0.002
-0.0035
-0.0125
-0.021
-0.0205
-0.0365
-0.0415
-0.0315
-0.0395
-0.0435
-0.0365
-0.0425
-0.0565
-0.0595
-0.0695
-0.0755
-0.07
-0.076
-0.083
-0.0885
-0.093
-0.103
-0.113
-0.115
-0.1165
-0.117
-0.1415
-0.1435
-0.1275
-0.1415
-0.136
-0.1345
-0.144
-0.148
-0.1535
-0.1565
-0.1695
-0.1825
-0.18
-0.1645
-0.1695
-0.1755
-0.173
-0.1755
-0.1725
-0.1795
-0.186
-0.1805
-0.1925
-0.214
-0.219
-0.2145
-0.2065
-0.2015
-0.1915
-0.1825
-0.1785
-0.1925
-0.2
-0.194
-0.1985
-0.195
-0.194
-0.193
-0.201
-0.2145
-0.208
-0.2055
-0.2175
-0.217
-0.2155
-0.2185
-0.214
-0.2075
-0.204
-0.2015
-0.199
-0.205
-0.203
-0.2015
-0.206
-0.2015
-0.1985
-0.1975
-0.193
-0.192
-0.214
-0.227
-0.2345
-0.24
-0.225
-0.2275
-0.227
-0.218
-0.2155
-0.218
-0.223
-0.2165
-0.217
-0.2215
-0.2235
-0.2275
-0.2245
-0.2235
-0.217
-0.2075
-0.199
-0.203
-0.201
-0.198
-0.2145
-0.2105
-0.2105
-0.2145
-0.2055
-0.2075
-0.213
-0.219
-0.225
-0.22
-0.2135
-0.209
-0.21
-0.218
-0.213
-0.206
-0.209
-0.2075
-0.204
-0.2005
-0.2
-0.2075
-0.2105
-0.2005
-0.196
-0.201
-0.213
-0.219
-0.223
-0.223
-0.213
-0.21
-0.209
-0.213
-0.209
-0.208
-0.2155
-0.2095
-0.2055
-0.22
-0.2195
-0.2105
-0.2095
-0.2025
-0.202
-0.1975
-0.199
-0.1995
-0.1965
-0.2055
-0.2135
-0.205
-0.2055
-0.2085
-0.2005
-0.2095
-0.2085
-0.2015
-0.212
-0.2115
-0.2005
-0.207
-0.219
-0.223
-0.224
-0.217
-0.1985
-0.1975
-0.2045
-0.2
-0.212
-0.2045
-0.2015
-0.211
-0.2035
-0.2035
-0.1975
-0.2005
-0.2115
-0.2105
-0.213
-0.213
-0.2175
-0.2135
-0.2015
-0.214
-0.223
-0.2145
-0.2145
-0.216
-0.218
-0.215
-0.2115
-0.2175
-0.217
-0.211
-0.212
-0.2145
-0.2085
-0.2005
-0.189
-0.191
-0.2055
-0.2135
-0.217
-0.218
-0.213
-0.208
-0.2225
-0.219
-0.209
-0.216
-0.214
-0.2165
-0.215
-0.218
-0.231
-0.226
-0.215
-0.214
-0.2165
-0.2165
-0.2205
-0.229
-0.2275
-0.228
-0.228
-0.21
-0.2015
-0.2025
-0.207
-0.218
-0.22
-0.218
-0.2205
-0.2235
-0.2235
-0.2155
-0.2075
-0.2125
-0.2125
-0.21
-0.2115
-0.2165
-0.22
-0.218
-0.2155
-0.208
-0.199
-0.209
-0.2265
-0.2045
-0.184
-0.189
-0.1845
-0.182
-0.187
-0.1845
-0.177
-0.173
-0.1725
-0.1675
-0.166
-0.166
-0.166
-0.168
-0.1735
-0.1815
-0.1745
-0.17
-0.16
-0.153
-0.1455
-0.1405
-0.1485
-0.1505
-0.156
-0.148
-0.143
-0.159
-0.1695
-0.1665
-0.158
-0.16
-0.163
-0.1705
-0.175
-0.1655
-0.1675
-0.1695
-0.1665
-0.163
-0.162
-0.1635
-0.1595
-0.1545
-0.153
-0.15
-0.1505
-0.1495
-0.1435
-0.148
-0.151
-0.158
-0.165
-0.161
-0.1615
-0.161
-0.1535
-0.153
-0.1565
-0.156
-0.1555
-0.153
-0.152
-0.152
-0.15
-0.1515
-0.152
-0.151
-0.158
-0.1665
-0.1695
-0.1685
-0.167
-0.1665
-0.1665
-0.1715
-0.1665
-0.154
-0.1595
-0.1665
-0.1725
-0.1765
-0.178
-0.1675
-0.17
-0.192
-0.192
-0.1925
-0.197
-0.2105
-0.2085
-0.199
-0.2145
-0.21
-0.2055
-0.2155
-0.223
-0.221
-0.2305
-0.2405
-0.2305
-0.2315
-0.2235
-0.227
-0.235
-0.234
-0.2475
-0.243
-0.2375
-0.235
-0.229
-0.2225
-0.227
-0.236
-0.2385
-0.24
-0.2375
-0.242
-0.239
-0.2385
-0.2405
-0.2315
-0.235
-0.227
-0.219
-0.227
-0.223
-0.223
-0.229
-0.232
-0.2355
-0.239
-0.2305
-0.228
-0.2295
-0.2315
-0.237
-0.239
-0.2375
-0.2415
-0.25
-0.2475
-0.2415
-0.2385
-0.2435
-0.2415
-0.2425
-0.251
-0.2405
-0.2345
-0.238
-0.23
-0.223
-0.2295
-0.236
-0.233
-0.241
-0.253
-0.2465
-0.2455
-0.2495
-0.254
-0.2645
-0.277
-0.3015
-0.317
-0.319
-0.3185
-0.333
-0.349
-0.3335
-0.3235
-0.324
-0.3285
-0.3285
-0.325
-0.3185
-0.2955
-0.2825
-0.26
-0.22
-0.1855
-0.157
-0.1185
-0.0725
-0.008
0.0515
0.094
0.1455
0.1965
0.243
0.2795
0.335
0.3835
0.417
0.467
0.497
0.507
0.5155
0.5015
0.482
0.4935
0.4775
0.464
0.4655
0.45
0.4385
0.399
0.342
0.2845
0.2205
0.157
0.0985
0.0365
-0.0275
-0.0925
-0.13
-0.1585
-0.189
-0.2005
-0.221
-0.228
-0.2265
-0.2265
-0.233
-0.244
-0.249
-0.2495
-0.2475
-0.2455
-0.2355
-0.229
-0.2355
-0.242
-0.229
-0.224
-0.223
-0.2175
-0.223
-0.226
-0.227
-0.224
-0.224
-0.2205
-0.229
-0.2295
-0.2235
-0.2185
-0.2035
-0.212
-0.2195
-0.216
-0.209
-0.2225
-0.239
-0.2245
-0.22
-0.2265
-0.235
-0.232
-0.224
-0.2245
-0.226
-0.229
-0.231
-0.2275
-0.223
-0.229
-0.2205
-0.2115
-0.224
-0.221
-0.2195
-0.2245
-0.217
-0.211
-0.218
-0.2195
-0.2135
-0.221
-0.216
-0.2195
-0.2255
-0.2205
-0.22
-0.2105
-0.2055
-0.205
-0.2075
-0.205
-0.218
-0.2325
-0.2275
-0.222
-0.21
-0.2095
-0.216
-0.2155
-0.2135
-0.214
-0.2165
-0.208
-0.2105
-0.214
-0.209
-0.2065
-0.2025
-0.215
-0.2135
-0.2045
-0.214
-0.2115
-0.207
-0.211
-0.2
-0.189
-0.189
-0.1925
-0.1945
-0.1955
-0.1995
-0.195
-0.191
-0.193
-0.197
-0.2
-0.2005
-0.1955
-0.189
-0.1875
-0.186
-0.189
-0.195
-0.192
-0.187
-0.1855
-0.1865
-0.1845
-0.1825
-0.184
-0.1865
-0.1875
-0.185
-0.1915
-0.19
-0.185
-0.1785
-0.175
-0.183
-0.1735
-0.164
-0.1655
-0.167
-0.171
-0.1725
-0.1735
-0.1675
-0.154
-0.1505
-0.1475
-0.1545
-0.177
-0.1755
-0.1635
-0.154
-0.141
-0.148
-0.163
-0.159
-0.1535
-0.1515
-0.154
-0.1545
-0.1415
-0.1305
-0.127
-0.129
-0.1285
-0.134
-0.1255
-0.118
-0.127
-0.129
-0.134
-0.126
-0.1105
-0.1045
-0.1085
-0.112
-0.104
-0.101
-0.1075
-0.11
-0.1105
-0.0955
-0.0865
-0.0875
-0.0835
-0.0875
-0.0875
-0.077
-0.0665
-0.0675
-0.058
-0.0525
-0.059
-0.06
-0.0545
-0.0505
-0.051
-0.04
-0.031
-0.0305
-0.028
-0.029
-0.026
-0.02
-0.015
-0.008
-0.011
-0.018
-0.016
-0.004
0.0065
0.006
0.002
0.0055
0.014
0.0175
0.0195
0.014
0.008
0.008
0.0115
0.02
0.0245
0.0255
0.021
0.0235
0.0305
0.0285
0.0355
0.0355
0.034
0.0355
0.0415
0.051
0.05
0.0545
0.0475
0.053
0.0615
0.0555
0.06
0.056
0.049
0.041
0.0505
0.055
0.048
0.052
0.0455
0.0375
0.0325
0.0295
0.02
0.01
0.0105
0.0075
0.0065
0.004
0.0
0.008
-0.0015
-0.029
-0.0335
-0.02
-0.018
-0.04
-0.058
-0.055
-0.047
-0.0495
-0.052
-0.058
-0.0645
-0.0635
-0.07
-0.0715
-0.075
-0.09
-0.1055
-0.1115
-0.109
-0.1135
-0.121
-0.1155
-0.12
-0.122
-0.118
-0.1375
-0.152
-0.16
-0.162
-0.159
-0.1645
-0.1705
-0.1705
-0.1695
-0.17
-0.1705
-0.1765
-0.1695
-0.167
-0.1775
-0.1775
-0.181
-0.1895
-0.1885
-0.1875
-0.191
-0.1825
-0.181
-0.1835
-0.1975
-0.2125
-0.196
-0.1895
-0.1995
-0.2055
-0.203
-0.1985
-0.197
-0.2045
-0.21
-0.2045
-0.2095
-0.202
-0.1905
-0.1985
-0.192
-0.191
-0.2065
-0.2065
-0.199
-0.1995
-0.212
-0.2085
-0.208
-0.207
-0.206
-0.2115
-0.2035
-0.2065
-0.2125
-0.209
-0.2025
-0.2025
-0.208
-0.2025
-0.2005
-0.2065
-0.193
-0.1945
-0.2155
-0.2185
-0.2175
-0.2135
-0.211
-0.2085
-0.203
-0.2055
-0.202
-0.2075
-0.2155
-0.2105
-0.2145
-0.217
-0.212
-0.2115
-0.2095
-0.2075
-0.211
-0.2095
-0.204
-0.202
-0.2045
-0.211
-0.208
-0.196
-0.2015
-0.2055
-0.2035
-0.2095
-0.2025
-0.1985
-0.2045
-0.205
-0.2075
-0.204
-0.2015
-0.2015
-0.203
-0.2065
-0.2025
-0.208
-0.2125
-0.2095
-0.2065
-0.205
-0.2095
-0.209
-0.2095
-0.207
-0.207
-0.2105
-0.216
-0.218
-0.2075
-0.2045
-0.2065
-0.2135
-0.214
-0.2095
-0.2075
-0.2075
-0.2005
-0.2
-0.1995
-0.196
-0.199
-0.1975
-0.203
-0.2065
-0.2045
-0.202
-0.201
-0.1925
-0.1935
-0.201
-0.1955
-0.198
-0.213
-0.22
-0.208
-0.2045
-0.208
-0.2065
-0.197
-0.194
-0.2005
-0.2015
-0.2095
-0.2145
-0.211
-0.209
-0.215
-0.216
-0.2005
-0.1945
-0.199
-0.191
-0.1965
-0.205
-0.199
-0.2015
-0.206
-0.2075
-0.2075
-0.213
-0.2145
-0.202
-0.1975
-0.2005
-0.2065
-0.212
-0.2115
-0.2145
-0.2185
-0.224
-0.22
-0.2105
-0.209
-0.204
-0.198
-0.199
-0.204
-0.202
-0.198
-0.2165
-0.223
-0.2055
-0.208
-0.21
-0.2055
-0.2085
-0.2095
-0.207
-0.2075
-0.2055
-0.2095
-0.219
-0.2235
-0.2235
-0.214
-0.2065
-0.206
-0.207
-0.2095
-0.2135
-0.2135
-0.21
-0.205
-0.2045
-0.2095
-0.21
-0.2085
-0.204
-0.205
-0.2055
-0.2045
-0.206
-0.2025
-0.2
-0.198
-0.1985
-0.1945
-0.192
-0.1995
-0.2025
-0.1995
-0.2
-0.2035
-0.197
-0.1875
-0.185
-0.186
-0.175
-0.1635
-0.1595
-0.158
-0.1555
-0.1625
-0.1735
-0.171
-0.1615
-0.1475
-0.1515
-0.154
-0.155
-0.158
-0.1535
-0.154
-0.1545
-0.161
-0.1425
-0.132
-0.1435
-0.1425
-0.1505
-0.1585
-0.156
-0.152
-0.1585
-0.167
-0.1645
-0.152
-0.153
-0.158
-0.154
-0.152
-0.147
-0.1485
-0.1475
-0.1485
-0.156
-0.161
-0.1765
-0.1685
-0.1535
-0.1525
-0.1565
-0.1615
-0.1485
-0.142
-0.1495
-0.1475
-0.145
-0.145
-0.1495
-0.152
-0.146
-0.1535
-0.1535
-0.1465
-0.1525
-0.159
-0.1625
-0.154
-0.1455
-0.1525
-0.1575
-0.1595
-0.1625
-0.1615
-0.159
-0.158
-0.155
-0.1605
-0.166
-0.1665
-0.1695
-0.1675
-0.173
-0.1805
-0.187
-0.192
-0.199
-0.2045
-0.209
-0.218
-0.2135
-0.2135
-0.2145
-0.21
-0.2245
-0.234
-0.231
-0.2295
-0.2305
-0.2315
-0.2275
-0.222
-0.214
-0.2185
-0.224
-0.2245
-0.2285
-0.22
-0.2155
-0.222
-0.2265
-0.2285
-0.2325
-0.2385
-0.2425
-0.24
-0.2395
-0.2345
-0.2295
-0.235
-0.2305
-0.224
-0.224
-0.228
-0.24
-0.2405
-0.245
-0.251
-0.2475
-0.241
-0.235
-0.2305
-0.223
-0.222
-0.225
-0.2225
-0.2235
-0.2275
-0.232
-0.243
-0.2395
-0.2325
-0.2315
-0.2265
-0.2325
-0.231
-0.228
-0.2315
-0.233
-0.2355
-0.244
-0.254
-0.2505
-0.2475
-0.2495
-0.2435
-0.2405
-0.2525
-0.253
-0.251
-0.2595
-0.2645
-0.283
-0.301
-0.308
-0.3195
-0.326
-0.333
-0.33
-0.3195
-0.322
-0.3175
-0.312
-0.314
-0.3065
-0.2905
-0.272
-0.255
-0.2125
-0.169
-0.14
-0.0935
-0.0455
0.013
0.064
0.1025
0.1505
0.2005
0.264
0.3185
0.36
0.406
0.4355
0.466
0.492
0.4995
0.514
0.52
0.523
0.522
0.4995
0.4965
0.495
0.4925
0.478
0.424
0.37
0.3165
0.2635
0.2025
0.141
0.0765
0.0045
-0.069
-0.13
-0.167
-0.185
-0.195
-0.214
-0.2225
-0.221
-0.223
-0.227
-0.2335
-0.2285
-0.225
-0.229
-0.217
-0.2105
-0.2105
-0.2005
-0.206
-0.2075
-0.2035
-0.213
-0.2165
-0.2175
-0.216
-0.213
-0.207
-0.211
-0.2215
-0.216
-0.2135
-0.2165
-0.2235
-0.225
-0.233
-0.2255
-0.2095
-0.2115
-0.215
-0.221
-0.2295
-0.229
-0.221
-0.2205
-0.218
-0.2195
-0.2245
-0.221
-0.2185
-0.2255
-0.231
-0.229
-0.2245
-0.219
-0.2175
-0.2175
-0.2175
-0.2195
-0.2185
-0.221
-0.22
-0.2205
-0.213
-0.209
-0.224
-0.2205
-0.21
-0.207
-0.2115
-0.2165
-0.2165
-0.2125
-0.211
-0.215
-0.2125
-0.214
-0.21
-0.2115
-0.2135
-0.2035
-0.2095
-0.2145
-0.208
-0.2095
-0.215
-0.211
-0.2085
-0.2045
-0.1985
-0.205
-0.21
-0.205
-0.205
-0.211
-0.215
-0.2095
-0.2005
-0.199
-0.2025
-0.204
-0.208
-0.214
-0.2085
-0.2045
-0.2015
-0.1925
-0.195
-0.1985
-0.192
-0.189
-0.1895
-0.188
-0.187
-0.187
-0.1925
-0.193
-0.193
-0.198
-0.1835
-0.182
-0.1845
-0.182
-0.188
-0.1855
-0.1835
-0.1755
-0.1715
-0.1755
-0.179
-0.1775
-0.175
-0.1715
-0.171
-0.1765
-0.178
-0.1785
-0.1755
-0.174
-0.175
-0.1655
-0.158
-0.16
-0.164
-0.1635
-0.1595
-0.158
-0.1585
-0.16
-0.1595
-0.1595
-0.158
-0.1585
-0.1595
-0.1585
-0.155
-0.151
-0.1505
-0.1435
-0.143
-0.1415
-0.129
-0.123
-0.1315
-0.147
-0.137
-0.1195
-0.116
-0.12
-0.12
-0.113
-0.109
-0.1095
-0.108
-0.102
-0.1
-0.097
-0.0945
-0.093
-0.089
-0.086
-0.085
-0.084
-0.084
-0.084
-0.0775
-0.07
-0.061
-0.058
-0.0575
-0.0525
-0.054
-0.052
-0.0515
-0.047
-0.041
-0.043
-0.0445
-0.0455
-0.042
-0.0385
-0.031
-0.023
-0.0205
-0.018
-0.017
-0.01
-0.0025
-0.001
0.0065
0.013
0.01
0.0015
0.004
0.015
0.024
0.027
0.0205
0.031
0.034
0.0315
0.038
0.036
0.0355
0.0375
0.0425
0.0405
0.0395
0.041
0.0375
0.0445
0.0485
0.0495
0.05
0.0445
0.051
0.0585
0.0545
0.0555
0.0585
0.0525
0.0415
0.041
0.038
0.0355
0.0485
0.049
0.04
0.039
0.0405
0.049
0.041
0.025
0.0125
0.006
0.009
-0.0005
-0.0005
0.002
-0.003
-0.0065
-0.012
-0.0155
-0.012
-0.014
-0.0265
-0.0305
-0.0365
-0.0485
-0.057
-0.0665
-0.0685
-0.07
-0.0755
-0.0775
-0.089
-0.0935
-0.0885
-0.099
-0.1065
-0.107
-0.1165
-0.12
-0.123
-0.1265
-0.1295
-0.135
-0.1335
-0.1355
-0.142
-0.151
-0.1565
-0.1645
-0.1725
-0.164
-0.1585
-0.1615
-0.164
-0.176
-0.184
-0.18
-0.1755
-0.172
-0.1795
-0.1825
-0.1795
-0.182
-0.186
-0.192
-0.19
-0.1885
-0.1875
-0.186
-0.189
-0.187
-0.1845
-0.187
-0.191
-0.192
-0.199
-0.198
-0.193
-0.1955
-0.1945
-0.197
-0.205
-0.206
-0.2055
-0.2135
-0.213
-0.2045
-0.197
-0.2005
-0.202
-0.1975
-0.198
-0.1985
-0.193
-0.1905
-0.1975
-0.1955
-0.191
-0.191
-0.198
-0.2035
-0.2065
-0.2075
-0.2025
-0.2025
-0.2055
-0.2075
-0.2085
-0.2105
-0.212
-0.2085
-0.206
-0.2095
-0.2105
-0.217
-0.216
-0.211
-0.211
-0.209
-0.2135
-0.2145
-0.2115
-0.212
-0.2085
-0.1975
-0.197
-0.2025
-0.201
-0.2
-0.198
-0.1935
-0.19
-0.1945
-0.2
-0.203
-0.206
-0.2015
-0.203
-0.212
-0.2095
-0.2115
-0.2155
-0.2095
-0.2075
-0.2195
-0.2195
-0.1945
-0.183
-0.182
-0.1885
-0.201
-0.206
-0.2125
-0.21
-0.2025
-0.201
-0.2075
-0.21
-0.207
-0.2075
-0.204
-0.203
-0.2
-0.199
-0.2035
-0.204
-0.1985
-0.2035
-0.2105
-0.21
-0.2085
-0.199
-0.1915
-0.195
-0.2005
-0.205
-0.2015
-0.1935
-0.196
-0.197
-0.1945
-0.196
-0.1965
-0.198
-0.1975
-0.1945
-0.1905
-0.194
-0.2005
-0.206
-0.2065
-0.201
-0.2025
-0.2085
-0.2095
-0.209
-0.207
-0.204
-0.2065
-0.2055
-0.204
-0.2055
-0.2055
-0.2065
-0.206
-0.2095
-0.2115
-0.208
-0.2075
-0.211
-0.2115
-0.21
-0.21
-0.213
-0.2085
-0.2075
-0.2105
-0.2035
-0.1945
-0.195
-0.2015
-0.2065
-0.207
-0.207
-0.2075
-0.204
-0.21
-0.211
-0.2055
-0.208
-0.2105
-0.21
-0.207
-0.2085
-0.222
-0.216
-0.197
-0.201
-0.1995
-0.201
-0.2105
-0.208
-0.208
-0.215
-0.219
-0.216
-0.2205
-0.221
-0.2175
-0.2125
-0.2065
-0.2065
-0.2085
-0.211
-0.2105
-0.21
-0.216
-0.218
-0.2135
-0.2095
-0.216
-0.225
-0.2195
-0.2105
-0.202
-0.205
-0.2095
-0.2105
-0.2125
-0.214
-0.221
-0.219
-0.2175
-0.2195
-0.22
-0.22
-0.215
-0.2105
-0.2115
-0.2175
-0.2205
-0.222
-0.221
-0.218
-0.2195
-0.2195
-0.2175
-0.217
-0.211
-0.2055
-0.211
-0.217
-0.2115
-0.2105
-0.215
-0.218
-0.217
-0.21
-0.2095
-0.207
-0.206
-0.203
-0.197
-0.199
-0.1985
-0.199
-0.1945
-0.189
-0.1855
-0.183
-0.1865
-0.1835
-0.1775
-0.1835
-0.187
-0.1825
-0.1745
-0.163
-0.164
-0.1645
-0.1655
-0.1725
-0.167
-0.163
-0.157
-0.155
-0.1615
-0.1585
-0.154
-0.1555
-0.161
-0.163
-0.161
-0.164
-0.168
-0.1605
-0.149
-0.15
-0.145
-0.1425
-0.144
-0.139
-0.136
-0.1315
-0.135
-0.144
-0.145
-0.142
-0.1385
-0.138
-0.134
-0.131
-0.137
-0.147
-0.153
-0.1435
-0.139
-0.1505
-0.1545
-0.159
-0.1575
-0.15
-0.1505
-0.15
-0.1485
-0.1425
-0.1385
-0.138
-0.1385
-0.1435
-0.144
-0.14
-0.137
-0.143
-0.153
-0.1625
-0.17
-0.1655
-0.16
-0.1655
-0.1705
-0.1675
-0.166
-0.1715
-0.1715
-0.1685
-0.1705
-0.174
-0.1765
-0.1745
-0.1765
-0.187
-0.1955
-0.1945
-0.1955
-0.199
-0.202
-0.2065
-0.204
-0.2035
-0.2035
-0.2085
-0.2165
-0.223
-0.228
-0.227
-0.227
-0.229
-0.234
-0.23
-0.2255
-0.2245
-0.2185
-0.229
-0.2355
-0.2305
-0.225
-0.227
-0.237
-0.2305
-0.2255
-0.2295
-0.232
-0.23
-0.223
-0.228
-0.227
-0.2265
-0.229
-0.222
-0.22
-0.2235
-0.224
-0.229
-0.237
-0.231
-0.232
-0.2395
-0.2335
-0.2345
-0.237
-0.2305
-0.231
-0.234
-0.2295
-0.233
-0.24
-0.2455
-0.254
-0.2565
-0.253
-0.246
-0.2315
-0.2265
-0.2275
-0.216
-0.2125
-0.2155
-0.223
-0.2325
-0.229
-0.231
-0.23
-0.234
-0.2405
-0.2355
-0.2355
-0.233
-0.237
-0.2455
-0.2535
-0.264
-0.2745
-0.2855
-0.2985
-0.3165
-0.3275
-0.3355
-0.344
-0.34
-0.324
-0.3185
-0.322
-0.3225
-0.3255
-0.317
-0.3025
-0.29
-0.263
-0.228
-0.19
-0.149
-0.097
-0.038
0.026
0.0835
0.1315
0.1825
0.2305
0.286
0.342
0.393
0.4435
0.481
0.5155
0.554
0.581
0.59
0.5995
0.6025
0.596
0.585
0.572
0.5585
0.5425
0.5305
0.4975
0.451
0.3985
0.337
0.264
0.1905
0.12
0.0365
-0.037
-0.095
-0.131
-0.1525
-0.1655
-0.178
-0.1925
-0.198
-0.2
-0.199
-0.2
-0.197
-0.1945
-0.203
-0.2015
-0.1935
-0.198
-0.2005
-0.1975
-0.197
-0.1965
-0.2025
-0.214
-0.213
-0.2025
-0.208
-0.2135
-0.206
-0.208
-0.213
-0.2105
-0.216
-0.218
-0.2125
-0.2155
-0.2185
-0.2195
-0.215
-0.2145
-0.225
-0.2205
-0.2105
-0.2165
-0.2235
-0.2235
-0.2155
-0.209
-0.2135
-0.2175
-0.219
-0.2295
-0.236
-0.229
-0.226
-0.232
-0.2345
-0.2235
-0.217
-0.2165
-0.214
-0.219
-0.226
-0.22
-0.212
-0.2145
-0.22
-0.215
-0.214
-0.2215
-0.225
-0.2265
-0.225
-0.221
-0.2125
-0.2095
-0.212
-0.219
-0.2255
-0.22
-0.2155
-0.218
-0.2135
-0.2025
-0.2055
-0.207
-0.2065
-0.2135
-0.2135
-0.2135
-0.2115
-0.206
-0.204
-0.2035
-0.204
-0.201
-0.203
-0.2005
-0.1975
-0.2075
-0.204
-0.2
-0.203
-0.1985
-0.19
-0.183
-0.1915
-0.192
-0.1935
-0.2015
-0.198
-0.198
-0.196
-0.1915
-0.1925
-0.1915
-0.1825
-0.1805
-0.186
-0.1855
-0.1865
-0.188
-0.1855
-0.181
-0.1815
-0.1825
-0.184
-0.186
-0.1855
-0.184
-0.1805
-0.1815
-0.1775
-0.1735
-0.1775
-0.179
-0.174
-0.1685
-0.169
-0.176
-0.179
-0.1715
-0.1725
-0.178
-0.174
-0.1645
-0.162
-0.1685
-0.1615
-0.1555
-0.1535
-0.15
-0.1535
-0.1465
-0.1465
-0.147
-0.143
-0.144
-0.139
-0.1365
-0.1345
-0.1305
-0.1255
-0.124
-0.1215
-0.1185
-0.1165
-0.116
-0.1155
-0.106
-0.1035
-0.1025
-0.107
-0.11
-0.102
-0.101
-0.0985
-0.0925
-0.091
-0.0845
-0.083
-0.0785
-0.0685
-0.0735
-0.075
-0.0695
-0.0625
-0.0585
-0.061
-0.057
-0.0525
-0.0485
-0.04
-0.037
-0.034
-0.0255
-0.0205
-0.0145
-0.0115
-0.01
-0.0105
-0.011
-0.0085
-0.004
-0.0045
-0.002
0.01
0.008
0.0115
0.024
0.025
0.021
0.012
0.014
0.014
0.0105
0.0235
0.0335
0.0475
0.065
0.0635
0.0575
0.0595
0.062
0.0665
0.071
0.072
0.072
0.0785
0.082
0.077
0.0755
0.068
0.072
0.081
0.0845
0.082
0.0745
0.069
0.0695
0.0745
0.081
0.088
0.086
0.079
0.075
0.0745
0.0755
0.0805
0.0795
0.0675
0.059
0.055
0.0545
0.054
0.0475
0.0405
0.0355
0.0325
0.0285
0.0175
0.0185
0.0155
-0.0005
-0.007
-0.014
-0.0185
-0.019
-0.025
-0.0285
-0.0295
-0.0345
-0.044
-0.05
-0.0565
-0.0775
-0.074
-0.0665
-0.0795
-0.0805
-0.0865
-0.094
-0.0995
-0.1065
-0.1005
-0.109
-0.127
-0.134
-0.1395
-0.141
-0.142
-0.143
-0.1515
-0.1595
-0.1575
-0.162
-0.1635
-0.163
-0.1565
-0.154
-0.164
-0.1655
-0.1685
-0.1735
-0.174
-0.1725
-0.179
-0.185
-0.1855
-0.1855
-0.1845
-0.192
-0.194
-0.1855
-0.181
-0.183
-0.189
-0.1935
-0.1965
-0.1965
-0.1945
-0.1975
-0.1975
-0.1935
-0.1965
-0.2035
-0.2025
-0.1965
-0.198
-0.1985
-0.196
-0.195
-0.195
-0.1935
-0.197
-0.204
-0.206
-0.2085
-0.206
-0.203
-0.2045
-0.2025
-0.199
-0.191
-0.1885
-0.196
-0.1985
-0.203
-0.205
-0.2
-0.201
-0.2045
-0.207
-0.2015
-0.1975
-0.2035
-0.204
-0.2065
-0.208
-0.2025
-0.1995
-0.198
-0.1985
-0.2005
-0.2065
-0.2055
-0.199
-0.204
-0.2075
-0.2005
-0.1995
-0.1995
-0.2035
-0.205
-0.2055
-0.208
-0.207
-0.208
-0.2005
-0.199
-0.202
-0.2095
-0.2155
-0.2155
-0.2155
-0.2145
-0.2105
-0.1965
-0.187
-0.1925
-0.1915
-0.1785
-0.1875
-0.205
-0.212
-0.208
-0.2005
-0.203
-0.205
-0.2065
-0.203
-0.2035
-0.2135
-0.212
-0.2075
-0.2105
-0.2125
-0.2125
-0.214
-0.217
-0.222
-0.2135
-0.2025
-0.2095
-0.2095
-0.2065
-0.206
-0.203
-0.204
-0.1995
-0.1935
-0.198
-0.2065
-0.2
-0.1925
-0.1965
-0.1935
-0.189
-0.194
-0.196
-0.2015
-0.214
-0.2135
-0.202
-0.198
-0.204
-0.206
-0.2055
-0.21
-0.209
-0.2055
-0.203
-0.1975
-0.198
-0.199
-0.198
-0.201
-0.204
-0.203
-0.2015
-0.2055
-0.2
-0.1915
-0.197
-0.203
-0.209
-0.212
-0.2055
-0.2035
-0.2015
-0.2055
-0.2135
-0.2085
-0.1995
-0.1985
-0.2005
-0.2015
-0.2035
-0.203
-0.202
-0.205
-0.2085
-0.203
-0.208
-0.215
-0.2155
-0.215
-0.2125
-0.2105
-0.2115
-0.21
-0.2
-0.197
-0.1905
-0.1905
-0.2035
-0.2065
-0.211
-0.206
-0.2025
-0.21
-0.2135
-0.221
-0.2185
-0.218
-0.2195
-0.216
-0.2185
-0.218
-0.2145
-0.212
-0.213
-0.217
-0.217
-0.2205
-0.223
-0.2195
-0.2165
-0.2175
-0.1995
-0.1985
-0.2205
-0.2165
-0.2145
-0.2125
-0.2215
-0.2305
-0.2195
-0.2235
-0.2235
-0.213
-0.212
-0.2165
-0.2165
-0.2145
-0.2105
-0.2135
-0.2165
-0.219
-0.22
-0.211
-0.2115
-0.214
-0.2145
-0.215
-0.2175
-0.219
-0.215
-0.2145
-0.2125
-0.2135
-0.214
-0.2115
-0.2135
-0.2095
-0.198
-0.2025
-0.208
-0.198
-0.1895
-0.1805
-0.184
-0.1875
-0.185
-0.1875
-0.181
-0.1735
-0.1695
-0.17
-0.168
-0.1595
-0.158
-0.155
-0.16
-0.1695
-0.166
-0.163
-0.161
-0.156
-0.1535
-0.155
-0.154
-0.151
-0.1475
-0.147
-0.1525
-0.15
-0.1525
-0.1535
-0.146
-0.146
-0.1485
-0.153
-0.15
-0.1435
-0.139
-0.1345
-0.13
-0.13
-0.132
-0.1325
-0.135
-0.1305
-0.13
-0.1335
-0.134
-0.1365
-0.1405
-0.147
-0.1505
-0.1485
-0.1455
-0.1405
-0.1445
-0.1455
-0.149
-0.157
-0.1465
-0.145
-0.142
-0.1365
-0.132
-0.1265
-0.1345
-0.1435
-0.156
-0.1595
-0.1625
-0.162
-0.155
-0.1485
-0.143
-0.1535
-0.1535
-0.1495
-0.152
-0.1545
-0.1505
-0.15
-0.166
-0.1725
-0.1775
-0.183
-0.185
-0.1905
-0.1815
-0.1775
-0.181
-0.184
-0.1975
-0.2
-0.205
-0.2085
-0.2085
-0.21
-0.211
-0.214
-0.2195
-0.221
-0.2185
-0.22
-0.223
-0.2335
-0.234
-0.2315
-0.236
-0.232
-0.2315
-0.236
-0.237
-0.2325
-0.2295
-0.232
-0.234
-0.2315
-0.225
-0.224
-0.2285
-0.231
-0.2305
-0.231
-0.2335
-0.2345
-0.233
-0.231
-0.2355
-0.2405
-0.2385
-0.2335
-0.2325
-0.236
-0.239
-0.236
-0.2305
-0.2305
-0.237
-0.238
-0.2355
-0.234
-0.237
-0.241
-0.242
-0.2355
-0.232
-0.2425
-0.2465
-0.2405
-0.231
-0.2315
-0.238
-0.2355
-0.2335
-0.2375
-0.2405
-0.2395
-0.242
-0.243
-0.246
-0.2505
-0.241
-0.239
-0.241
-0.2395
-0.244
-0.254
-0.2605
-0.263
-0.2795
-0.2915
-0.3105
-0.3365
-0.3495
-0.356
-0.358
-0.3525
-0.3415
-0.346
-0.3475
-0.341
-0.347
-0.341
-0.316
-0.3015
-0.2665
-0.2155
-0.1845
-0.1345
-0.076
-0.0245
0.036
0.096
0.1515
0.203
0.252
0.3035
0.3505
0.4005
0.4585
0.4955
0.5255
0.5645
0.586
0.5985
0.61
0.6135
0.6145
0.5995
0.5855
0.578
0.561
0.54
0.5045
0.4475
0.3835
0.324
0.251
0.1805
0.115
0.034
-0.045
-0.095
-0.13
-0.165
-0.183
-0.1985
-0.2115
-0.214
-0.2205
-0.2205
-0.216
-0.2095
-0.2095
-0.214
-0.2175
-0.23
-0.2265
-0.215
-0.213
-0.213
-0.211
-0.2145
-0.2215
-0.218
-0.211
-0.2055
-0.2085
-0.2115
-0.2135
-0.216
-0.216
-0.219
-0.214
-0.2125
-0.2135
-0.2065
-0.214
-0.2255
-0.223
-0.2185
-0.2285
-0.2345
-0.226
-0.2235
-0.227
-0.223
-0.2255
-0.233
-0.229
-0.223
-0.2235
-0.2285
-0.233
-0.2325
-0.227
-0.225
-0.2355
-0.242
-0.2345
-0.2305
-0.223
-0.224
-0.2295
-0.221
-0.2135
-0.216
-0.2245
-0.2155
-0.205
-0.208
-0.208
-0.216
-0.2235
-0.219
-0.209
-0.2095
-0.2175
-0.214
-0.214
-0.211
-0.209
-0.2095
-0.195
-0.1955
-0.2065
-0.2065
-0.2085
-0.211
-0.217
-0.2195
-0.211
-0.2045
-0.205
-0.205
-0.203
-0.2015
-0.197
-0.19
-0.199
-0.215
-0.208
-0.197
-0.1985
-0.2015
-0.1965
-0.194
-0.197
-0.1945
-0.1955
-0.197
-0.199
-0.1995
-0.19
-0.1835
-0.187
-0.192
-0.1855
-0.189
-0.1985
-0.1925
-0.184
-0.1815
-0.1845
-0.1865
-0.1925
-0.19
-0.181
-0.182
-0.1795
-0.1765
-0.172
-0.169
-0.1765
-0.177
-0.1765
-0.1735
-0.167
-0.1675
-0.167
-0.164
-0.166
-0.17
-0.1705
-0.17
-0.166
-0.1625
-0.1545
-0.1525
-0.1565
-0.155
-0.1535
-0.149
-0.1445
-0.1425
-0.1435
-0.1445
-0.143
-0.134
-0.1305
-0.1345
-0.131
-0.1335
-0.124
-0.113
-0.1155
-0.1135
-0.111
-0.1115
-0.111
-0.1155
-0.116
-0.107
-0.1035
-0.0915
-0.082
-0.083
-0.078
-0.0715
-0.0665
-0.072
-0.074
-0.067
-0.0715
-0.0695
-0.058
-0.065
-0.0685
-0.0645
-0.0595
-0.0445
-0.0395
-0.04
-0.039
-0.037
-0.039
-0.0305
-0.0175
-0.0095
-0.003
0.002
0.0125
0.0135
0.015
0.018
0.011
0.004
0.0155
0.0245
0.03
0.0405
0.0405
0.044
0.046
0.043
0.0405
0.0485
0.0595
0.0605
0.0585
0.0535
0.0595
0.066
0.065
0.0735
0.0765
0.0745
0.0805
0.0845
0.0845
0.082
0.0805
0.083
0.0845
0.082
0.0775
0.0755
0.077
0.0785
0.08
0.085
0.087
0.0855
0.0815
0.0815
0.0855
0.08
0.0745
0.07
0.0665
0.067
0.065
0.064
0.0625
0.0565
0.051
0.046
0.042
0.04
0.0385
0.0285
0.0135
0.008
0.009
0.003
-0.003
-0.0085
-0.017
-0.0255
-0.0315
-0.0375
-0.0455
-0.0535
-0.0585
-0.0655
-0.0755
-0.086
-0.0945
-0.1005
-0.1065
-0.109
-0.104
-0.0995
-0.1105
-0.121
-0.1325
-0.1415
-0.135
-0.128
-0.1325
-0.1445
-0.148
-0.1375
-0.139
-0.152
-0.161
-0.1675
-0.1665
-0.1705
-0.1725
-0.1685
-0.1715
-0.1765
-0.1815
-0.1795
-0.1825
-0.1935
-0.1925
-0.189
-0.1905
-0.1955
-0.1945
-0.197
-0.1985
-0.1925
-0.193
-0.2035
-0.2115
-0.206
-0.201
-0.2035
-0.2095
-0.2045
-0.201
-0.1995
-0.2005
-0.206
-0.202
-0.1985
-0.195
-0.1945
-0.196
-0.194
-0.196
-0.2
-0.207
-0.21
-0.209
-0.2155
-0.2175
-0.213
-0.209
-0.211
-0.214
-0.2165
-0.2135
-0.2085
-0.2095
-0.207
-0.2095
-0.2125
-0.2115
-0.21
-0.2105
-0.212
-0.215
-0.215
-0.2085
-0.207
-0.205
-0.214
-0.2135
-0.2
-0.209
-0.217
-0.2185
-0.22
-0.215
-0.2065
-0.214
-0.2245
-0.213
-0.207
-0.2175
-0.2235
-0.2145
-0.201
-0.2
-0.203
-0.2045
-0.2005
-0.203
-0.216
-0.219
-0.2155
-0.2175
-0.2175
-0.2135
-0.2135
-0.2
-0.1935
-0.205
-0.2065
-0.2065
-0.2085
-0.2075
-0.209
-0.209
-0.211
-0.2105
-0.2065
-0.21
-0.2085
-0.2055
-0.211
-0.214
-0.2075
-0.2025
-0.206
-0.208
-0.208
-0.216
-0.2215
-0.212
-0.2075
-0.212
-0.2095
-0.2125
-0.214
-0.209
-0.208
-0.2065
-0.2115
-0.208
-0.196
-0.199
-0.204
-0.2075
-0.2095
-0.2095
-0.2125
-0.2075
-0.208
-0.2195
-0.2185
-0.213
-0.216
-0.2155
-0.2075
-0.2
-0.198
-0.1995
-0.203
-0.205
-0.2045
-0.196
-0.194
-0.208
-0.208
-0.203
-0.198
-0.2025
-0.213
-0.2165
-0.2205
-0.2135
-0.208
-0.209
-0.208
-0.213
-0.2225
-0.2185
-0.2115
-0.216
-0.2155
-0.2165
-0.2185
-0.2165
-0.2135
-0.2125
-0.2185
-0.2195
-0.2195
-0.214
-0.208
-0.209
-0.208
-0.2065
-0.2065
-0.2135
-0.2195
-0.224
-0.22
-0.2115
-0.216
-0.217
-0.2075
-0.21
-0.217
-0.2105
-0.2115
-0.21
-0.2055
-0.2125
-0.217
-0.2175
-0.218
-0.221
-0.2235
-0.227
-0.23
-0.2265
-0.2145
-0.209
-0.211
-0.2145
-0.212
-0.216
-0.2175
-0.211
-0.215
-0.209
-0.213
-0.2225
-0.2185
-0.2205
-0.2245
-0.2215
-0.2145
-0.2215
-0.2305
-0.2245
-0.2215
-0.223
-0.2225
-0.227
-0.232
-0.2285
-0.219
-0.218
-0.2255
-0.2245
-0.2215
-0.224
-0.224
-0.226
-0.225
-0.2155
-0.2075
-0.2145
-0.224
-0.222
-0.218
-0.2185
-0.225
-0.224
-0.22
-0.218
-0.221
-0.2285
-0.2285
-0.2255
-0.2255
-0.219
-0.2135
-0.2225
-0.2225
-0.209
-0.2065
-0.207
-0.1995
-0.205
-0.2085
-0.203
-0.2
-0.1945
-0.1975
-0.2025
-0.194
-0.183
-0.1845
-0.1845
-0.1765
-0.1745
-0.1735
-0.1705
-0.163
-0.157
-0.1545
-0.1515
-0.1525
-0.153
-0.162
-0.169
-0.168
-0.1645
-0.1565
-0.156
-0.15
-0.1505
-0.153
-0.1395
-0.1335
-0.134
-0.138
-0.136
-0.131
-0.13
-0.126
-0.13
-0.1335
-0.132
-0.135
-0.129
-0.1325
-0.1365
-0.143
-0.1445
-0.1315
-0.1355
-0.1325
-0.1315
-0.1355
-0.133
-0.1375
-0.1315
-0.1225
-0.1265
-0.1335
-0.1365
-0.1435
-0.1515
-0.1485
-0.1425
-0.1485
-0.152
-0.151
-0.1515
-0.147
-0.1435
-0.1445
-0.147
-0.15
-0.1545
-0.167
-0.163
-0.156
-0.1575
-0.1565
-0.161
-0.1615
-0.1605
-0.164
-0.1675
-0.1675
-0.1715
-0.1765
-0.1815
-0.1815
-0.1795
-0.187
-0.194
-0.196
-0.1945
-0.196
-0.207
-0.2215
-0.2195
-0.2175
-0.224
-0.2205
-0.219
-0.2225
-0.226
-0.2315
-0.232
-0.2305
-0.2345
-0.239
-0.2365
-0.2335
-0.2295
-0.221
-0.225
-0.2285
-0.2315
-0.241
-0.234
-0.2385
-0.248
-0.233
-0.2305
-0.2315
-0.2195
-0.23
-0.248
-0.2435
-0.238
-0.2425
-0.243
-0.2425
-0.241
-0.234
-0.239
-0.2425
-0.2385
-0.24
-0.246
-0.2515
-0.2435
-0.232
-0.2355
-0.241
-0.237
-0.241
-0.2455
-0.2455
-0.241
-0.2415
-0.2465
-0.245
-0.237
-0.2295
-0.233
-0.232
-0.2365
-0.2425
-0.2405
-0.2505
-0.253
-0.2495
-0.2485
-0.2455
-0.245
-0.2425
-0.2415
-0.2415
-0.2435
-0.248
-0.2475
-0.2545
-0.266
-0.2665
-0.277
-0.293
-0.3065
-0.3215
-0.3245
-0.3335
-0.346
-0.35
-0.339
-0.328
-0.336
-0.348
-0.352
-0.351
-0.343
-0.3205
-0.3075
-0.288
-0.243
-0.2
-0.1525
-0.1015
-0.049
0.0115
0.076
0.1385
0.1875
0.2375
0.296
0.3435
0.3925
0.45
0.4905
0.523
0.564
0.58
0.5935
0.5995
0.581
0.5765
0.562
0.54
0.5355
0.5385
0.523
0.47
0.4085
0.347
0.278
0.2055
0.1415
0.084
0.0075
-0.0725
-0.126
-0.1695
-0.194
-0.2005
-0.214
-0.2285
-0.238
-0.232
-0.2295
-0.2275
-0.2345
-0.2445
-0.242
-0.2465
-0.246
-0.2415
-0.234
-0.233
-0.2295
-0.2245
-0.2325
-0.2365
-0.233
-0.234
-0.237
-0.233
-0.231
-0.233
-0.2305
-0.2185
-0.216
-0.22
-0.221
-0.2305
-0.2305
-0.2175
-0.22
-0.228
-0.225
-0.218
-0.2185
-0.229
-0.229
-0.226
-0.227
-0.227
-0.2315
-0.232
-0.23
-0.2305
-0.227
-0.232
-0.2335
-0.221
-0.2265
-0.2365
-0.2365
-0.233
-0.227
-0.225
-0.2255
-0.229
-0.2345
-0.2375
-0.236
-0.2395
-0.2305
-0.2165
-0.2135
-0.218
-0.2245
-0.227
-0.2235
-0.207
-0.203
-0.214
-0.217
-0.2185
-0.219
-0.217
-0.22
-0.2135
-0.2215
-0.2245
-0.2125
-0.213
-0.2105
-0.2055
-0.2045
-0.2085
-0.207
-0.207
-0.2125
-0.2145
-0.218
-0.208
-0.1935
-0.198
-0.201
-0.199
-0.1985
-0.1955
-0.2
-0.2045
-0.2005
-0.1955
-0.201
-0.207
-0.196
-0.1925
-0.1955
-0.1955
-0.192
-0.188
-0.1895
-0.19
-0.192
-0.187
-0.1845
-0.186
-0.188
-0.194
-0.191
-0.186
-0.1875
-0.1925
-0.1945
-0.186
-0.1745
-0.178
-0.176
-0.1715
-0.177
-0.1735
-0.172
-0.173
-0.1845
-0.178
-0.1615
-0.1625
-0.165
-0.1705
-0.1655
-0.1695
-0.171
-0.16
-0.1585
-0.1545
-0.1605
-0.1555
-0.1345
-0.1465
-0.1555
-0.143
-0.1355
-0.141
-0.145
-0.139
-0.133
-0.1305
-0.129
-0.12
-0.1185
-0.121
-0.1185
-0.1135
-0.114
-0.1175
-0.109
-0.107
-0.1075
-0.1055
-0.1015
-0.095
-0.0975
-0.084
-0.0685
-0.0775
-0.0855
-0.083
-0.077
-0.082
-0.0825
-0.0765
-0.0695
-0.0585
-0.0595
-0.055
-0.053
-0.0585
-0.057
-0.048
-0.0355
-0.034
-0.0255
-0.0175
-0.0105
-0.0015
-0.0015
-0.0005
-0.0035
-0.006
-0.003
0.004
0.0065
0.005
0.0245
0.036
0.03
0.031
0.0285
0.0255
0.037
0.049
0.0465
0.048
0.047
0.0475
0.0505
0.0475
0.0615
0.069
0.0675
0.0685
0.0715
0.0775
0.0735
0.0745
0.0695
0.0725
0.071
0.059
0.0655
0.0695
0.0705
0.0725
0.077
0.0805
0.0795
0.0765
0.073
0.0705
0.0685
0.072
0.073
0.067
0.063
0.0635
0.0595
0.0565
0.052
0.047
0.0455
0.0405
0.031
0.0185
0.0185
0.0115
-0.005
0.0015
0.0145
0.006
-0.007
-0.0145
-0.0175
-0.017
-0.024
-0.0355
-0.044
-0.053
-0.062
-0.064
-0.067
-0.0715
-0.0755
-0.089
-0.1
-0.0955
-0.0955
-0.113
-0.123
-0.123
-0.129
-0.1295
-0.134
-0.1385
-0.136
-0.1445
-0.146
-0.1395
-0.1405
-0.1465
-0.159
-0.1675
-0.1605
-0.1545
-0.1605
-0.172
-0.1825
-0.183
-0.179
-0.18
-0.184
-0.189
-0.19
-0.19
-0.194
-0.1945
-0.1885
-0.19
-0.198
-0.2015
-0.198
-0.2
-0.2105
-0.2015
-0.1865
-0.1905
-0.1925
-0.1935
-0.1975
-0.1995
-0.1995
-0.199
-0.204
-0.202
-0.2065
-0.2225
-0.2205
-0.217
-0.2205
-0.213
-0.2145
-0.2145
-0.199
-0.2035
-0.216
-0.2115
-0.2165
-0.2225
-0.214
-0.2055
-0.211
-0.212
-0.2065
-0.2095
-0.2005
-0.192
-0.1965
-0.207
-0.2115
-0.2075
-0.2015
-0.196
-0.1955
-0.2035
-0.2055
-0.206
-0.212
-0.2135
-0.218
-0.212
-0.205
-0.2135
-0.2175
-0.221
-0.225
-0.2195
-0.214
-0.2105
-0.201
-0.2035
-0.2055
-0.1985
-0.206
-0.204
-0.2055
-0.2165
-0.2175
-0.217
-0.217
-0.22
-0.219
-0.2175
-0.22
-0.219
-0.2125
-0.2115
-0.202
-0.1995
-0.2055
-0.2055
-0.208
-0.199
-0.2015
-0.2045
-0.206
-0.207
-0.202
-0.206
-0.2085
-0.2105
-0.207
-0.2105
-0.208
-0.1995
-0.2045
-0.2115
-0.214
-0.2105
-0.2185
-0.2165
-0.2075
-0.203
-0.1995
-0.1985
-0.195
-0.2
-0.1975
-0.208
-0.2145
-0.2075
-0.2085
-0.191
-0.1865
-0.1845
-0.1855
-0.2075
-0.2155
-0.2185
-0.2105
-0.2065
-0.207
-0.2005
-0.2095
-0.202
-0.191
-0.1975
-0.2115
-0.211
-0.2045
-0.2075
-0.203
-0.204
-0.209
-0.2105
-0.2125
-0.2095
-0.2025
-0.204
-0.207
-0.205
-0.206
-0.214
-0.2125
-0.2085
-0.205
-0.1965
-0.207
-0.2155
-0.2195
-0.2215
-0.2225
-0.2265
-0.2185
-0.2145
-0.208
-0.209
-0.213
-0.2105
-0.217
-0.209
-0.202
-0.1975
-0.2055
-0.22
-0.216
-0.2155
-0.215
-0.2185
-0.215
-0.2105
-0.2135
-0.2135
-0.2125
-0.2135
-0.2145
-0.2115
-0.208
-0.2085
-0.2155
-0.2165
-0.216
-0.213
-0.2025
-0.2015
-0.199
-0.203
-0.2075
-0.202
-0.2085
-0.213
-0.222
-0.224
-0.2145
-0.2175
-0.2215
-0.216
-0.215
-0.226
-0.2255
-0.2175
-0.2125
-0.214
-0.222
-0.2265
-0.227
-0.2255
-0.225
-0.225
-0.224
-0.219
-0.215
-0.2105
-0.2075
-0.2205
-0.2295
-0.221
-0.2125
-0.216
-0.2195
-0.2205
-0.227
-0.23
-0.235
-0.237
-0.228
-0.223
-0.2165
-0.213
-0.2195
-0.2195
-0.211
-0.2155
-0.2165
-0.2185
-0.227
-0.2195
-0.2185
-0.2195
-0.2125
-0.219
-0.228
-0.22
-0.2205
-0.217
-0.211
-0.2125
-0.2045
-0.201
-0.194
-0.1905
-0.1965
-0.189
-0.1835
-0.188
-0.1795
-0.17
-0.1645
-0.165
-0.168
-0.165
-0.1605
-0.154
-0.151
-0.1535
-0.1515
-0.15
-0.153
-0.153
-0.1585
-0.1525
-0.144
-0.143
-0.1325
-0.131
-0.1265
-0.1255
-0.139
-0.1365
-0.1295
-0.1275
-0.1275
-0.123
-0.123
-0.126
-0.126
-0.1325
-0.1335
-0.1355
-0.1395
-0.1325
-0.13
-0.123
-0.1225
-0.132
-0.13
-0.1355
-0.133
-0.137
-0.1355
-0.131
-0.136
-0.125
-0.141
-0.148
-0.144
-0.148
-0.1455
-0.1665
-0.1725
-0.165
-0.1695
-0.1695
-0.1595
-0.139
-0.1355
-0.1315
-0.1325
-0.142
-0.144
-0.144
-0.1505
-0.161
-0.1625
-0.167
-0.164
-0.17
-0.18
-0.178
-0.186
-0.187
-0.186
-0.194
-0.1925
-0.1895
-0.186
-0.1895
-0.1945
-0.2
-0.2165
-0.22
-0.2145
-0.222
-0.2285
-0.2205
-0.2175
-0.218
-0.226
-0.2245
-0.2215
-0.228
-0.232
-0.2365
-0.23
-0.2275
-0.227
-0.228
-0.236
-0.2425
-0.241
-0.2315
-0.2245
-0.227
-0.232
-0.2285
-0.235
-0.2345
-0.22
-0.2245
-0.232
-0.232
-0.2415
-0.2525
-0.248
-0.2405
-0.2405
-0.2365
-0.2305
-0.2315
-0.237
-0.2415
-0.243
-0.2385
-0.2365
-0.24
-0.239
-0.241
-0.249
-0.244
-0.2415
-0.251
-0.246
-0.232
-0.226
-0.226
-0.2295
-0.2405
-0.2495
-0.2435
-0.2455
-0.258
-0.262
-0.2555
-0.2485
-0.2445
-0.2395
-0.2315
-0.2435
-0.2645
-0.257
-0.2495
-0.2445
-0.2335
-0.232
-0.238
-0.253
-0.2635
-0.261
-0.2645
-0.27
-0.2725
-0.279
-0.2775
-0.295
-0.309
-0.316
-0.332
-0.3415
-0.34
-0.328
-0.3375
-0.3345
-0.3285
-0.3345
-0.3255
-0.3175
-0.3035
-0.281
-0.245
-0.213
-0.1815
-0.134
-0.0855
-0.036
0.0245
0.0845
0.133
0.183
0.236
0.29
0.3415
0.3905
0.4245
0.453
0.489
0.5115
0.517
0.5245
0.519
0.519
0.507
0.479
0.484
0.4805
0.4705
0.4445
0.391
0.3365
0.2795
0.2135
0.148
0.086
0.014
-0.073
-0.1485
-0.187
-0.212
-0.2225
-0.2265
-0.2405
-0.243
-0.2395
-0.2435
-0.2455
-0.2515
-0.248
-0.2325
-0.239
-0.247
-0.2355
-0.223
-0.225
-0.2265
-0.226
-0.2325
-0.2345
-0.239
-0.2385
-0.238
-0.2325
-0.2345
-0.2465
-0.24
-0.235
-0.2335
-0.23
-0.232
-0.2275
-0.218
-0.2225
-0.233
-0.237
-0.236
-0.236
-0.2385
-0.2345
-0.23
-0.226
-0.227
-0.224
-0.2155
-0.222
-0.221
-0.217
-0.2245
-0.227
-0.232
-0.235
-0.2315
-0.224
-0.224
-0.23
-0.2275
-0.222
-0.216
-0.2125
-0.217
-0.2265
-0.221
-0.221
-0.224
-0.218
-0.221
-0.216
-0.214
-0.22
-0.225
-0.2275
-0.2245
-0.2215
-0.2145
-0.2105
-0.213
-0.217
-0.213
-0.208
-0.2095
-0.21
-0.214
-0.2215
-0.2215
-0.222
-0.223
-0.2135
-0.2125
-0.211
-0.203
-0.211
-0.212
-0.205
-0.204
-0.198
-0.188
-0.1835
-0.187
-0.19
-0.187
-0.1875
-0.1945
-0.194
-0.196
-0.202
-0.196
-0.195
-0.196
-0.1985
-0.2
-0.198
-0.202
-0.192
-0.191
-0.19
-0.188
-0.189
-0.179
-0.1845
-0.187
-0.177
-0.1725
-0.1805
-0.1935
-0.1965
-0.189
-0.183
-0.1825
-0.1885
-0.181
-0.174
-0.1805
-0.178
-0.1765
-0.1715
-0.165
-0.173
-0.174
-0.168
-0.1685
-0.1735
-0.1795
-0.1675
-0.151
-0.1445
-0.144
-0.1495
-0.1535
-0.1535
-0.1525
-0.143
-0.137
-0.1395
-0.141
-0.1465
-0.142
-0.1375
-0.1405
-0.1335
-0.1345
-0.131
-0.1255
-0.136
-0.1285
-0.121
-0.1145
-0.102
-0.105
-0.104
-0.097
-0.098
-0.0985
-0.0975
-0.091
-0.081
-0.0805
-0.089
-0.092
-0.082
-0.0815
-0.0815
-0.0745
-0.0715
-0.072
-0.0695
-0.0625
-0.051
-0.0375
-0.0405
-0.04
-0.0405
-0.039
-0.0265
-0.0325
-0.034
-0.0355
-0.035
-0.02
-0.024
-0.019
-0.002
0.0065
0.008
-0.003
0.005
0.017
0.0185
0.0155
0.0165
0.0275
0.031
0.041
0.045
0.0325
0.0295
0.0345
0.0375
0.0375
0.0325
0.026
0.0315
0.0345
0.0295
0.044
0.0505
0.0575
0.054
0.0485
0.0725
0.069
0.072
0.09
0.0865
0.0795
0.0695
0.0645
0.0595
0.058
0.064
0.06
0.06
0.0575
0.048
0.0535
0.0535
0.042
0.035
0.0365
0.044
0.041
0.0265
0.023
0.025
0.0205
0.009
-0.0015
0.003
0.0035
-0.0095
-0.0175
-0.0215
-0.03
-0.0325
-0.039
-0.0435
-0.0485
-0.063
-0.0685
-0.0685
-0.0755
-0.084
-0.085
-0.091
-0.094
-0.0935
-0.1085
-0.118
-0.1215
-0.118
-0.126
-0.141
-0.135
-0.1335
-0.1385
-0.1485
-0.1545
-0.16
-0.161
-0.1675
-0.1615
-0.1475
-0.154
-0.15
-0.1565
-0.171
-0.1715
-0.172
-0.178
-0.181
-0.183
-0.1865
-0.184
-0.1855
-0.1845
-0.18
-0.194
-0.2055
-0.1955
-0.195
-0.195
-0.196
-0.204
-0.198
-0.1895
-0.184
-0.198
-0.2135
-0.2125
-0.2065
-0.2035
-0.2115
-0.2065
-0.201
-0.204
-0.206
-0.203
-0.202
-0.2075
-0.206
-0.2065
-0.2105
-0.201
-0.192
-0.2055
-0.214
-0.2095
-0.2065
-0.206
-0.209
-0.2075
-0.2055
-0.2035
-0.2075
-0.2135
-0.209
-0.201
-0.2055
-0.2165
-0.215
-0.214
-0.2135
-0.2105
-0.2165
-0.22
-0.2205
-0.2185
-0.203
-0.205
-0.212
-0.2025
-0.203
-0.21
-0.219
-0.2145
-0.2105
-0.211
-0.207
-0.2085
-0.2065
-0.209
-0.215
-0.2125
-0.2055
-0.208
-0.2125
-0.2105
-0.213
-0.215
-0.2095
-0.206
-0.2055
-0.2075
-0.209
-0.1995
-0.2025
-0.214
-0.212
-0.2085
-0.21
-0.216
-0.2195
-0.217
-0.221
-0.225
-0.2015
-0.1875
-0.19
-0.187
-0.1885
-0.1925
-0.198
-0.2015
-0.199
-0.202
-0.207
-0.2045
-0.2065
-0.2115
-0.2115
-0.2075
-0.2015
-0.205
-0.209
-0.209
-0.2145
-0.2165
-0.213
-0.209
-0.211
-0.2055
-0.2015
-0.205
-0.209
-0.209
-0.2065
-0.2045
-0.1985
-0.201
-0.1945
-0.1925
-0.2015
-0.2005
-0.198
-0.1935
-0.1965
-0.206
-0.21
-0.206
-0.205
-0.208
-0.204
-0.199
-0.204
-0.2125
-0.2115
-0.2135
-0.2205
-0.217
-0.2065
-0.2045
-0.2115
-0.2165
-0.2065
-0.198
-0.2005
-0.198
-0.193
-0.1985
-0.2045
-0.2045
-0.206
-0.207
-0.208
-0.2085
-0.2175
-0.22
-0.216
-0.2075
-0.2025
-0.2085
-0.2085
-0.205
-0.197
-0.1975
-0.202
-0.2055
-0.215
-0.218
-0.2155
-0.2175
-0.217
-0.214
-0.217
-0.2195
-0.223
-0.2205
-0.2085
-0.2055
-0.216
-0.217
-0.21
-0.2095
-0.2075
-0.209
-0.2185
-0.2215
-0.2065
-0.199
-0.205
-0.212
-0.2165
-0.2135
-0.215
-0.217
-0.2175
-0.2175
-0.217
-0.2175
-0.217
-0.2135
-0.214
-0.2125
-0.21
-0.2155
-0.215
-0.213
-0.2135
-0.2145
-0.2135
-0.216
-0.217
-0.2125
-0.211
-0.2125
-0.215
-0.214
-0.2185
-0.2185
-0.2165
-0.2195
-0.2175
-0.219
-0.2185
-0.218
-0.221
-0.22
-0.2185
-0.216
-0.22
-0.219
-0.2145
-0.21
-0.2075
-0.2235
-0.2365
-0.232
-0.225
-0.2245
-0.222
-0.2155
-0.2095
-0.2065
-0.201
-0.194
-0.1895
-0.1935
-0.1985
-0.203
-0.2145
-0.2135
-0.215
-0.211
-0.1995
-0.2
-0.1925
-0.1835
-0.179
-0.1775
-0.182
-0.1815
-0.179
-0.1795
-0.1775
-0.1665
-0.153
-0.15
-0.143
-0.1365
-0.1395
-0.1475
-0.159
-0.156
-0.148
-0.1435
-0.15
-0.154
-0.1405
-0.1365
-0.143
-0.1465
-0.1385
-0.1215
-0.1195
-0.122
-0.1065
-0.1045
-0.113
-0.1165
-0.1245
-0.1325
-0.1335
-0.1335
-0.1345
-0.1355
-0.136
-0.126
-0.1255
-0.131
-0.1345
-0.1395
-0.1355
-0.1335
-0.136
-0.136
-0.13
-0.126
-0.1235
-0.1205
-0.127
-0.138
-0.1435
-0.1465
-0.146
-0.1425
-0.146
-0.147
-0.146
-0.147
-0.148
-0.146
-0.1505
-0.1465
-0.1415
-0.145
-0.146
-0.159
-0.1665
-0.161
-0.1605
-0.161
-0.1635
-0.165
-0.1635
-0.17
-0.174
-0.1735
-0.1745
-0.176
-0.179
-0.186
-0.1915
-0.192
-0.1935
-0.204
-0.212
-0.206
-0.2055
-0.212
-0.2265
-0.227
-0.216
-0.216
-0.216
-0.2215
-0.22
-0.2165
-0.219
-0.225
-0.231
-0.229
-0.2255
-0.223
-0.225
-0.2245
-0.22
-0.22
-0.2205
-0.221
-0.2245
-0.226
-0.225
-0.2315
-0.2305
-0.2265
-0.235
-0.2385
-0.243
-0.2395
-0.236
-0.2455
-0.2345
-0.2245
-0.2285
-0.2355
-0.2425
-0.2405
-0.2405
-0.2305
-0.2265
-0.23
-0.214
-0.216
-0.2275
-0.234
-0.2385
-0.239
-0.2425
-0.242
-0.2415
-0.2405
-0.2355
-0.229
-0.2225
-0.2175
-0.2235
-0.239
-0.2485
-0.2395
-0.2285
-0.2375
-0.244
-0.2455
-0.242
-0.2405
-0.243
-0.2395
-0.2425
-0.243
-0.241
-0.2395
-0.2485
-0.2585
-0.2505
-0.254
-0.267
-0.273
-0.2875
-0.305
-0.319
-0.325
-0.33
-0.3425
-0.3355
-0.328
-0.3295
-0.3315
-0.336
-0.328
-0.3085
-0.29
-0.278
-0.2605
-0.2225
-0.1865
-0.156
-0.1085
-0.059
-0.0015
0.062
0.112
0.159
0.205
0.2555
0.3095
0.3615
0.4175
0.456
0.4835
0.5225
0.549
0.56
0.572
0.5715
0.5745
0.56
0.538
0.5365
0.523
0.507
0.4775
0.4385
0.3925
0.332
0.2625
0.191
0.12
0.0475
-0.0195
-0.0795
-0.133
-0.1635
-0.173
-0.187
-0.2045
-0.2145
-0.217
-0.2125
-0.2165
-0.226
-0.2255
-0.2265
-0.2235
-0.2205
-0.216
-0.213
-0.215
-0.2215
-0.225
-0.2205
-0.2175
-0.2155
-0.207
-0.197
-0.208
-0.211
-0.207
-0.214
-0.211
-0.211
-0.2135
-0.217
-0.2205
-0.2155
-0.2155
-0.2185
-0.2115
-0.211
-0.216
-0.216
-0.2165
-0.2225
-0.227
-0.2265
-0.2345
-0.228
-0.222
-0.2275
-0.225
-0.225
-0.2225
-0.2255
-0.2305
-0.225
-0.216
-0.2245
-0.226
-0.219
-0.2215
-0.211
-0.213
-0.2175
-0.213
-0.219
-0.219
-0.2185
-0.222
-0.216
-0.2105
-0.2195
-0.224
-0.2165
-0.212
-0.2105
-0.203
-0.192
-0.1945
-0.1955
-0.1915
-0.2015
-0.205
-0.2015
-0.203
-0.2055
-0.207
-0.205
-0.2025
-0.2015
-0.2045
-0.2055
-0.198
-0.1925
-0.1875
-0.1955
-0.21
-0.2055
-0.1935
-0.1945
-0.1875
-0.181
-0.1865
-0.182
-0.1835
-0.1825
-0.184
-0.192
-0.1885
-0.19
-0.193
-0.192
-0.1955
-0.1945
-0.1895
-0.1845
-0.184
-0.193
-0.191
-0.183
-0.179
-0.1745
-0.175
-0.1785
-0.1715
-0.1645
-0.168
-0.165
-0.1635
-0.164
-0.1635
-0.1685
-0.177
-0.18
-0.1655
-0.158
-0.1605
-0.161
-0.1635
-0.163
-0.1625
-0.161
-0.1605
-0.1595
-0.1585
-0.1575
-0.1575
-0.1625
-0.1565
-0.1535
-0.1555
-0.141
-0.1315
-0.1315
-0.127
-0.1255
-0.133
-0.1325
-0.126
-0.131
-0.138
-0.139
-0.1345
-0.125
-0.121
-0.1175
-0.119
-0.1195
-0.1105
-0.1065
-0.1005
-0.094
-0.0915
-0.08
-0.078
-0.0855
-0.085
-0.089
-0.0875
-0.0725
-0.069
-0.073
-0.072
-0.071
-0.0615
-0.0525
-0.052
-0.0445
-0.0435
-0.0475
-0.042
-0.0385
-0.036
-0.0335
-0.0285
-0.0215
-0.012
-0.012
-0.0165
-0.008
-0.002
0.0015
0.0025
0.0065
0.011
0.0115
0.0125
0.0115
0.014
0.0195
0.0265
0.0255
0.0195
0.0235
0.0335
0.0435
0.055
0.0635
0.062
0.06
0.0635
0.059
0.063
0.071
0.07
0.0705
0.0705
0.0675
0.0675
0.073
0.078
0.092
0.097
0.0815
0.0805
0.0915
0.087
0.0825
0.086
0.084
0.0795
0.0795
0.0805
0.0815
0.083
0.073
0.069
0.078
0.079
0.0695
0.052
0.054
0.0635
0.0635
0.0615
0.0495
0.046
0.042
0.0395
0.042
0.032
0.03
0.028
0.0175
0.0165
0.0205
0.004
-0.029
-0.031
-0.032
-0.0485
-0.0535
-0.0525
-0.051
-0.049
-0.055
-0.067
-0.0705
-0.076
-0.09
-0.097
-0.0985
-0.1015
-0.107
-0.114
-0.111
-0.1045
-0.1125
-0.1245
-0.1245
-0.125
-0.1295
-0.1295
-0.1325
-0.1405
-0.1475
-0.154
-0.155
-0.155
-0.1555
-0.1585
-0.164
-0.158
-0.1595
-0.1635
-0.168
-0.1685
-0.1685
-0.18
-0.1835
-0.1895
-0.1895
-0.183
-0.1865
-0.182
-0.169
-0.174
-0.18
-0.1795
-0.1865
-0.186
-0.179
-0.1755
-0.179
-0.1805
-0.186
-0.1925
-0.1955
-0.197
-0.197
-0.194
-0.1905
-0.182
-0.181
-0.194
-0.198
-0.198
-0.1975
-0.1955
-0.193
-0.196
-0.2
-0.199
-0.198
-0.2015
-0.2045
-0.1955
-0.192
-0.1945
-0.1955
-0.198
-0.1865
-0.185
-0.189
-0.189
-0.1975
-0.197
-0.1975
-0.2
-0.198
-0.196
-0.1985
-0.1955
-0.195
-0.199
-0.193
-0.196
-0.201
-0.201
-0.199
-0.2
-0.199
-0.191
-0.2005
-0.199
-0.19
-0.1925
-0.193
-0.1945
-0.1935
-0.1925
-0.196
-0.199
-0.193
-0.185
-0.1925
-0.205
-0.198
-0.193
-0.196
-0.1895
-0.191
-0.194
-0.1925
-0.1945
-0.19
-0.189
-0.1975
-0.197
-0.192
-0.1955
-0.198
-0.198
-0.2
-0.196
-0.19
-0.188
-0.197
-0.208
-0.2155
-0.2165
-0.202
-0.1845
-0.1835
-0.186
-0.186
-0.187
-0.1875
-0.192
-0.1905
-0.188
-0.2015
-0.2125
-0.2015
-0.185
-0.1785
-0.1805
-0.185
-0.1895
-0.194
-0.1885
-0.1825
-0.1865
-0.185
-0.1825
-0.1905
-0.195
-0.1925
-0.189
-0.1875
-0.185
-0.1805
-0.181
-0.1845
-0.1875
-0.189
-0.193
-0.1915
-0.187
-0.189
-0.1955
-0.2005
-0.2005
-0.2035
-0.203
-0.1985
-0.1955
-0.196
-0.1915
-0.187
-0.1955
-0.198
-0.197
-0.196
-0.196
-0.191
-0.187
-0.1885
-0.1895
-0.1945
-0.1925
-0.1915
-0.194
-0.198
-0.198
-0.1955
-0.203
-0.2045
-0.1935
-0.19
-0.195
-0.1965
-0.195
-0.1975
-0.199
-0.202
-0.201
-0.2015
-0.205
-0.198
-0.196
-0.2055
-0.208
-0.201
-0.202
-0.204
-0.2025
-0.204
-0.205
-0.201
-0.1975
-0.203
-0.212
-0.2085
-0.2035
-0.2025
-0.2015
-0.1925
-0.187
-0.191
-0.194
-0.1995
-0.2005
-0.195
-0.192
-0.1995
-0.2015
-0.2025
-0.1955
-0.1855
-0.196
-0.214
-0.222
-0.2175
-0.2175
-0.211
-0.1985
-0.1995
-0.2025
-0.2005
-0.206
-0.2135
-0.212
-0.212
-0.2085
-0.2035
-0.2075
-0.2085
-0.208
-0.2125
-0.2085
-0.199
-0.2005
-0.2105
-0.215
-0.216
-0.211
-0.2065
-0.201
-0.196
-0.2045
-0.203
-0.197
-0.195
-0.195
-0.1905
-0.189
-0.2005
-0.203
-0.1985
-0.1955
-0.195
-0.199
-0.1985
-0.1925
-0.1885
-0.186
-0.1875
-0.18
-0.175
-0.1735
-0.161
-0.156
-0.1535
-0.1495
-0.144
-0.1365
-0.1365
-0.139
-0.136
-0.1305
-0.1335
-0.1365
-0.1415
-0.1455
-0.144
-0.147
-0.142
-0.132
-0.1285
-0.13
-0.122
-0.115
-0.1155
-0.1125
-0.111
-0.1115
-0.1125
-0.106
-0.1075
-0.1125
-0.111
-0.113
-0.1125
-0.117
-0.1215
-0.1275
-0.1235
-0.11
-0.1035
-0.103
-0.1
-0.096
-0.098
-0.112
-0.123
-0.115
-0.1135
-0.12
-0.114
-0.099
-0.106
-0.1165
-0.1215
-0.128
-0.1275
-0.1305
-0.1295
-0.1345
-0.1395
-0.14
-0.141
-0.135
-0.127
-0.121
-0.1215
-0.1275
-0.1395
-0.1445
-0.15
-0.1625
-0.166
-0.1625
-0.163
-0.166
-0.172
-0.181
-0.1665
-0.161
-0.1715
-0.1695
-0.1705
-0.18
-0.186
-0.1795
-0.1835
-0.187
-0.188
-0.1925
-0.195
-0.206
-0.2025
-0.203
