ECG
-0.468
-0.49
-0.516
-0.5345
-0.5555
-0.574
-0.57
-0.5575
-0.5445
-0.545
-0.549
-0.5465
-0.54
-0.526
-0.5055
-0.4825
-0.469
-0.462
-0.4555
-0.4455
-0.4365
-0.43
-0.427
-0.419
-0.411
-0.4155
-0.4165
-0.4225
-0.43
-0.4285
-0.431
-0.435
-0.438
-0.434
-0.437
-0.433
-0.4275
-0.437
-0.432
-0.428
-0.428
-0.427
-0.4295
-0.431
-0.433
-0.437
-0.4365
-0.436
-0.437
-0.432
-0.433
-0.438
-0.443
-0.4445
-0.441
-0.4375
-0.4385
-0.443
-0.4365
-0.437
-0.445
-0.446
-0.4475
-0.443
-0.434
-0.4305
-0.4335
-0.441
-0.44
-0.4325
-0.4295
-0.431
-0.4325
-0.4285
-0.426
-0.424
-0.426
-0.424
-0.422
-0.4265
-0.423
-0.4235
-0.422
-0.4195
-0.4235
-0.423
-0.424
-0.428
-0.4265
-0.4215
-0.4155
-0.4095
-0.412
-0.4125
-0.415
-0.4155
-0.413
-0.4135
-0.4165
-0.4275
-0.427
-0.4215
-0.415
-0.412
-0.4155
-0.414
-0.414
-0.4145
-0.4145
-0.416
-0.415
-0.4115
-0.409
-0.4065
-0.4065
-0.405
-0.4085
-0.411
-0.411
-0.423
-0.433
-0.4245
-0.4095
-0.394
-0.382
-0.387
-0.39
-0.39
-0.3935
-0.39
-0.384
-0.3775
-0.3745
-0.372
-0.378
-0.386
-0.385
-0.378
-0.374
-0.375
-0.3715
-0.369
-0.3685
-0.371
-0.371
-0.363
-0.359
-0.359
-0.358
-0.3525
-0.3505
-0.3545
-0.356
-0.357
-0.353
-0.348
-0.348
-0.3485
-0.3475
-0.3395
-0.335
-0.33
-0.3275
-0.326
-0.323
-0.3295
-0.3305
-0.326
-0.3215
-0.314
-0.309
-0.313
-0.311
-0.3055
-0.3035
-0.292
-0.294
-0.301
-0.3005
-0.3065
-0.3015
-0.2945
-0.293
-0.2865
-0.285
-0.2875
-0.2855
-0.2865
-0.2835
-0.2745
-0.268
-0.269
-0.267
-0.2575
-0.2575
-0.2605
-0.2575
-0.258
-0.257
-0.2505
-0.2545
-0.261
-0.252
-0.2515
-0.251
-0.245
-0.245
-0.24
-0.2355
-0.239
-0.245
-0.2505
-0.2525
-0.2465
-0.2355
-0.233
-0.237
-0.2385
-0.2405
-0.2425
-0.2455
-0.246
-0.243
-0.242
-0.2385
-0.2325
-0.232
-0.241
-0.254
-0.2515
-0.2415
-0.2365
-0.24
-0.2475
-0.2535
-0.263
-0.2655
-0.2665
-0.273
-0.2695
-0.265
-0.273
-0.281
-0.2875
-0.2925
-0.2975
-0.3
-0.297
-0.3035
-0.3085
-0.3165
-0.3205
-0.321
-0.327
-0.3365
-0.347
-0.3445
-0.3365
-0.3315
-0.342
-0.3535
-0.3555
-0.359
-0.36
-0.3665
-0.372
-0.3775
-0.384
-0.3885
-0.3925
-0.394
-0.397
-0.404
-0.415
-0.418
-0.419
-0.4185
-0.416
-0.422
-0.4225
-0.4275
-0.4325
-0.431
-0.43
-0.4285
-0.4315
-0.428
-0.425
-0.4225
-0.424
-0.428
-0.4255
-0.433
-0.438
-0.4335
-0.4305
-0.431
-0.4285
-0.426
-0.43
-0.4285
-0.423
-0.423
-0.43
-0.4275
-0.4245
-0.433
-0.434
-0.4355
-0.436
-0.43
-0.4315
-0.428
-0.424
-0.428
-0.436
-0.446
-0.4415
-0.4355
-0.4335
-0.4245
-0.425
-0.4305
-0.429
-0.423
-0.42
-0.4255
-0.4235
-0.4215
-0.4205
-0.4165
-0.42
-0.4185
-0.4125
-0.4115
-0.413
-0.416
-0.416
-0.416
-0.419
-0.421
-0.4195
-0.4165
-0.413
-0.4055
-0.409
-0.416
-0.4125
-0.4095
-0.412
-0.4205
-0.417
-0.4125
-0.4175
-0.4195
-0.4185
-0.4185
-0.423
-0.4245
-0.4285
-0.4325
-0.43
-0.425
-0.422
-0.433
-0.4415
-0.4345
-0.417
-0.399
-0.403
-0.409
-0.4055
-0.408
-0.4115
-0.4115
-0.409
-0.409
-0.407
-0.407
-0.409
-0.41
-0.411
-0.4165
-0.427
-0.422
-0.414
-0.4165
-0.4195
-0.4195
-0.4185
-0.424
-0.4335
-0.4335
-0.432
-0.432
-0.4315
-0.427
-0.422
-0.424
-0.426
-0.4275
-0.4275
-0.4255
-0.422
-0.423
-0.424
-0.422
-0.4235
-0.4255
-0.42
-0.4155
-0.413
-0.4135
-0.416
-0.4155
-0.42
-0.4225
-0.4225
-0.423
-0.418
-0.4155
-0.4215
-0.4255
-0.431
-0.436
-0.437
-0.44
-0.445
-0.4435
-0.442
-0.445
-0.445
-0.444
-0.447
-0.451
-0.452
-0.45
-0.4405
-0.4405
-0.4415
-0.4395
-0.4445
-0.4455
-0.443
-0.4395
-0.4425
-0.4435
-0.4445
-0.4445
-0.4425
-0.442
-0.442
-0.4395
-0.434
-0.4355
-0.437
-0.432
-0.425
-0.423
-0.4275
-0.4355
-0.445
-0.444
-0.4375
-0.4355
-0.435
-0.4355
-0.428
-0.423
-0.422
-0.4255
-0.431
-0.434
-0.4335
-0.4365
-0.443
-0.437
-0.429
-0.422
-0.423
-0.4265
-0.4255
-0.426
-0.4245
-0.4215
-0.419
-0.4235
-0.4265
-0.427
-0.4315
-0.43
-0.433
-0.443
-0.443
-0.4455
-0.45
-0.446
-0.4405
-0.438
-0.4415
-0.445
-0.4435
-0.444
-0.441
-0.438
-0.444
-0.4455
-0.4445
-0.439
-0.4355
-0.443
-0.444
-0.4435
-0.4385
-0.4355
-0.4335
-0.4285
-0.4335
-0.4355
-0.433
-0.4345
-0.437
-0.435
-0.4365
-0.4415
-0.4435
-0.439
-0.435
-0.4355
-0.4325
-0.434
-0.439
-0.437
-0.438
-0.443
-0.444
-0.4455
-0.451
-0.4515
-0.45
-0.455
-0.4515
-0.4445
-0.4425
-0.4405
-0.4505
-0.4565
-0.45
-0.4515
-0.4505
-0.4455
-0.45
-0.451
-0.446
-0.445
-0.4435
-0.443
-0.441
-0.4445
-0.453
-0.4525
-0.446
-0.4465
-0.4475
-0.444
-0.4455
-0.446
-0.4435
-0.4395
-0.44
-0.4465
-0.4495
-0.451
-0.461
-0.465
-0.4685
-0.473
-0.467
-0.4655
-0.4685
-0.4615
-0.452
-0.4485
-0.451
-0.459
-0.4635
-0.464
-0.463
-0.462
-0.4635
-0.4615
-0.464
-0.4675
-0.457
-0.451
-0.451
-0.4495
-0.4525
-0.4515
-0.451
-0.455
-0.454
-0.451
-0.4445
-0.44
-0.4385
-0.4335
-0.429
-0.431
-0.4405
-0.436
-0.435
-0.45
-0.458
-0.453
-0.4475
-0.44
-0.4365
-0.4415
-0.4415
-0.4445
-0.4415
-0.444
-0.4495
-0.45
-0.4475
-0.4315
-0.432
-0.448
-0.4465
-0.4415
-0.447
-0.446
-0.4515
-0.456
-0.454
-0.459
-0.458
-0.4595
-0.4635
-0.463
-0.467
-0.4705
-0.4685
-0.4655
-0.4675
-0.4725
-0.4735
-0.474
-0.4725
-0.47
-0.4725
-0.4735
-0.4735
-0.4745
-0.467
-0.468
-0.4685
-0.467
-0.4745
-0.4655
-0.462
-0.461
-0.461
-0.466
-0.4655
-0.469
-0.466
-0.4625
-0.464
-0.466
-0.463
-0.462
-0.4665
-0.471
-0.4775
-0.4755
-0.4725
-0.474
-0.476
-0.473
-0.465
-0.4585
-0.452
-0.453
-0.463
-0.4595
-0.452
-0.454
-0.454
-0.459
-0.4585
-0.451
-0.453
-0.457
-0.458
-0.455
-0.45
-0.4455
-0.445
-0.446
-0.4435
-0.4445
-0.446
-0.449
-0.448
-0.442
-0.442
-0.4465
-0.45
-0.447
-0.4405
-0.4395
-0.4395
-0.4355
-0.4355
-0.4335
-0.4345
-0.4395
-0.439
-0.442
-0.444
-0.4425
-0.442
-0.4355
-0.433
-0.4355
-0.435
-0.439
-0.442
-0.439
-0.4375
-0.432
-0.428
-0.4315
-0.431
-0.427
-0.4285
-0.4265
-0.4205
-0.418
-0.4235
-0.432
-0.428
-0.4245
-0.422
-0.4175
-0.418
-0.427
-0.4295
-0.4165
-0.4185
-0.4195
-0.4215
-0.424
-0.4255
-0.4315
-0.4285
-0.4325
-0.429
-0.4255
-0.4255
-0.4125
-0.4015
-0.4015
-0.398
-0.389
-0.391
-0.392
-0.389
-0.389
-0.387
-0.3915
-0.3945
-0.3945
-0.4035
-0.41
-0.413
-0.416
-0.4245
-0.426
-0.4275
-0.437
-0.4345
-0.4395
-0.447
-0.442
-0.4335
-0.4355
-0.445
-0.449
-0.4525
-0.453
-0.4555
-0.4595
-0.463
-0.4605
-0.459
-0.465
-0.468
-0.4655
-0.4625
-0.461
-0.459
-0.4595
-0.457
-0.453
-0.455
-0.463
-0.464
-0.4565
-0.455
-0.4555
-0.457
-0.46
-0.458
-0.4565
-0.4605
-0.4595
-0.459
-0.4605
-0.457
-0.4555
-0.4605
-0.467
-0.468
-0.4645
-0.46
-0.457
-0.461
-0.462
-0.461
-0.4595
-0.4605
-0.4605
-0.4565
-0.4575
-0.457
-0.461
-0.467
-0.4665
-0.4645
-0.4605
-0.463
-0.4705
-0.474
-0.4725
-0.467
-0.4655
-0.465
-0.458
-0.4565
-0.4605
-0.469
-0.4705
-0.465
-0.47
-0.4755
-0.4815
-0.4795
-0.4765
-0.4835
-0.4845
-0.4845
-0.483
-0.4825
-0.481
-0.477
-0.48
-0.4775
-0.472
-0.4665
-0.4515
-0.4345
-0.4215
-0.408
-0.3885
-0.373
-0.3575
-0.3435
-0.337
-0.326
-0.3115
-0.292
-0.276
-0.2595
-0.235
-0.2075
-0.1915
-0.1795
-0.1545
-0.128
-0.111
-0.1
-0.0905
-0.0875
-0.0905
-0.0955
-0.111
-0.128
-0.1565
-0.1985
-0.2275
-0.2495
-0.2715
-0.299
-0.3325
-0.3625
-0.3855
-0.405
-0.432
-0.46
-0.4835
-0.5005
-0.515
-0.5305
-0.534
-0.527
-0.518
-0.518
-0.519
-0.519
-0.51
-0.494
-0.4825
-0.4665
-0.4525
-0.4435
-0.428
-0.414
-0.41
-0.4095
-0.402
-0.3895
-0.3905
-0.399
-0.4025
-0.4095
-0.422
-0.4235
-0.4225
-0.426
-0.431
-0.4315
-0.4285
-0.434
-0.438
-0.435
-0.432
-0.4315
-0.438
-0.4405
-0.44
-0.4465
-0.4465
-0.448
-0.45
-0.4555
-0.4585
-0.45
-0.4465
-0.4425
-0.4385
-0.4375
-0.4425
-0.45
-0.4485
-0.449
-0.4505
-0.4475
-0.45
-0.4505
-0.448
-0.4505
-0.454
-0.458
-0.4635
-0.461
-0.4565
-0.4605
-0.4575
-0.4625
-0.4665
-0.4595
-0.4565
-0.4585
-0.455
-0.446
-0.4445
-0.441
-0.439
-0.442
-0.4445
-0.4415
-0.4395
-0.4445
-0.4505
-0.4505
-0.446
-0.4445
-0.4475
-0.45
-0.448
-0.439
-0.428
-0.424
-0.4245
-0.4215
-0.422
-0.43
-0.426
-0.421
-0.42
-0.4175
-0.421
-0.4245
-0.427
-0.4245
-0.423
-0.4265
-0.4315
-0.4315
-0.4265
-0.4185
-0.4105
-0.417
-0.422
-0.4135
-0.408
-0.4085
-0.4125
-0.42
-0.4125
-0.4015
-0.392
-0.3845
-0.3905
-0.3965
-0.4005
-0.398
-0.3975
-0.398
-0.399
-0.405
-0.3985
-0.389
-0.3875
-0.3895
-0.3935
-0.388
-0.382
-0.3815
-0.3805
-0.3855
-0.3895
-0.39
-0.388
-0.384
-0.383
-0.38
-0.376
-0.377
-0.3735
-0.373
-0.375
-0.3615
-0.3575
-0.3585
-0.3555
-0.3545
-0.3505
-0.3475
-0.344
-0.3435
-0.3455
-0.346
-0.3395
-0.331
-0.321
-0.3215
-0.3245
-0.321
-0.323
-0.324
-0.3215
-0.3125
-0.3135
-0.31
-0.2975
-0.2985
-0.296
-0.2905
-0.2875
-0.2915
-0.293
-0.281
-0.279
-0.2805
-0.271
-0.27
-0.274
-0.274
-0.269
-0.268
-0.2715
-0.277
-0.275
-0.2665
-0.2635
-0.261
-0.26
-0.258
-0.2535
-0.2515
-0.2555
-0.254
-0.2525
-0.2485
-0.2455
-0.245
-0.238
-0.2345
-0.232
-0.234
-0.2335
-0.231
-0.235
-0.2325
-0.2305
-0.2265
-0.232
-0.242
-0.2375
-0.2305
-0.224
-0.2205
-0.222
-0.225
-0.2305
-0.2325
-0.2295
-0.232
-0.2435
-0.2465
-0.2405
-0.2385
-0.24
-0.251
-0.255
-0.2535
-0.256
-0.2585
-0.256
-0.25
-0.259
-0.2645
-0.272
-0.284
-0.2875
-0.2905
-0.293
-0.299
-0.304
-0.3105
-0.318
-0.324
-0.33
-0.3365
-0.3425
-0.349
-0.357
-0.357
-0.3625
-0.3685
-0.3725
-0.379
-0.3815
-0.3845
-0.3875
-0.391
-0.394
-0.401
-0.402
-0.405
-0.413
-0.4145
-0.417
-0.4155
-0.421
-0.4245
-0.425
-0.4345
-0.436
-0.4375
-0.4385
-0.441
-0.443
-0.4385
-0.441
-0.441
-0.44
-0.4385
-0.433
-0.432
-0.432
-0.439
-0.4415
-0.436
-0.4435
-0.452
-0.455
-0.457
-0.4535
-0.448
-0.447
-0.4545
-0.4565
-0.4565
-0.457
-0.4515
-0.4495
-0.45
-0.445
-0.448
-0.452
-0.448
-0.4515
-0.45
-0.447
-0.4495
-0.455
-0.463
-0.4595
-0.4595
-0.459
-0.4565
-0.457
-0.4555
-0.458
-0.462
-0.463
-0.4605
-0.4595
-0.4525
-0.448
-0.452
-0.447
-0.438
-0.429
-0.429
-0.436
-0.437
-0.441
-0.4405
-0.4395
-0.4435
-0.441
-0.4395
-0.44
-0.438
-0.435
-0.437
-0.4315
-0.429
-0.4335
-0.4315
-0.4345
-0.4305
-0.4295
-0.437
-0.4355
-0.4385
-0.4455
-0.444
-0.4385
-0.4385
-0.436
-0.438
-0.441
-0.4385
-0.429
-0.421
-0.427
-0.4305
-0.4315
-0.4365
-0.4365
-0.43
-0.429
-0.4335
-0.429
-0.4265
-0.4325
-0.4335
-0.4325
-0.4365
-0.435
-0.434
-0.435
-0.4375
-0.443
-0.434
-0.432
-0.4395
-0.436
-0.4415
-0.4435
-0.4355
-0.439
-0.4375
-0.434
-0.443
-0.445
-0.4285
-0.4275
-0.4325
-0.4265
-0.4335
-0.4375
-0.4415
-0.4375
-0.4355
-0.4395
-0.434
-0.439
-0.4355
-0.4315
-0.43
-0.4305
-0.4355
-0.432
-0.427
-0.426
-0.431
-0.4305
-0.4345
-0.4335
-0.4345
-0.44
-0.438
-0.439
-0.44
-0.4435
-0.442
-0.437
-0.437
-0.4405
-0.441
-0.4335
-0.4235
-0.4245
-0.4285
-0.433
-0.4435
-0.447
-0.442
-0.4375
-0.4375
-0.441
-0.4465
-0.445
-0.4415
-0.442
-0.448
-0.446
-0.446
-0.4525
-0.4505
-0.447
-0.4425
-0.446
-0.448
-0.448
-0.4475
-0.445
-0.4475
-0.4455
-0.4455
-0.4485
-0.459
-0.459
-0.4445
-0.4395
-0.441
-0.444
-0.449
-0.449
-0.442
-0.4445
-0.4495
-0.4485
-0.4405
-0.4405
-0.4475
-0.4475
-0.448
-0.4425
-0.4405
-0.446
-0.443
-0.441
-0.441
-0.4445
-0.4485
-0.4465
-0.446
-0.4375
-0.437
-0.439
-0.4435
-0.4415
-0.433
-0.4265
-0.42
-0.4265
-0.429
-0.4315
-0.442
-0.4475
-0.4435
-0.4435
-0.4465
-0.444
-0.438
-0.437
-0.438
-0.436
-0.4395
-0.4415
-0.438
-0.436
-0.4355
-0.4395
-0.4375
-0.4335
-0.4375
-0.4415
-0.4455
-0.441
-0.4415
-0.4405
-0.4365
-0.433
-0.4265
-0.432
-0.4335
-0.433
-0.4325
-0.4295
-0.434
-0.4395
-0.4425
-0.438
-0.433
-0.438
-0.4375
-0.4415
-0.446
-0.4415
-0.4405
-0.4375
-0.4375
-0.444
-0.4485
-0.45
-0.4455
-0.4385
-0.434
-0.439
-0.4475
-0.4395
-0.4385
-0.449
-0.452
-0.4575
-0.456
-0.443
-0.4355
-0.4355
-0.436
-0.4395
-0.443
-0.442
-0.4415
-0.4405
-0.441
-0.449
-0.4505
-0.4465
-0.4435
-0.438
-0.4415
-0.445
-0.4465
-0.452
-0.4465
-0.4375
-0.441
-0.45
-0.4515
-0.4505
-0.4545
-0.452
-0.4515
-0.457
-0.452
-0.4475
-0.4505
-0.4525
-0.45
-0.4515
-0.45
-0.4445
-0.45
-0.4485
-0.454
-0.4595
-0.45
-0.4485
-0.454
-0.462
-0.462
-0.4695
-0.467
-0.452
-0.4595
-0.46
-0.455
-0.4565
-0.451
-0.4505
-0.457
-0.462
-0.466
-0.4655
-0.4565
-0.4535
-0.454
-0.4545
-0.456
-0.4565
-0.4535
-0.4475
-0.443
-0.446
-0.4525
-0.452
-0.4495
-0.448
-0.441
-0.44
-0.44
-0.435
-0.435
-0.4355
-0.44
-0.4465
-0.4475
-0.443
-0.439
-0.434
-0.4285
-0.4355
-0.443
-0.4435
-0.435
-0.426
-0.4205
-0.4265
-0.43
-0.428
-0.43
-0.4235
-0.4205
-0.4195
-0.4205
-0.425
-0.429
-0.4305
-0.428
-0.4245
-0.4245
-0.4325
-0.4355
-0.4315
-0.435
-0.433
-0.4395
-0.446
-0.4365
-0.4325
-0.435
-0.436
-0.433
-0.431
-0.427
-0.4255
-0.428
-0.425
-0.425
-0.429
-0.431
-0.434
-0.435
-0.433
-0.4305
-0.432
-0.437
-0.436
-0.4395
-0.441
-0.4385
-0.442
-0.445
-0.4475
-0.439
-0.4305
-0.4315
-0.434
-0.439
-0.4365
-0.435
-0.4315
-0.4295
-0.4345
-0.435
-0.4375
-0.4385
-0.4345
-0.43
-0.427
-0.4275
-0.4255
-0.424
-0.425
-0.4235
-0.4255
-0.423
-0.4205
-0.4285
-0.4295
-0.4255
-0.428
-0.43
-0.4265
-0.426
-0.425
-0.4265
-0.4235
-0.42
-0.423
-0.4205
-0.419
-0.4265
-0.4365
-0.4345
-0.432
-0.4325
-0.4265
-0.419
-0.407
-0.4005
-0.4065
-0.4095
-0.406
-0.4035
-0.399
-0.4
-0.402
-0.3935
-0.3905
-0.3945
-0.393
-0.389
-0.392
-0.3925
-0.395
-0.404
-0.397
-0.389
-0.389
-0.3855
-0.389
-0.3895
-0.3845
-0.378
-0.369
-0.3715
-0.3675
-0.366
-0.372
-0.3725
-0.3825
-0.384
-0.3735
-0.377
-0.378
-0.3795
-0.385
-0.3905
-0.3935
-0.3995
-0.416
-0.4225
-0.4285
-0.4285
-0.4315
-0.4355
-0.437
-0.439
-0.435
-0.4375
-0.4375
-0.4405
-0.4475
-0.4455
-0.447
-0.4475
-0.4425
-0.447
-0.4515
-0.4525
-0.45
-0.4495
-0.4505
-0.444
-0.4525
-0.457
-0.4525
-0.455
-0.45
-0.452
-0.4585
-0.452
-0.4505
-0.4545
-0.449
-0.447
-0.449
-0.453
-0.46
-0.456
-0.4405
-0.427
-0.4275
-0.4305
-0.4385
-0.444
-0.447
-0.4545
-0.4525
-0.4565
-0.4595
-0.4625
-0.4675
-0.466
-0.459
-0.449
-0.45
-0.4535
-0.453
-0.4515
-0.4485
-0.451
-0.46
-0.459
-0.4595
-0.4615
-0.4655
-0.4655
-0.4605
-0.4615
-0.459
-0.461
-0.4555
-0.454
-0.465
-0.4645
-0.4695
-0.474
-0.466
-0.4635
-0.4675
-0.468
-0.4675
-0.4725
-0.4735
-0.469
-0.467
-0.469
-0.465
-0.46
-0.452
-0.4475
-0.439
-0.4185
-0.406
-0.3905
-0.3715
-0.3555
-0.345
-0.335
-0.317
-0.295
-0.279
-0.273
-0.2605
-0.239
-0.208
-0.182
-0.159
-0.144
-0.129
-0.1025
-0.0965
-0.0895
-0.0765
-0.067
-0.063
-0.0695
-0.082
-0.0965
-0.123
-0.154
-0.179
-0.212
-0.234
-0.2625
-0.296
-0.3255
-0.344
-0.3665
-0.402
-0.409
-0.4285
-0.457
-0.481
-0.5025
-0.5015
-0.4975
-0.4895
-0.493
-0.5025
-0.5025
-0.499
-0.48
-0.4555
-0.4345
-0.4205
-0.418
-0.404
-0.384
-0.3825
-0.378
-0.3665
-0.363
-0.3565
-0.365
-0.3635
-0.3555
-0.369
-0.376
-0.38
-0.3835
-0.3925
-0.3995
-0.3965
-0.4025
-0.41
-0.4135
-0.412
-0.4075
-0.4175
-0.424
-0.4215
-0.423
-0.422
-0.426
-0.431
-0.4355
-0.434
-0.43
-0.4245
-0.4135
-0.408
-0.4135
-0.427
-0.43
-0.432
-0.4315
-0.4285
-0.4365
-0.4355
-0.4305
-0.433
-0.4365
-0.4345
-0.4345
-0.445
-0.4515
-0.4505
-0.4485
-0.45
-0.4505
-0.451
-0.4485
-0.4415
-0.4445
-0.448
-0.4475
-0.4435
-0.44
-0.4385
-0.4415
-0.444
-0.4415
-0.4415
-0.4405
-0.444
-0.442
-0.441
-0.439
-0.437
-0.434
-0.4345
-0.443
-0.435
-0.43
-0.4275
-0.4225
-0.4295
-0.4305
-0.4235
-0.4195
-0.4235
-0.4255
-0.4195
-0.4215
-0.4215
-0.42
-0.425
-0.427
-0.4285
-0.43
-0.428
-0.4315
-0.434
-0.428
-0.43
-0.434
-0.4285
-0.425
-0.4225
-0.415
-0.4115
-0.4125
-0.4145
-0.4155
-0.4175
-0.4195
-0.417
-0.4125
-0.4155
-0.4215
-0.4165
-0.408
-0.4095
-0.41
-0.4075
-0.4065
-0.3975
-0.389
-0.3935
-0.394
-0.392
-0.4
-0.396
-0.388
-0.396
-0.394
-0.3855
-0.3865
-0.389
-0.385
-0.381
-0.38
-0.379
-0.382
-0.38
-0.376
-0.383
-0.3845
-0.379
-0.3745
-0.375
-0.378
-0.372
-0.3715
-0.377
-0.375
-0.367
-0.366
-0.37
-0.3625
-0.3485
-0.3435
-0.343
-0.338
-0.3355
-0.337
-0.336
-0.342
-0.3365
-0.319
-0.319
-0.3225
-0.3185
-0.318
-0.3215
-0.317
-0.3085
-0.302
-0.295
-0.292
-0.2885
-0.285
-0.2865
-0.281
-0.2695
-0.2725
-0.272
-0.271
-0.2835
-0.2795
-0.2685
-0.267
-0.268
-0.2645
-0.258
-0.258
-0.26
-0.2605
-0.2665
-0.2625
-0.2585
-0.259
-0.257
-0.2575
-0.248
-0.2475
-0.259
-0.257
-0.258
-0.2595
-0.2515
-0.245
-0.2405
-0.245
-0.2535
-0.256
-0.2605
-0.2665
-0.264
-0.261
-0.2615
-0.252
-0.255
-0.267
-0.271
-0.2705
-0.2715
-0.274
-0.278
-0.2825
-0.2855
-0.2905
-0.2915
-0.2985
-0.308
-0.314
-0.328
-0.328
-0.3245
-0.333
-0.3365
-0.3415
-0.3505
-0.3555
-0.3585
-0.3635
-0.3665
-0.366
-0.371
-0.377
-0.3785
-0.382
-0.3895
-0.3925
-0.389
-0.3855
-0.3875
-0.394
-0.3945
-0.3975
-0.404
-0.406
-0.41
-0.4125
-0.4185
-0.425
-0.4265
-0.4315
-0.432
-0.4305
-0.428
-0.4335
-0.437
-0.4335
-0.441
-0.442
-0.4415
-0.442
-0.449
-0.4475
-0.4355
-0.443
-0.442
-0.443
-0.45
-0.4505
-0.451
-0.4455
-0.442
-0.4465
-0.4485
-0.453
-0.4605
-0.4535
-0.4505
-0.452
-0.447
-0.4525
-0.4515
-0.448
-0.4565
-0.453
-0.4545
-0.458
-0.4525
-0.458
-0.46
-0.4575
-0.4555
-0.4505
-0.4515
-0.4535
-0.447
-0.445
-0.444
-0.433
-0.4305
-0.4345
-0.438
-0.443
-0.4435
-0.44
-0.436
-0.4425
-0.4475
-0.4355
-0.43
-0.434
-0.437
-0.4455
-0.4465
-0.437
-0.4415
-0.443
-0.438
-0.4345
-0.4345
-0.427
-0.414
-0.4255
-0.4305
-0.427
-0.4285
-0.4345
-0.4335
-0.419
-0.419
-0.421
-0.425
-0.4315
-0.4355
-0.434
-0.4295
-0.432
-0.426
-0.431
-0.434
-0.424
-0.425
-0.428
-0.4245
-0.419
-0.4245
-0.4295
-0.429
-0.4285
-0.4265
-0.4255
-0.4265
-0.425
-0.4245
-0.421
-0.4185
-0.424
-0.4185
-0.418
-0.4185
-0.416
-0.423
-0.4245
-0.419
-0.4155
-0.4165
-0.416
-0.418
-0.424
-0.4225
-0.424
-0.429
-0.4265
-0.4215
-0.412
-0.4035
-0.4055
-0.41
-0.413
-0.407
-0.4055
-0.4095
-0.412
-0.4185
-0.418
-0.4115
-0.4155
-0.4215
-0.4195
-0.4215
-0.422
-0.42
-0.4195
-0.422
-0.422
-0.424
-0.422
-0.4175
-0.4215
-0.42
-0.423
-0.4215
-0.413
-0.4115
-0.406
-0.405
-0.4105
-0.406
-0.4025
-0.4065
-0.4085
-0.407
-0.4065
-0.412
-0.4155
-0.4085
-0.4055
-0.415
-0.4115
-0.411
-0.4165
-0.4065
-0.4015
-0.4035
-0.407
-0.4095
-0.4115
-0.41
-0.4105
-0.4085
-0.402
-0.4025
-0.4
-0.402
-0.4035
-0.408
-0.413
-0.407
-0.406
-0.406
-0.4085
-0.411
-0.413
-0.4095
-0.404
-0.413
-0.416
-0.416
-0.419
-0.416
-0.417
-0.4155
-0.4155
-0.417
-0.411
-0.4125
-0.415
-0.417
-0.423
-0.424
-0.425
-0.4215
-0.42
-0.4215
-0.4205
-0.4255
-0.4265
-0.424
-0.4285
-0.4355
-0.4335
-0.426
-0.426
-0.421
-0.417
-0.418
-0.4175
-0.4175
-0.412
-0.414
-0.4205
-0.421
-0.419
-0.416
-0.4155
-0.416
-0.417
-0.418
-0.4175
-0.416
-0.4185
-0.421
-0.42
-0.425
-0.43
-0.4175
-0.4045
-0.411
-0.411
-0.4125
-0.4205
-0.42
-0.4205
-0.4135
-0.409
-0.412
-0.4145
-0.415
-0.4165
-0.412
-0.4035
-0.403
-0.4015
-0.4075
-0.4145
-0.408
-0.4035
-0.4145
-0.415
-0.4055
-0.408
-0.4085
-0.409
-0.4085
-0.4095
-0.412
-0.4085
-0.4085
-0.409
-0.417
-0.421
-0.4165
-0.423
-0.425
-0.412
-0.4055
-0.408
-0.409
-0.414
-0.418
-0.421
-0.421
-0.4145
-0.4085
-0.416
-0.4205
-0.4175
-0.42
-0.417
-0.4175
-0.415
-0.4135
-0.413
-0.4145
-0.417
-0.411
-0.4165
-0.4235
-0.4285
-0.425
-0.4225
-0.4255
-0.4185
-0.409
-0.407
-0.409
-0.406
-0.396
-0.3905
-0.3925
-0.393
-0.3905
-0.393
-0.3995
-0.3955
-0.393
-0.3985
-0.3995
-0.402
-0.404
-0.403
-0.405
-0.4055
-0.408
-0.408
-0.4075
-0.4055
-0.4015
-0.407
-0.412
-0.4115
-0.405
-0.405
-0.411
-0.4035
-0.4005
-0.409
-0.4115
-0.4165
-0.421
-0.412
-0.4095
-0.4125
-0.4145
-0.417
-0.4185
-0.4195
-0.4185
-0.4145
-0.418
-0.4245
-0.423
-0.4225
-0.4265
-0.4295
-0.43
-0.4265
-0.422
-0.42
-0.4215
-0.4175
-0.423
-0.432
-0.4295
-0.423
-0.4215
-0.429
-0.4285
-0.427
-0.4295
-0.428
-0.422
-0.4175
-0.4185
-0.418
-0.419
-0.427
-0.429
-0.4235
-0.422
-0.4245
-0.425
-0.419
-0.4155
-0.4155
-0.417
-0.4145
-0.415
-0.414
-0.415
-0.425
-0.419
-0.412
-0.415
-0.4175
-0.4155
-0.411
-0.4095
-0.415
-0.42
-0.4125
-0.4065
-0.406
-0.4105
-0.42
-0.426
-0.4285
-0.427
-0.4205
-0.404
-0.3905
-0.3945
-0.402
-0.412
-0.4185
-0.4135
-0.405
-0.4105
-0.4155
-0.412
-0.4105
-0.4115
-0.418
-0.4155
-0.4125
-0.422
-0.4275
-0.4225
-0.4195
-0.41
-0.406
-0.413
-0.4135
-0.415
-0.412
-0.4065
-0.404
-0.4035
-0.404
-0.4015
-0.4035
-0.4095
-0.4125
-0.416
-0.418
-0.415
-0.4115
-0.4055
-0.4045
-0.41
-0.4065
-0.408
-0.412
-0.4065
-0.407
-0.4115
-0.41
-0.4055
-0.4105
-0.4115
-0.408
-0.41
-0.4085
-0.4075
-0.4125
-0.413
-0.4065
-0.403
-0.404
-0.4
-0.3975
-0.392
-0.385
-0.382
-0.383
-0.3875
-0.391
-0.3965
-0.3955
-0.395
-0.402
-0.399
-0.3895
-0.3825
-0.3765
-0.3755
-0.3725
-0.373
-0.378
-0.374
-0.37
-0.3665
-0.3645
-0.363
-0.3615
-0.372
-0.371
-0.366
-0.3725
-0.3775
-0.379
-0.387
-0.393
-0.3915
-0.393
-0.3955
-0.3975
-0.409
-0.4095
-0.409
-0.418
-0.4265
-0.437
-0.431
-0.4305
-0.4225
-0.4155
-0.4285
-0.4295
-0.43
-0.4365
-0.4355
-0.428
-0.4265
-0.4275
-0.432
-0.433
-0.4245
-0.4175
-0.4185
-0.425
-0.4245
-0.4195
-0.42
-0.421
-0.42
-0.425
-0.427
-0.423
-0.4265
-0.4305
-0.4305
-0.431
-0.4295
-0.4285
-0.4335
-0.4315
-0.433
-0.4335
-0.425
-0.426
-0.4325
-0.4405
-0.4435
-0.439
-0.433
-0.4355
-0.438
-0.4355
-0.4315
-0.4285
-0.4295
-0.428
-0.4315
-0.433
-0.431
-0.429
-0.426
-0.4305
-0.436
-0.435
-0.4305
-0.4305
-0.4345
-0.436
-0.436
-0.439
-0.442
-0.4415
-0.445
-0.448
-0.4565
-0.462
-0.46
-0.455
-0.4555
-0.4625
-0.462
-0.4635
-0.461
-0.46
-0.458
-0.4515
-0.451
-0.451
-0.44
-0.426
-0.4155
-0.3975
-0.3815
-0.3645
-0.346
-0.334
-0.3175
-0.3
-0.2835
-0.2685
-0.256
-0.2485
-0.229
-0.199
-0.1785
-0.163
-0.145
-0.116
-0.096
-0.0865
-0.0695
-0.0555
-0.0535
-0.058
-0.069
-0.0755
-0.076
-0.114
-0.1555
-0.1755
-0.2015
-0.2245
-0.255
-0.2975
-0.3365
-0.3555
-0.3735
-0.4005
-0.426
-0.448
-0.466
-0.495
-0.5095
-0.5145
-0.517
-0.509
-0.508
-0.5065
-0.505
-0.4985
-0.484
-0.472
-0.454
-0.427
-0.4125
-0.4075
-0.397
-0.389
-0.3865
-0.3805
-0.3725
-0.371
-0.3765
-0.38
-0.3805
-0.3795
-0.385
-0.397
-0.3935
-0.392
-0.3945
-0.402
-0.4085
-0.412
-0.417
-0.4175
-0.4255
-0.4255
-0.4315
-0.4375
-0.4355
-0.4335
-0.43
-0.4315
-0.433
-0.4375
-0.43
-0.429
-0.432
-0.432
-0.4335
-0.4295
-0.4275
-0.4255
-0.4275
-0.432
-0.4305
-0.425
-0.43
-0.4285
-0.424
-0.4345
-0.433
-0.4275
-0.4295
-0.427
-0.4265
-0.4245
-0.4305
-0.437
-0.432
-0.4355
-0.431
-0.424
-0.421
-0.4175
-0.4195
-0.4165
-0.415
-0.4155
-0.417
-0.4135
-0.4145
-0.41
-0.404
-0.4065
-0.3995
-0.4035
-0.407
-0.406
-0.4075
-0.4025
-0.404
-0.406
-0.4005
-0.4005
-0.4035
-0.4
-0.397
-0.3975
-0.3975
-0.3955
-0.3945
-0.395
-0.3915
-0.39
-0.393
-0.3915
-0.388
-0.388
-0.3865
-0.3845
-0.388
-0.391
-0.3965
-0.3905
-0.382
-0.386
-0.3895
-0.3905
-0.382
-0.3795
-0.379
-0.3725
-0.371
-0.3725
-0.372
-0.3675
-0.365
-0.3675
-0.369
-0.37
-0.3695
-0.366
-0.367
-0.3665
-0.3655
-0.366
-0.363
-0.359
-0.364
-0.3625
-0.354
-0.3515
-0.348
-0.3525
-0.3575
-0.3625
-0.3665
-0.36
-0.355
-0.3475
-0.3425
-0.344
-0.3385
-0.3385
-0.344
-0.3395
-0.3355
-0.332
-0.3285
-0.336
-0.333
-0.324
-0.3125
-0.3045
-0.312
-0.312
-0.3065
-0.2965
-0.2905
-0.29
-0.29
-0.2905
-0.2905
-0.2875
-0.287
-0.286
-0.278
-0.2745
-0.2775
-0.278
-0.2745
-0.268
-0.2625
-0.2645
-0.2695
-0.261
-0.2515
-0.242
-0.237
-0.242
-0.238
-0.2365
-0.237
-0.23
-0.228
-0.2285
-0.228
-0.224
-0.219
-0.218
-0.2165
-0.212
-0.2115
-0.2155
-0.215
-0.214
-0.2155
-0.2125
-0.2165
-0.2205
-0.218
-0.223
-0.225
-0.2255
-0.221
-0.215
-0.2195
-0.2205
-0.219
-0.216
-0.213
-0.214
-0.216
-0.214
-0.2105
-0.217
-0.222
-0.227
-0.232
-0.2375
-0.2425
-0.242
-0.2445
-0.2455
-0.248
-0.2525
-0.255
-0.2545
-0.262
-0.2715
-0.2755
-0.283
-0.2885
-0.2965
-0.304
-0.3105
-0.311
-0.32
-0.3325
-0.336
-0.346
-0.3405
-0.328
-0.3315
-0.3365
-0.346
-0.362
-0.369
-0.3725
-0.3795
-0.3815
-0.38
-0.381
-0.394
-0.4055
-0.407
-0.4145
-0.4115
-0.411
-0.4115
-0.4135
-0.4155
-0.4095
-0.413
-0.418
-0.4215
-0.419
-0.4245
-0.429
-0.421
-0.4225
-0.4305
-0.4315
-0.4355
-0.438
-0.438
-0.4425
-0.4405
-0.4395
-0.435
-0.431
-0.429
-0.433
-0.4375
-0.4335
-0.4235
-0.4255
-0.433
-0.4255
-0.428
-0.435
-0.4355
-0.433
-0.4345
-0.4335
-0.4335
-0.437
-0.4415
-0.4355
-0.4265
-0.428
-0.4205
-0.418
-0.4265
-0.424
-0.4165
-0.419
-0.4245
-0.427
-0.4295
-0.4325
-0.428
-0.4225
-0.429
-0.427
-0.42
-0.429
-0.436
-0.4255
-0.4175
-0.416
-0.4195
-0.42
-0.413
-0.414
-0.4215
-0.421
-0.4155
-0.416
-0.4185
-0.425
-0.4315
-0.4245
-0.4145
-0.4155
-0.417
-0.4155
-0.418
-0.4225
-0.424
-0.42
-0.412
-0.4125
-0.4175
-0.4155
-0.415
-0.416
-0.4185
-0.4155
-0.412
-0.411
-0.409
-0.4115
-0.413
-0.408
-0.408
-0.4105
-0.4055
-0.4085
-0.4085
-0.4035
-0.4075
-0.408
-0.4065
-0.4065
-0.4005
-0.395
-0.392
-0.382
-0.3785
-0.3825
-0.3835
-0.3875
-0.388
-0.3825
-0.376
-0.373
-0.3795
-0.382
-0.382
-0.3795
-0.374
-0.3815
-0.381
-0.383
-0.388
-0.359
-0.347
-0.363
-0.367
-0.368
-0.3665
-0.3615
-0.3615
-0.3615
-0.358
-0.353
-0.3545
-0.359
-0.3585
-0.3675
-0.374
-0.372
-0.373
-0.3695
-0.372
-0.3695
-0.3755
-0.3775
-0.37
-0.379
-0.38
-0.3775
-0.3815
-0.3845
-0.3815
-0.3825
-0.3755
-0.368
-0.3725
-0.3725
-0.377
-0.383
-0.3855
-0.384
-0.382
-0.376
-0.372
-0.373
-0.376
-0.379
-0.3745
-0.376
-0.382
-0.387
-0.387
-0.384
-0.3875
-0.3905
-0.3905
-0.387
-0.382
-0.3815
-0.3835
-0.3885
-0.389
-0.3845
-0.3865
-0.3905
-0.387
-0.383
-0.388
-0.389
-0.3885
-0.388
-0.389
-0.391
-0.3905
-0.394
-0.397
-0.396
-0.401
-0.404
-0.3995
-0.4025
-0.408
-0.4045
-0.3945
-0.3915
-0.397
-0.4015
-0.393
-0.3935
-0.4025
-0.4005
-0.4055
-0.4075
-0.4015
-0.4015
-0.398
-0.398
-0.4045
-0.405
-0.4085
-0.3985
-0.3955
-0.404
-0.403
-0.4025
-0.404
-0.4095
-0.4015
-0.4015
-0.4035
-0.4
-0.4015
-0.403
-0.408
-0.4085
-0.404
-0.3995
-0.4045
-0.408
-0.407
-0.411
-0.416
-0.4165
-0.4155
-0.4125
-0.4085
-0.412
-0.4155
-0.418
-0.417
-0.4125
-0.414
-0.412
-0.403
-0.401
-0.407
-0.412
-0.414
-0.4215
-0.4235
-0.418
-0.414
-0.4175
-0.4195
-0.412
-0.4045
-0.407
-0.4085
-0.404
-0.4065
-0.409
-0.4095
-0.4095
-0.409
-0.4105
-0.4225
-0.4235
-0.419
-0.428
-0.426
-0.4235
-0.419
-0.411
-0.4155
-0.4165
-0.418
-0.421
-0.419
-0.42
-0.4175
-0.418
-0.417
-0.417
-0.418
-0.4095
-0.4075
-0.4075
-0.4075
-0.41
-0.402
-0.399
-0.405
-0.4065
-0.4115
-0.412
-0.413
-0.4125
-0.409
-0.407
-0.4065
-0.409
-0.405
-0.4085
-0.4095
-0.4065
-0.406
-0.4095
-0.414
-0.412
-0.407
-0.399
-0.405
-0.4105
-0.408
-0.404
-0.409
-0.4165
-0.4145
-0.4155
-0.4185
-0.42
-0.413
-0.4055
-0.4035
-0.3965
-0.4
-0.4055
-0.3985
-0.3985
-0.3995
-0.4055
-0.405
-0.4005
-0.4095
-0.41
-0.414
-0.4145
-0.4155
-0.4085
-0.404
-0.4095
-0.405
-0.408
-0.409
-0.407
-0.4085
-0.4115
-0.4105
-0.4105
-0.4125
-0.4035
-0.4085
-0.4155
-0.4105
-0.4135
-0.416
-0.412
-0.4145
-0.4195
-0.4225
-0.43
-0.426
-0.413
-0.409
-0.4145
-0.4165
-0.4065
-0.404
-0.405
-0.403
-0.402
-0.3985
-0.3925
-0.395
-0.4045
-0.407
-0.4
-0.393
-0.4005
-0.4035
-0.404
-0.4095
-0.4045
-0.396
-0.4
-0.4055
-0.4015
-0.404
-0.4115
-0.408
-0.403
-0.4105
-0.4165
-0.406
-0.405
-0.4165
-0.414
-0.4105
-0.412
-0.407
-0.4095
-0.407
-0.402
-0.402
-0.4025
-0.4085
-0.405
-0.3965
-0.3965
-0.394
-0.397
-0.3975
-0.397
-0.396
-0.3945
-0.399
-0.397
-0.4015
-0.4005
-0.394
-0.3975
-0.4015
-0.403
-0.403
-0.402
-0.3975
-0.3945
-0.3945
-0.3975
-0.3985
-0.3995
-0.4045
-0.399
-0.3975
-0.4025
-0.405
-0.402
-0.402
-0.4035
-0.404
-0.405
-0.402
-0.401
-0.3965
-0.397
-0.4
-0.395
-0.399
-0.4015
-0.4015
-0.407
-0.404
-0.3995
-0.397
-0.396
-0.402
-0.4055
-0.397
-0.3905
-0.3925
-0.392
-0.392
-0.3975
-0.3975
-0.393
-0.393
-0.395
-0.397
-0.403
-0.406
-0.4025
-0.402
-0.4055
-0.4095
-0.406
-0.403
-0.4055
-0.405
-0.404
-0.4005
-0.394
-0.3845
-0.3875
-0.3925
-0.3815
-0.374
-0.369
-0.3675
-0.3645
-0.3605
-0.3555
-0.3555
-0.3605
-0.366
-0.376
-0.3835
-0.3845
-0.3795
-0.382
-0.381
-0.3775
-0.3815
-0.378
-0.377
-0.3775
-0.3785
-0.379
-0.373
-0.37
-0.365
-0.362
-0.3685
-0.3695
-0.3685
-0.3705
-0.3695
-0.3715
-0.37
-0.3735
-0.3845
-0.3915
-0.3935
-0.3925
-0.3925
-0.395
-0.3985
-0.4015
-0.413
-0.4185
-0.4175
-0.421
-0.4175
-0.415
-0.4135
-0.4155
-0.4185
-0.42
-0.422
-0.426
-0.43
-0.428
-0.424
-0.4275
-0.4295
-0.4215
-0.426
-0.432
-0.4305
-0.4295
-0.427
-0.4295
-0.4235
-0.4195
-0.422
-0.4205
-0.42
-0.419
-0.415
-0.412
-0.412
-0.413
-0.417
-0.4175
-0.416
-0.414
-0.411
-0.4145
-0.4145
-0.4095
-0.4115
-0.409
-0.408
-0.405
-0.3995
-0.406
-0.408
-0.407
-0.408
-0.409
-0.408
-0.4125
-0.4155
-0.412
-0.4115
-0.4085
-0.408
-0.408
-0.415
-0.4155
-0.409
-0.4065
-0.4015
-0.4025
-0.4005
-0.398
-0.4035
-0.4095
-0.4075
-0.404
-0.4085
-0.4165
-0.4145
-0.415
-0.4165
-0.4125
-0.418
-0.419
-0.4145
-0.4155
-0.412
-0.409
-0.413
-0.4105
-0.4025
-0.3925
-0.372
-0.3595
-0.345
-0.3325
-0.314
-0.294
-0.282
-0.2585
-0.2445
-0.234
-0.2225
-0.2125
-0.1885
-0.158
-0.136
-0.111
-0.088
-0.069
-0.05
-0.0445
-0.0375
-0.019
-0.004
-0.0025
-0.011
-0.016
-0.0325
-0.076
-0.11
-0.132
-0.164
-0.193
-0.2195
-0.2555
-0.288
-0.3045
-0.3295
-0.3595
-0.379
-0.4
-0.423
-0.45
-0.459
-0.4515
-0.445
-0.4405
-0.4475
-0.4525
-0.4485
-0.4315
-0.4135
-0.3965
-0.3785
-0.368
-0.354
-0.3435
-0.3355
-0.3235
-0.3185
-0.3125
-0.304
-0.2995
-0.301
-0.307
-0.311
-0.3135
-0.326
-0.3375
-0.34
-0.3455
-0.3525
-0.353
-0.3515
-0.358
-0.3645
-0.3635
-0.363
-0.363
-0.366
-0.36
-0.3555
-0.356
-0.353
-0.357
-0.359
-0.3605
-0.3625
-0.36
-0.3555
-0.3545
-0.36
-0.3585
-0.356
-0.3565
-0.35
-0.3475
-0.3475
-0.3485
-0.3515
-0.353
-0.351
-0.34
-0.3365
-0.353
-0.362
-0.3565
-0.352
-0.3475
-0.355
-0.3565
-0.3525
-0.3495
-0.3435
-0.3455
-0.3495
-0.349
-0.3465
-0.3435
-0.35
-0.355
-0.3505
-0.354
-0.3555
-0.354
-0.3535
-0.353
-0.3505
-0.3535
-0.353
-0.3455
-0.348
-0.3455
-0.3475
-0.351
-0.3535
-0.352
-0.3475
-0.348
-0.3415
-0.3455
-0.3485
-0.3445
-0.343
-0.3315
-0.324
-0.325
-0.328
-0.322
-0.3155
-0.321
-0.323
-0.3215
-0.3235
-0.322
-0.3185
-0.3165
-0.3185
-0.3155
-0.309
-0.312
-0.318
-0.32
-0.3175
-0.314
-0.307
-0.305
-0.303
-0.3015
-0.2985
-0.2935
-0.2965
-0.2955
-0.295
-0.294
-0.293
-0.296
-0.297
-0.29
-0.285
-0.294
-0.297
-0.296
-0.293
-0.2875
-0.2875
-0.2845
-0.284
-0.2865
-0.282
-0.2785
-0.2755
-0.269
-0.2555
-0.2495
-0.2575
-0.258
-0.256
-0.252
-0.2425
-0.241
-0.24
-0.24
-0.2415
-0.236
-0.232
-0.228
-0.2245
-0.2195
-0.214
-0.2165
-0.2185
-0.2105
-0.2065
-0.212
-0.2095
-0.2075
-0.207
-0.205
-0.209
-0.207
-0.203
-0.2025
-0.207
-0.2095
-0.205
-0.2035
-0.2
-0.1925
-0.186
-0.179
-0.179
-0.1835
-0.186
-0.1885
-0.1855
-0.18
-0.176
-0.1775
-0.176
-0.1745
-0.176
-0.179
-0.1785
-0.1755
-0.1835
-0.179
-0.1705
-0.17
-0.1665
-0.1625
-0.158
-0.154
-0.156
-0.156
-0.1465
-0.1455
-0.1475
-0.1495
-0.155
-0.1555
-0.1545
-0.154
-0.1555
-0.161
-0.168
-0.165
-0.162
-0.1585
-0.1585
-0.168
-0.1685
-0.1715
-0.174
-0.176
-0.1825
-0.182
-0.188
-0.1985
-0.2005
-0.2055
-0.2155
-0.218
-0.2255
-0.231
-0.232
-0.2415
-0.2495
-0.2575
-0.259
-0.2605
-0.2705
-0.2775
-0.2835
-0.292
-0.302
-0.308
-0.3095
-0.308
-0.309
-0.3185
-0.324
-0.3295
-0.3335
-0.3325
-0.341
-0.346
-0.3475
-0.3455
-0.348
-0.3565
-0.3635
-0.3695
-0.367
-0.368
-0.372
-0.3775
-0.38
-0.3745
-0.38
-0.3865
-0.3865
-0.389
-0.3875
-0.381
-0.3855
-0.392
-0.3915
-0.3945
-0.3935
-0.394
-0.3945
-0.396
-0.4045
-0.415
-0.4185
-0.4035
-0.3855
-0.376
-0.3825
-0.3895
-0.3885
-0.3905
-0.3925
-0.397
-0.3935
-0.388
-0.393
-0.3935
-0.392
-0.395
-0.3925
-0.393
-0.3955
-0.396
-0.4005
-0.4005
-0.403
-0.4025
-0.399
-0.4005
-0.4035
-0.406
-0.4065
-0.406
-0.4105
-0.4135
-0.413
-0.4115
-0.4135
-0.416
-0.417
-0.4155
-0.4055
-0.4005
-0.4025
-0.406
-0.4095
-0.4135
-0.4155
-0.414
-0.4115
-0.407
-0.405
-0.4015
-0.393
-0.3915
-0.3935
-0.391
-0.389
-0.3895
-0.3885
-0.389
-0.3885
-0.385
-0.383
-0.384
-0.384
-0.3825
-0.3885
-0.3975
-0.4005
-0.3915
-0.3885
-0.3985
-0.4065
-0.4105
-0.408
-0.405
-0.4035
-0.395
-0.3875
-0.389
-0.3915
-0.395
-0.4
-0.3955
-0.3935
-0.4005
-0.401
-0.397
-0.3995
-0.401
-0.403
-0.405
-0.4
-0.4035
-0.4085
-0.4065
-0.4095
-0.4115
-0.403
-0.402
-0.4065
-0.407
-0.41
-0.415
-0.413
-0.4055
-0.4055
-0.4055
-0.4055
-0.3985
-0.394
-0.3985
-0.3955
-0.39
-0.3885
-0.392
-0.392
-0.395
-0.4045
-0.3995
-0.3945
-0.3925
-0.389
-0.387
-0.389
-0.3935
-0.3935
-0.396
-0.4025
-0.406
-0.4055
-0.403
-0.4
-0.3965
-0.3975
-0.3965
-0.3925
-0.395
-0.4005
-0.4065
-0.4055
-0.404
-0.408
-0.4075
-0.4025
-0.404
-0.412
-0.4215
-0.4185
-0.4105
-0.4145
-0.423
-0.4275
-0.4255
-0.422
-0.422
-0.423
-0.4245
-0.429
-0.433
-0.432
-0.428
-0.4255
-0.429
-0.4325
-0.429
-0.419
-0.4195
-0.43
-0.424
-0.4155
-0.4175
-0.422
-0.4205
-0.413
-0.4135
-0.4215
-0.4255
-0.4295
-0.431
-0.4295
-0.425
-0.422
-0.427
-0.424
-0.4155
-0.411
-0.408
-0.412
-0.4105
-0.4055
-0.405
-0.409
-0.409
-0.4065
-0.4055
-0.4015
-0.4015
-0.399
-0.3945
-0.3975
-0.4025
-0.4075
-0.4065
-0.4065
-0.412
-0.4165
-0.415
-0.4075
-0.4065
-0.4055
-0.408
-0.407
-0.4015
-0.401
-0.3945
-0.3895
-0.3895
-0.387
-0.3825
-0.382
-0.382
-0.3815
-0.3845
-0.3875
-0.3885
-0.38
-0.3765
-0.378
-0.375
-0.38
-0.3795
-0.3785
-0.385
-0.386
-0.388
-0.388
-0.389
-0.3925
-0.3915
-0.3905
-0.387
-0.383
-0.3765
-0.3715
-0.3795
-0.3825
-0.38
-0.3845
-0.3825
-0.3835
-0.387
-0.387
-0.396
-0.397
-0.3915
-0.392
-0.397
-0.4
-0.4025
-0.4075
-0.4125
-0.415
-0.413
-0.4075
-0.3895
-0.384
-0.3935
-0.3995
-0.4015
-0.398
-0.391
-0.3925
-0.396
-0.388
-0.3885
-0.395
-0.3985
-0.398
-0.3985
-0.3995
-0.4005
-0.4045
-0.4025
-0.3965
-0.3915
-0.3945
-0.401
-0.399
-0.398
-0.3995
-0.401
-0.404
-0.403
-0.4075
-0.4145
-0.415
-0.4145
-0.413
-0.403
-0.4035
-0.408
-0.4005
-0.397
-0.3965
-0.3985
-0.3975
-0.394
-0.393
-0.3965
-0.4045
-0.402
-0.392
-0.3895
-0.3905
-0.3925
-0.396
-0.3975
-0.392
-0.391
-0.3945
-0.395
-0.398
-0.3985
-0.3965
-0.3965
-0.398
-0.394
-0.3905
-0.396
-0.397
-0.395
-0.389
-0.3915
-0.398
-0.395
-0.396
-0.398
-0.3955
-0.396
-0.3955
-0.395
-0.395
-0.3995
-0.403
-0.4015
-0.402
-0.401
-0.406
-0.412
-0.4155
-0.413
-0.4145
-0.417
-0.414
-0.4235
-0.43
-0.4285
-0.422
-0.407
-0.401
-0.4125
-0.416
-0.415
-0.41
-0.4005
-0.4095
-0.4135
-0.407
-0.4115
-0.4145
-0.4145
-0.418
-0.4145
-0.414
-0.419
-0.4145
-0.413
-0.416
-0.413
-0.413
-0.417
-0.4145
-0.4135
-0.414
-0.413
-0.4155
-0.412
-0.412
-0.4115
-0.4115
-0.414
-0.415
-0.4135
-0.411
-0.413
-0.413
-0.4165
-0.421
-0.4185
-0.417
-0.4165
-0.416
-0.4135
-0.417
-0.4125
-0.404
-0.41
-0.4105
-0.4075
-0.405
-0.404
-0.411
-0.406
-0.399
-0.4025
-0.4025
-0.402
-0.4035
-0.406
-0.4065
-0.4025
-0.4045
-0.408
-0.405
-0.4055
-0.4065
-0.3995
-0.3955
-0.401
-0.3885
-0.382
-0.386
-0.3845
-0.389
-0.3855
-0.3785
-0.376
-0.377
-0.377
-0.375
-0.3735
-0.369
-0.367
-0.3685
-0.3725
-0.3815
-0.3845
-0.3815
-0.383
-0.383
-0.3785
-0.3795
-0.3775
-0.3725
-0.3695
-0.362
-0.3625
-0.369
-0.3705
-0.3685
-0.3655
-0.365
-0.3635
-0.367
-0.3705
-0.371
-0.3755
-0.3735
-0.3785
-0.3845
-0.39
-0.3985
-0.404
-0.4105
-0.4135
-0.417
-0.424
-0.429
-0.433
-0.4395
-0.4405
-0.436
-0.431
-0.43
-0.4335
-0.44
-0.4425
-0.4445
-0.4355
-0.4275
-0.441
-0.4455
-0.4425
-0.436
-0.4265
-0.4325
-0.44
-0.4415
-0.444
-0.4435
-0.439
-0.4325
-0.432
-0.4385
-0.4385
-0.435
-0.4355
-0.436
-0.44
-0.442
-0.4435
-0.4465
-0.4445
-0.4515
-0.4565
-0.4505
-0.4495
-0.4485
-0.448
-0.449
-0.45
-0.448
-0.4405
-0.44
-0.442
-0.439
-0.438
-0.441
-0.4415
-0.44
-0.445
-0.449
-0.4485
-0.449
-0.4455
-0.4395
-0.448
-0.4515
-0.4495
-0.457
-0.46
-0.456
-0.454
-0.46
-0.463
-0.458
-0.459
-0.463
-0.4635
-0.4665
-0.469
-0.468
-0.459
-0.458
-0.4595
-0.455
-0.4555
-0.4505
-0.449
-0.4475
-0.438
-0.4325
-0.4205
-0.4035
-0.388
-0.3705
-0.3495
-0.327
-0.3075
-0.2915
-0.2825
-0.2715
-0.2605
-0.2495
-0.237
-0.212
-0.1805
-0.16
-0.1395
-0.123
-0.1015
-0.086
-0.078
-0.0685
-0.052
-0.0435
-0.0495
-0.0565
-0.068
-0.0875
-0.127
-0.1615
-0.1855
-0.2135
-0.243
-0.275
-0.312
-0.3375
-0.3505
-0.3715
-0.389
-0.4065
-0.433
-0.4535
-0.4755
-0.49
-0.4895
-0.4795
-0.476
-0.476
-0.475
-0.483
-0.471
-0.4555
-0.443
-0.42
-0.404
-0.39
-0.3795
-0.372
-0.362
-0.354
-0.345
-0.341
-0.339
-0.3405
-0.3445
-0.3435
-0.3445
-0.351
-0.361
-0.37
-0.3785
-0.3805
-0.381
-0.391
-0.4045
-0.4145
-0.4085
-0.397
-0.3935
-0.393
-0.395
-0.4005
-0.404
-0.4055
-0.402
-0.4
-0.408
-0.413
-0.4115
-0.4085
-0.4115
-0.413
-0.409
-0.405
-0.4015
-0.4045
-0.41
-0.4075
-0.408
-0.4155
-0.414
-0.4135
-0.412
-0.4105
-0.415
-0.413
-0.4115
-0.4135
-0.41
-0.4085
-0.4135
-0.4125
-0.41
-0.409
-0.4085
-0.406
-0.404
-0.4105
-0.414
-0.4065
-0.404
-0.401
-0.407
-0.412
-0.41
-0.4105
-0.4025
-0.402
-0.4085
-0.4085
-0.4105
-0.4185
-0.416
-0.4125
-0.4055
-0.399
-0.4005
-0.3955
-0.3925
-0.3895
-0.388
-0.388
-0.3935
-0.396
-0.3865
-0.396
-0.3985
-0.385
-0.382
-0.3805
-0.3835
-0.39
-0.39
-0.385
-0.3865
-0.39
-0.389
-0.388
-0.3875
-0.391
-0.3905
-0.38
-0.3795
-0.39
-0.3935
-0.3865
-0.3825
-0.3915
-0.3955
-0.3905
-0.386
-0.3775
-0.3765
-0.3745
-0.3685
-0.3595
-0.353
-0.3595
-0.36
-0.3595
-0.3615
-0.3645
-0.3675
-0.367
-0.3665
-0.3595
-0.3575
-0.358
-0.357
-0.36
-0.358
-0.35
-0.344
-0.3475
-0.35
-0.345
-0.341
-0.34
-0.34
-0.342
-0.3395
-0.331
-0.324
-0.323
-0.324
-0.323
-0.3195
-0.314
-0.3105
-0.31
-0.307
-0.301
-0.3015
-0.301
-0.2955
-0.2915
-0.2875
-0.2855
-0.284
-0.2765
-0.2745
-0.2725
-0.263
-0.263
-0.263
-0.2565
-0.2565
-0.25
-0.24
-0.236
-0.237
-0.239
-0.243
-0.245
-0.232
-0.218
-0.2085
-0.1995
-0.1935
-0.1925
-0.1965
-0.199
-0.201
-0.203
-0.2055
-0.2055
-0.2035
-0.197
-0.192
-0.196
-0.2005
-0.206
-0.205
-0.206
-0.2035
-0.1935
-0.195
-0.199
-0.1955
-0.191
-0.1805
-0.176
-0.1825
-0.1875
-0.2
-0.2055
-0.201
-0.2055
-0.2065
-0.204
-0.21
-0.2135
-0.219
-0.2225
-0.225
-0.227
-0.2285
-0.234
-0.24
-0.2495
-0.257
-0.2615
-0.2645
-0.2705
-0.2805
-0.2885
-0.2965
-0.299
-0.299
-0.3015
-0.3065
-0.313
-0.318
-0.324
-0.3315
-0.34
-0.3455
-0.3465
-0.35
-0.355
-0.3605
-0.366
-0.368
-0.369
-0.372
-0.38
-0.3855
-0.3905
-0.39
-0.389
-0.3975
-0.3995
-0.403
-0.402
-0.403
-0.4065
-0.4075
-0.413
-0.414
-0.412
-0.417
-0.428
-0.435
-0.4305
-0.4185
-0.404
-0.409
-0.4225
-0.4255
-0.4295
-0.43
-0.429
-0.428
-0.428
-0.4315
-0.4315
-0.433
-0.4365
-0.4405
-0.441
-0.439
-0.4395
-0.4345
-0.4315
-0.4385
-0.4475
-0.4495
-0.454
-0.4545
-0.4485
-0.448
-0.4515
-0.4505
-0.446
-0.445
-0.443
-0.4435
-0.44
-0.4395
-0.4385
-0.4385
-0.443
-0.4425
-0.4425
-0.4425
-0.4465
-0.45
-0.4515
-0.4465
-0.4415
-0.441
-0.4445
-0.4495
-0.4495
-0.452
-0.447
-0.445
-0.445
-0.4445
-0.4495
-0.4485
-0.446
-0.4485
-0.451
-0.451
-0.4545
-0.4575
-0.4565
-0.459
-0.46
-0.4565
-0.459
-0.4615
-0.4595
-0.4545
-0.449
-0.451
-0.451
-0.449
-0.4485
-0.445
-0.4435
-0.445
-0.4505
-0.455
-0.4575
-0.4575
-0.4595
-0.4655
-0.466
-0.4625
-0.459
-0.4565
-0.4545
-0.4565
-0.4595
-0.4655
-0.471
-0.4695
-0.466
-0.459
-0.4555
-0.46
-0.465
-0.463
-0.4595
-0.4625
-0.46
-0.4565
-0.458
-0.459
-0.4595
-0.461
-0.4605
-0.4595
-0.4585
-0.4555
-0.4595
-0.4605
-0.464
-0.469
-0.4705
-0.473
-0.467
-0.456
-0.444
-0.4385
-0.4445
-0.451
-0.4475
-0.4385
-0.444
-0.445
-0.4445
-0.4465
-0.446
-0.448
-0.4465
-0.4515
-0.4535
-0.4545
-0.453
-0.4495
-0.449
-0.4485
-0.448
-0.446
-0.45
-0.458
-0.4625
-0.462
-0.4575
-0.4565
-0.4585
-0.4615
-0.464
-0.4645
-0.4645
-0.4605
-0.4625
-0.4675
-0.472
-0.471
-0.4665
-0.468
-0.4705
-0.4675
-0.464
-0.4635
-0.4585
-0.455
-0.4575
-0.4625
-0.4735
-0.48
-0.476
-0.474
-0.474
-0.4755
-0.4725
-0.464
-0.466
-0.4705
-0.474
-0.471
-0.4705
-0.4715
-0.4685
-0.4695
-0.4675
-0.4685
-0.4745
-0.4785
-0.48
-0.473
-0.4685
-0.4675
-0.461
-0.4585
-0.4605
-0.46
-0.458
-0.464
-0.4715
-0.4745
-0.4745
-0.473
-0.471
-0.464
-0.4585
-0.462
-0.4595
-0.4545
-0.459
-0.4615
-0.463
-0.462
-0.4555
-0.4535
-0.456
-0.4585
-0.4605
-0.4665
-0.4705
-0.4705
-0.4685
-0.472
-0.475
-0.474
-0.4765
-0.476
-0.474
-0.474
-0.4785
-0.4795
-0.483
-0.483
-0.4775
-0.4755
-0.4625
-0.46
-0.471
-0.472
-0.4705
-0.4695
-0.4695
-0.4695
-0.474
-0.4775
-0.4775
-0.4825
-0.4815
-0.4795
-0.4805
-0.48
-0.482
-0.4825
-0.479
-0.483
-0.486
-0.478
-0.4775
-0.4885
-0.4895
-0.4855
-0.485
-0.4825
-0.4795
-0.4745
-0.474
-0.4785
-0.4795
-0.4785
-0.481
-0.4815
-0.4775
-0.476
-0.475
-0.4675
-0.471
-0.4775
-0.476
-0.476
-0.473
-0.4755
-0.475
-0.4745
-0.4765
-0.48
-0.4865
-0.4765
-0.4735
-0.4755
-0.474
-0.4815
-0.4765
-0.472
-0.474
-0.4755
-0.4805
-0.476
-0.469
-0.4665
-0.466
-0.471
-0.4775
-0.4765
-0.4725
-0.4705
-0.465
-0.4665
-0.468
-0.468
-0.469
-0.469
-0.4695
-0.4705
-0.472
-0.4725
-0.477
-0.483
-0.482
-0.4795
-0.484
-0.485
-0.484
-0.4875
-0.489
-0.4915
-0.4945
-0.4935
-0.495
-0.4935
-0.4905
-0.493
-0.4925
-0.5005
-0.507
-0.502
-0.4975
-0.489
-0.4815
-0.4835
-0.4895
-0.4945
-0.4975
-0.495
-0.4925
-0.497
-0.5085
-0.512
-0.5085
-0.5055
-0.5055
-0.508
-0.503
-0.4985
-0.496
-0.499
-0.499
-0.4985
-0.5005
-0.495
-0.4945
-0.499
-0.5
-0.5005
-0.506
-0.511
-0.5125
-0.5125
-0.5125
-0.511
-0.5125
-0.5165
-0.5135
-0.512
-0.5155
-0.519
-0.5195
-0.52
-0.5195
-0.5155
-0.5195
-0.5215
-0.511
-0.503
-0.5
-0.4955
-0.4985
-0.505
-0.502
-0.4985
-0.497
-0.495
-0.4965
-0.498
-0.4965
-0.497
-0.499
-0.4995
-0.492
-0.486
-0.4915
-0.496
-0.503
-0.503
-0.5005
-0.502
-0.5
-0.4955
-0.4935
-0.492
-0.4855
-0.483
-0.4785
-0.475
-0.477
-0.4795
-0.4795
-0.4755
-0.4685
-0.47
-0.4875
-0.485
-0.475
-0.4775
-0.476
-0.4735
-0.4745
-0.475
-0.473
-0.4765
-0.476
-0.475
-0.4755
-0.464
-0.4565
-0.459
-0.466
-0.472
-0.4705
-0.4705
-0.4655
-0.46
-0.456
-0.4525
-0.4485
-0.446
-0.4485
-0.4515
-0.4505
-0.4495
-0.438
-0.4225
-0.4205
-0.4195
-0.4215
-0.4275
-0.4285
-0.4265
-0.4315
-0.445
-0.446
-0.4385
-0.436
-0.4305
-0.426
-0.4125
-0.4
-0.396
-0.3955
-0.397
-0.39
-0.3875
-0.3915
-0.39
-0.388
-0.396
-0.3995
-0.403
-0.409
-0.4105
-0.4135
-0.4185
-0.4225
-0.4285
-0.438
-0.4465
-0.455
-0.462
-0.4685
-0.471
-0.4775
-0.479
-0.4775
-0.482
-0.48
-0.4735
-0.475
-0.4825
-0.486
-0.4825
-0.48
-0.481
-0.478
-0.4755
-0.471
-0.4715
-0.475
-0.4675
-0.4615
-0.4595
-0.4635
-0.462
-0.4545
-0.453
-0.4575
-0.46
-0.4575
-0.4605
-0.4645
-0.4615
-0.4535
-0.452
-0.4445
-0.4385
-0.44
-0.4395
-0.4405
-0.444
-0.4495
-0.4505
-0.455
-0.4575
-0.455
-0.451
-0.4505
-0.451
-0.444
-0.445
-0.454
-0.4555
-0.4475
-0.4475
-0.4475
-0.4485
-0.454
-0.4555
-0.4545
-0.4415
-0.43
-0.432
-0.433
-0.4305
-0.427
-0.43
-0.4315
-0.4335
-0.435
-0.432
-0.4305
-0.431
-0.4315
-0.4285
-0.4315
-0.436
-0.4365
-0.438
-0.441
-0.4425
-0.435
-0.429
-0.4245
-0.4165
-0.416
-0.4185
-0.416
-0.406
-0.3925
-0.38
-0.3645
-0.3475
-0.3265
-0.304
-0.293
-0.2795
-0.263
-0.249
-0.2365
-0.224
-0.207
-0.1855
-0.1585
-0.138
-0.119
-0.107
-0.097
-0.084
-0.0785
-0.061
-0.051
-0.051
-0.0525
-0.066
-0.075
-0.089
-0.125
-0.163
-0.185
-0.204
-0.23
-0.259
-0.2905
-0.3145
-0.327
-0.352
-0.3775
-0.39
-0.413
-0.4355
-0.456
-0.4705
-0.4725
-0.4655
-0.4535
-0.4475
-0.456
-0.456
-0.443
-0.4385
-0.424
-0.4035
-0.389
-0.3805
-0.371
-0.363
-0.3545
-0.348
-0.3455
-0.3385
-0.3415
-0.3445
-0.3455
-0.3525
-0.36
-0.3695
-0.3685
-0.3635
-0.364
-0.3675
-0.3785
-0.379
-0.3785
-0.3825
-0.381
-0.379
-0.3835
-0.3885
-0.3905
-0.398
-0.397
-0.395
-0.393
-0.39
-0.3955
-0.397
-0.4005
-0.3985
-0.394
-0.394
-0.3875
-0.39
-0.3915
-0.3865
-0.386
-0.383
-0.3795
-0.378
-0.382
-0.3795
-0.3755
-0.3895
-0.388
-0.3815
-0.38
-0.3795
-0.377
-0.3685
-0.368
-0.3665
-0.3625
-0.358
-0.36
-0.3645
-0.3665
-0.3735
-0.382
-0.381
-0.376
-0.3765
-0.37
-0.361
-0.367
-0.376
-0.367
-0.3615
-0.364
-0.3565
-0.354
-0.3555
-0.357
-0.361
-0.358
-0.352
-0.3495
-0.3505
-0.3485
-0.348
-0.3455
-0.344
-0.35
-0.3495
-0.345
-0.3445
-0.3505
-0.354
-0.3475
-0.3465
-0.3505
-0.3525
-0.3495
-0.3425
-0.3435
-0.349
-0.3505
-0.3455
-0.3415
-0.348
-0.3565
-0.3625
-0.3575
-0.35
-0.353
-0.3545
-0.356
-0.356
-0.3585
-0.3605
-0.353
-0.35
-0.3435
-0.344
-0.35
-0.3465
-0.3365
-0.3315
-0.3325
-0.33
-0.3295
-0.327
-0.326
-0.327
-0.329
-0.3315
-0.324
-0.315
-0.3125
-0.3125
-0.3055
-0.299
-0.302
-0.3065
-0.3085
-0.309
-0.3085
-0.3085
-0.3045
-0.297
-0.296
-0.2965
-0.298
-0.298
-0.283
-0.275
-0.2805
-0.2795
-0.2725
-0.271
-0.276
-0.276
-0.276
-0.2745
-0.269
-0.267
-0.2675
-0.2605
-0.2605
-0.2675
-0.2595
-0.2575
-0.2545
-0.2425
-0.2445
-0.2485
-0.246
-0.245
-0.2435
-0.24
-0.239
-0.2295
-0.221
-0.219
-0.2195
-0.2135
-0.211
-0.2125
-0.207
-0.206
-0.205
-0.206
-0.196
-0.1895
-0.191
-0.188
-0.189
-0.188
-0.189
-0.1855
-0.186
-0.194
-0.192
-0.1845
-0.1815
-0.183
-0.188
-0.1905
-0.185
-0.182
-0.1835
-0.181
-0.179
-0.182
-0.181
-0.1725
-0.1745
-0.1805
-0.1815
-0.1875
-0.1965
-0.198
-0.1865
-0.183
-0.189
-0.192
-0.2015
-0.213
-0.212
-0.2035
-0.1985
-0.2095
-0.2245
-0.227
-0.2295
-0.237
-0.238
-0.2375
-0.247
-0.2535
-0.2575
-0.2595
-0.256
-0.2605
-0.271
-0.282
-0.2905
-0.2915
-0.2995
-0.3095
-0.308
-0.3125
-0.322
-0.3215
-0.322
-0.328
-0.3335
-0.337
-0.337
-0.3465
-0.351
-0.348
-0.3485
-0.3515
-0.354
-0.3555
-0.3605
-0.359
-0.36
-0.363
-0.367
-0.371
-0.3725
-0.371
-0.366
-0.366
-0.3655
-0.365
-0.368
-0.367
-0.366
-0.365
-0.3615
-0.354
-0.35
-0.3525
-0.359
-0.3625
-0.364
-0.3645
-0.3665
-0.3745
-0.371
-0.3685
-0.375
-0.3695
-0.361
-0.361
-0.3675
-0.369
-0.3635
-0.3575
-0.3565
-0.362
-0.3615
-0.3585
-0.36
-0.3605
-0.361
-0.364
-0.3635
-0.361
-0.359
-0.3605
-0.362
-0.36
-0.362
-0.3625
-0.3635
-0.357
-0.3535
-0.363
-0.367
-0.373
-0.376
-0.366
-0.3645
-0.3715
-0.372
-0.3675
-0.3685
-0.367
-0.3675
-0.3665
-0.3595
-0.3585
-0.3545
-0.352
-0.3475
-0.3515
-0.3615
-0.3605
-0.3575
-0.3605
-0.3705
-0.369
-0.3735
-0.378
-0.366
-0.3585
-0.3635
-0.3765
-0.3795
-0.3745
-0.376
-0.375
-0.376
-0.3815
-0.3835
-0.385
-0.382
-0.375
-0.3765
-0.3785
-0.373
-0.3765
-0.3775
-0.375
-0.3735
-0.367
-0.3665
-0.3665
-0.368
-0.366
-0.362
-0.362
-0.3535
-0.3525
-0.3565
-0.3575
-0.361
-0.3615
-0.358
-0.3545
-0.3565
-0.354
-0.3575
-0.364
-0.3615
-0.364
-0.361
-0.3605
-0.3685
-0.3645
-0.3615
-0.364
-0.3655
-0.3635
-0.359
-0.3605
-0.3645
-0.3685
-0.364
-0.3625
-0.3555
-0.355
-0.3635
-0.359
-0.3615
-0.362
-0.3645
-0.3705
-0.368
-0.366
-0.3625
-0.3585
-0.3595
-0.363
-0.365
-0.3635
-0.366
-0.3695
-0.373
-0.375
-0.3665
-0.358
-0.361
-0.361
-0.357
-0.3555
-0.3585
-0.3585
-0.354
-0.3595
-0.361
-0.36
-0.3605
-0.3575
-0.358
-0.3595
-0.3635
-0.3635
-0.3585
-0.3575
-0.354
-0.358
-0.359
-0.3505
-0.3505
-0.3475
-0.3455
-0.3465
-0.3445
-0.34
-0.3405
-0.3445
-0.3405
-0.3405
-0.3405
-0.342
-0.3475
-0.343
-0.343
-0.347
-0.34
-0.337
-0.3395
-0.3395
-0.333
-0.329
-0.329
-0.326
-0.3255
-0.332
-0.343
-0.343
-0.338
-0.333
-0.3295
-0.3275
-0.327
-0.329
-0.3335
-0.337
-0.3295
-0.3235
-0.3225
-0.3175
-0.3155
-0.3245
-0.3265
-0.322
-0.3225
-0.324
-0.331
-0.336
-0.328
-0.316
-0.315
-0.319
-0.3195
-0.324
-0.329
-0.329
-0.3275
-0.3255
-0.32
-0.3145
-0.3165
-0.32
-0.322
-0.3175
-0.3185
-0.3195
-0.3155
-0.319
-0.322
-0.3265
-0.321
-0.318
-0.323
-0.32
-0.319
-0.318
-0.316
-0.3205
-0.328
-0.3305
-0.332
-0.333
-0.327
-0.324
-0.3265
-0.3305
-0.33
-0.333
-0.3395
-0.3395
-0.342
-0.3395
-0.331
-0.3275
-0.327
-0.3295
-0.336
-0.3345
-0.3295
-0.331
-0.3265
-0.3345
-0.346
-0.35
-0.3495
-0.3425
-0.345
-0.341
-0.3335
-0.337
-0.3315
-0.3285
-0.3345
-0.3375
-0.335
-0.3295
-0.332
-0.333
-0.3345
-0.336
-0.336
-0.3445
-0.348
-0.3455
-0.3435
-0.3405
-0.337
-0.336
-0.3375
-0.339
-0.343
-0.3445
-0.34
-0.3425
-0.347
-0.348
-0.3525
-0.352
-0.351
-0.353
-0.35
-0.35
-0.352
-0.354
-0.3555
-0.352
-0.346
-0.347
-0.3505
-0.3515
-0.3475
-0.3395
-0.344
-0.3495
-0.346
-0.346
-0.349
-0.348
-0.346
-0.3395
-0.3315
-0.3335
-0.3365
-0.3375
-0.343
-0.347
-0.342
-0.343
-0.344
-0.3365
-0.3375
-0.338
-0.3395
-0.34
-0.3305
-0.3295
-0.3295
-0.329
-0.3325
-0.335
-0.3335
-0.328
-0.323
-0.322
-0.3315
-0.3315
-0.326
-0.3235
-0.3135
-0.3115
-0.314
-0.321
-0.3335
-0.3395
-0.34
-0.332
-0.3235
-0.327
-0.331
-0.333
-0.336
-0.33
-0.3225
-0.322
-0.3245
-0.3205
-0.3155
-0.325
-0.3295
-0.328
-0.3285
-0.327
-0.331
-0.3335
-0.333
-0.3325
-0.336
-0.341
-0.3425
-0.3425
-0.3425
-0.342
-0.3365
-0.3375
-0.3415
-0.3385
-0.3335
-0.3325
-0.3345
-0.333
-0.3375
-0.341
-0.344
-0.344
-0.339
-0.3345
-0.3275
-0.3325
-0.338
-0.3415
-0.3425
-0.333
-0.317
-0.3095
-0.3135
-0.314
-0.319
-0.3215
-0.323
-0.325
-0.322
-0.324
-0.3265
-0.3295
-0.3265
-0.322
-0.323
-0.324
-0.3205
-0.3165
-0.321
-0.327
-0.331
-0.334
-0.3315
-0.3275
-0.3245
-0.328
-0.33
-0.33
-0.3295
-0.325
-0.3255
-0.3245
-0.3245
-0.3215
-0.321
-0.315
-0.305
-0.3035
-0.3055
-0.3115
-0.3135
-0.3165
-0.318
-0.322
-0.335
-0.3405
-0.3315
-0.3285
-0.3285
-0.3275
-0.3195
-0.314
-0.3195
-0.3195
-0.3155
-0.3045
-0.3015
-0.301
-0.2965
-0.2965
-0.2995
-0.307
-0.309
-0.308
-0.305
-0.2965
-0.29
-0.296
-0.3005
-0.297
-0.31
-0.33
-0.329
-0.3285
-0.3345
-0.337
-0.341
-0.342
-0.3435
-0.347
-0.346
-0.3465
-0.3455
-0.345
-0.3515
-0.356
-0.356
-0.353
-0.3545
-0.356
-0.351
-0.354
-0.353
-0.3495
-0.349
-0.3475
-0.348
-0.3545
-0.3595
-0.3595
-0.3605
-0.3555
-0.352
-0.3485
-0.3475
-0.3495
-0.3495
-0.3485
-0.3425
-0.344
-0.3455
-0.344
-0.347
-0.35
-0.3555
-0.3565
-0.3575
-0.3565
-0.357
-0.364
-0.364
-0.362
-0.3585
-0.3605
-0.362
-0.3645
-0.3665
-0.3655
-0.3665
-0.3585
-0.3625
-0.366
-0.3625
-0.37
-0.373
-0.3745
-0.375
-0.374
-0.379
-0.382
-0.3765
-0.3775
-0.3775
-0.3765
-0.382
-0.386
-0.3845
-0.3805
-0.3815
-0.3895
-0.3955
-0.3955
-0.3945
-0.3905
-0.3945
-0.3955
-0.3925
-0.3945
-0.393
-0.3855
-0.3805
-0.3895
-0.384
-0.377
-0.3715
-0.346
-0.326
-0.3125
-0.3025
-0.2875
-0.2695
-0.2595
-0.2445
-0.2285
-0.213
-0.193
-0.1815
-0.1645
-0.136
-0.12
-0.0955
-0.0765
-0.064
-0.041
-0.0295
-0.02
-0.0035
0.0085
-0.004
-0.0125
-0.0195
-0.04
-0.0725
-0.1105
-0.135
-0.15
-0.172
-0.2145
-0.247
-0.271
-0.288
-0.3095
-0.3385
-0.3585
-0.3765
-0.3935
-0.4195
-0.435
-0.4345
-0.4275
-0.4205
-0.425
-0.423
-0.417
-0.406
-0.3915
-0.3805
-0.3635
-0.348
-0.334
-0.323
-0.3165
-0.31
-0.3085
-0.306
-0.302
-0.302
-0.2985
-0.2965
-0.299
-0.302
-0.304
-0.309
-0.313
-0.314
-0.314
-0.315
-0.319
-0.3175
-0.3195
-0.3225
-0.3195
-0.3205
-0.3255
-0.3265
-0.3295
-0.332
-0.3335
-0.334
-0.328
-0.33
-0.332
-0.3295
-0.328
-0.3325
-0.335
-0.3305
-0.331
-0.332
-0.342
-0.349
-0.349
-0.349
-0.348
-0.3445
-0.342
-0.347
-0.352
-0.3575
-0.3595
-0.3555
-0.35
-0.3415
-0.335
-0.3315
-0.3315
-0.3315
-0.3335
-0.337
-0.3365
-0.3335
-0.3325
-0.3375
-0.339
-0.335
-0.3365
-0.3395
-0.3405
-0.3385
-0.338
-0.336
-0.337
-0.3435
-0.345
-0.3445
-0.342
-0.341
-0.341
-0.341
-0.338
-0.3305
-0.3235
-0.3215
-0.326
-0.3285
-0.3255
-0.323
-0.322
-0.3175
-0.315
-0.3135
-0.315
-0.322
-0.321
-0.3215
-0.3215
-0.3235
-0.322
-0.32
-0.324
-0.324
-0.329
-0.3305
-0.3245
-0.321
-0.3205
-0.3165
-0.3185
-0.3235
-0.3215
-0.314
-0.311
-0.316
-0.3085
-0.301
-0.302
-0.3025
-0.304
-0.3065
-0.3075
-0.307
-0.304
-0.295
-0.2985
-0.302
-0.297
-0.294
-0.2905
-0.2835
-0.28
-0.279
-0.273
-0.271
-0.275
-0.273
-0.2695
-0.276
-0.2795
-0.2745
-0.274
-0.274
-0.2725
-0.271
-0.2675
-0.2605
-0.2585
-0.26
-0.264
-0.263
-0.2545
-0.2505
-0.2425
-0.236
-0.241
-0.243
-0.2425
-0.241
-0.2385
-0.231
-0.2225
-0.221
-0.2185
-0.2175
-0.2205
-0.2215
-0.2155
-0.2115
-0.208
-0.2015
-0.205
-0.2035
-0.196
-0.1905
-0.184
-0.186
-0.1905
-0.189
-0.183
-0.1805
-0.174
-0.1675
-0.1675
-0.167
-0.171
-0.1725
-0.171
-0.1695
-0.166
-0.1645
-0.161
-0.159
-0.159
-0.1555
-0.1555
-0.1555
-0.152
-0.158
-0.163
-0.158
-0.1535
-0.1505
-0.148
-0.1455
-0.1485
-0.1455
-0.1475
-0.154
-0.151
-0.146
-0.1475
-0.159
-0.1575
-0.153
-0.154
-0.151
-0.1545
-0.158
-0.16
-0.173
-0.184
-0.186
-0.19
-0.1905
-0.1935
-0.1965
-0.1995
-0.216
-0.2275
-0.229
-0.229
-0.2335
-0.239
-0.2395
-0.245
-0.2475
-0.2495
-0.2575
-0.2625
-0.271
-0.271
-0.2665
-0.2715
-0.2725
-0.2775
-0.287
-0.289
-0.291
-0.299
-0.302
-0.308
-0.3155
-0.3185
-0.3225
-0.3215
-0.315
-0.3075
-0.3105
-0.3105
-0.3125
-0.324
-0.3305
-0.3335
-0.332
-0.333
-0.3385
-0.343
-0.3465
-0.347
-0.348
-0.344
-0.3425
-0.344
-0.347
-0.345
-0.341
-0.342
-0.3475
-0.3545
-0.355
-0.3575
-0.3565
-0.3565
-0.3605
-0.3655
-0.378
-0.3865
-0.3855
-0.3775
-0.372
-0.3695
-0.374
-0.385
-0.38
-0.3675
-0.3625
-0.363
-0.3655
-0.3715
-0.3735
-0.367
-0.373
-0.3795
-0.3775
-0.385
-0.3935
-0.3945
-0.3905
-0.383
-0.376
-0.378
-0.3785
-0.3775
-0.3785
-0.375
-0.3745
-0.374
-0.375
-0.379
-0.386
-0.387
-0.3865
-0.3925
-0.3925
-0.3885
-0.3865
-0.388
-0.3935
-0.3935
-0.3925
-0.3965
-0.3965
-0.394
-0.3865
-0.386
-0.386
-0.3805
-0.387
-0.389
-0.3875
-0.3975
-0.3975
-0.389
-0.388
-0.399
-0.4075
-0.4025
-0.391
-0.379
-0.3785
-0.38
-0.38
-0.38
-0.378
-0.38
-0.3795
-0.377
-0.3795
-0.378
-0.38
-0.388
-0.3895
-0.3865
-0.384
-0.3835
-0.38
-0.3775
-0.379
-0.3805
-0.387
-0.388
-0.3815
-0.3805
-0.3795
-0.3785
-0.3825
-0.3855
-0.391
-0.389
-0.3855
-0.3855
-0.386
-0.39
-0.3865
-0.3875
-0.3865
-0.3825
-0.3825
-0.382
-0.385
-0.389
-0.386
-0.385
-0.3895
-0.3875
-0.387
-0.3915
-0.3925
-0.3905
-0.3925
-0.3985
-0.3965
-0.3985
-0.397
-0.38
-0.3785
-0.382
-0.3825
-0.3865
-0.3795
-0.3765
-0.3785
-0.3795
-0.3805
-0.3795
-0.383
-0.382
-0.379
-0.389
-0.3935
-0.3975
-0.405
-0.407
-0.4015
-0.3945
-0.3945
-0.3975
-0.398
-0.3995
-0.407
-0.4045
-0.4025
-0.404
-0.405
-0.406
-0.404
-0.402
-0.398
-0.3995
-0.398
-0.4
-0.4045
-0.4035
-0.3975
-0.396
-0.4005
-0.405
-0.406
-0.4005
-0.3985
-0.3945
-0.3935
-0.389
-0.388
-0.395
-0.391
-0.3885
-0.3935
-0.391
-0.3845
-0.389
-0.3895
-0.386
-0.3895
-0.395
-0.386
-0.3815
-0.3865
-0.384
-0.3865
-0.3865
-0.3855
-0.3885
-0.3945
-0.397
-0.3985
-0.399
-0.399
-0.4035
-0.397
-0.3925
-0.389
-0.3775
-0.3745
-0.3835
-0.387
-0.3845
-0.3855
-0.3835
-0.383
-0.386
-0.3885
-0.389
-0.3835
-0.3825
-0.387
-0.392
-0.392
-0.391
-0.3865
-0.3815
-0.3845
-0.383
-0.3825
-0.3805
-0.3795
-0.381
-0.378
-0.382
-0.381
-0.3805
-0.3855
-0.393
-0.398
-0.397
-0.394
-0.39
-0.3865
-0.385
-0.3925
-0.3935
-0.39
-0.3905
-0.3885
-0.3815
-0.374
-0.373
-0.3775
-0.3805
-0.3785
-0.381
-0.388
-0.3935
-0.395
-0.3915
-0.3925
-0.396
-0.392
-0.386
-0.385
-0.386
-0.3855
-0.387
-0.393
-0.3955
-0.3915
-0.3945
-0.4035
-0.396
-0.3845
-0.3785
-0.3805
-0.3825
-0.381
-0.381
-0.3745
-0.3735
-0.372
-0.371
-0.367
-0.3625
-0.3635
-0.364
-0.3705
-0.372
-0.379
-0.384
-0.38
-0.377
-0.3765
-0.384
-0.385
-0.382
-0.3815
-0.376
-0.375
-0.3775
-0.376
-0.3755
-0.3755
-0.378
-0.377
-0.371
-0.374
-0.3755
-0.3735
-0.3725
-0.373
-0.372
-0.3775
-0.388
-0.3805
-0.375
-0.3745
-0.367
-0.3665
-0.37
-0.3725
-0.3715
-0.3705
-0.37
-0.3655
-0.3695
-0.3775
-0.3765
-0.379
-0.3775
-0.3665
-0.368
-0.3685
-0.3675
-0.368
-0.371
-0.374
-0.3755
-0.3745
-0.373
-0.3765
-0.373
-0.373
-0.376
-0.378
-0.381
-0.3865
-0.3835
-0.3775
-0.381
-0.3805
-0.382
-0.3815
-0.3835
-0.389
-0.3875
-0.393
-0.3955
-0.388
-0.3905
-0.3925
-0.39
-0.3915
-0.399
-0.4055
-0.4045
-0.401
-0.396
-0.3955
-0.394
-0.397
-0.4045
-0.403
-0.409
-0.4085
-0.4015
-0.3985
-0.401
-0.41
-0.4145
-0.4105
-0.4
-0.401
-0.402
-0.3975
-0.399
-0.398
-0.3955
-0.398
-0.4005
-0.402
-0.406
-0.4085
-0.409
-0.407
-0.402
-0.402
-0.4025
-0.4025
-0.401
-0.399
-0.4015
-0.4
-0.4005
-0.398
-0.398
-0.4035
-0.4065
-0.408
-0.401
-0.398
-0.3955
-0.3865
-0.3845
-0.387
-0.3925
-0.391
-0.3855
-0.384
-0.379
-0.381
-0.381
-0.3785
-0.378
-0.3745
-0.379
-0.384
-0.386
-0.384
-0.3795
-0.3815
-0.384
-0.383
-0.381
-0.378
-0.3795
-0.3785
-0.377
-0.378
-0.372
-0.371
-0.372
-0.3725
-0.3765
-0.377
-0.377
-0.378
-0.3765
-0.3755
-0.3785
-0.382
-0.378
-0.374
-0.3745
-0.3785
-0.38
-0.3755
-0.3705
-0.3665
-0.3715
-0.3705
-0.3705
-0.378
-0.3835
-0.3745
-0.364
-0.369
-0.368
-0.366
-0.363
-0.362
-0.364
-0.362
-0.3665
-0.3705
-0.3725
-0.38
-0.3795
-0.373
-0.37
-0.368
-0.3655
-0.3585
-0.3595
-0.3605
-0.3605
-0.3575
-0.355
-0.3575
-0.3585
-0.3605
-0.3585
-0.355
-0.3545
-0.355
-0.3535
-0.352
-0.349
-0.347
-0.3475
-0.347
-0.3495
-0.357
-0.365
-0.3625
-0.3515
-0.3405
-0.3395
-0.343
-0.3395
-0.335
-0.3385
-0.3405
-0.343
-0.3435
-0.3375
-0.33
-0.3225
-0.323
-0.328
-0.3335
-0.337
-0.346
-0.346
-0.3375
-0.3375
-0.342
-0.3405
-0.3365
-0.3385
-0.341
-0.3455
-0.3375
-0.3225
-0.3235
-0.327
-0.3275
-0.331
-0.3335
-0.3355
-0.3315
-0.321
-0.317
-0.3205
-0.326
-0.332
-0.33
-0.327
-0.327
-0.326
-0.319
-0.312
-0.3105
-0.3065
-0.309
-0.311
-0.3075
-0.309
-0.3135
-0.319
-0.3205
-0.3235
-0.326
-0.333
-0.3385
-0.3345
-0.3415
-0.347
-0.3485
-0.3595
-0.3685
-0.378
-0.3845
-0.3815
-0.382
-0.382
-0.38
-0.3825
-0.381
-0.373
-0.37
-0.371
-0.3725
-0.3725
-0.3745
-0.3775
-0.3795
-0.3825
-0.3795
-0.3855
-0.391
-0.3925
-0.3965
-0.389
-0.384
-0.3805
-0.3775
-0.38
-0.3745
-0.37
-0.373
-0.3745
-0.3785
-0.383
-0.381
-0.3805
-0.3835
-0.3845
-0.382
-0.382
-0.388
-0.3865
-0.384
-0.382
-0.3795
-0.3835
-0.383
-0.3855
-0.385
-0.3865
-0.393
-0.387
-0.3865
-0.3805
-0.3735
-0.3705
-0.3675
-0.377
-0.3805
-0.383
-0.3835
-0.385
-0.386
-0.3735
-0.372
-0.374
-0.376
-0.379
-0.3775
-0.3775
-0.376
-0.3815
-0.3895
-0.395
-0.397
-0.3985
-0.4015
-0.3955
-0.3945
-0.402
-0.4015
-0.402
-0.4055
-0.406
-0.4025
-0.4
-0.4
-0.3915
-0.3915
-0.3895
-0.384
-0.3775
-0.3595
-0.3515
-0.343
-0.3255
-0.3
-0.278
-0.268
-0.26
-0.2605
-0.244
-0.2215
-0.211
-0.1925
-0.1685
-0.1435
-0.1165
-0.1
-0.0845
-0.0565
-0.0395
-0.0305
-0.0145
-0.0005
-0.004
-0.0125
-0.0245
-0.0355
-0.054
-0.0945
-0.1245
-0.144
-0.1675
-0.1985
-0.235
-0.2655
-0.2855
-0.299
-0.324
-0.343
-0.368
-0.399
-0.4195
-0.4405
-0.445
-0.445
-0.442
-0.4325
-0.4285
-0.428
-0.4245
-0.4125
-0.397
-0.382
-0.371
-0.356
-0.34
-0.333
-0.331
-0.329
-0.323
-0.3095
-0.308
-0.314
-0.3135
-0.317
-0.325
-0.333
-0.339
-0.345
-0.3375
-0.3335
-0.3425
-0.3435
-0.348
-0.358
-0.3595
-0.3555
-0.353
-0.359
-0.3535
-0.349
-0.359
-0.3595
-0.36
-0.356
-0.36
-0.3645
-0.3585
-0.3615
-0.3635
-0.363
-0.368
-0.37
-0.372
-0.376
-0.372
-0.3735
-0.3775
-0.3765
-0.3795
-0.3805
-0.38
-0.3795
-0.3835
-0.386
-0.3805
-0.377
-0.3715
-0.372
-0.3785
-0.366
-0.3535
-0.36
-0.3655
-0.3665
-0.3675
-0.3695
-0.3695
-0.3695
-0.369
-0.3675
-0.3635
-0.361
-0.3705
-0.374
-0.376
-0.3775
-0.3805
-0.384
-0.3785
-0.373
-0.3665
-0.3695
-0.3745
-0.3735
-0.3715
-0.3695
-0.367
-0.3685
-0.373
-0.3755
-0.371
-0.3635
-0.3615
-0.3605
-0.3625
-0.3555
-0.351
-0.35
-0.3485
-0.355
-0.3585
-0.3545
-0.347
-0.3475
-0.3465
-0.343
-0.342
-0.3405
-0.334
-0.3325
-0.3315
-0.329
-0.33
-0.3275
-0.329
-0.3245
-0.3195
-0.319
-0.3175
-0.315
-0.308
-0.3105
-0.312
-0.3095
-0.3155
-0.319
-0.3165
-0.32
-0.3155
-0.313
-0.3175
-0.3155
-0.317
-0.315
-0.3145
-0.3185
-0.32
-0.318
-0.3095
-0.302
-0.3
-0.2965
-0.299
-0.3015
-0.296
-0.2925
-0.2895
-0.287
-0.28
-0.279
-0.2775
-0.272
-0.2755
-0.275
-0.274
-0.272
-0.2735
-0.2775
-0.27
-0.265
-0.2615
-0.2605
-0.258
-0.243
-0.234
-0.228
-0.2275
-0.229
-0.2245
-0.2235
-0.2155
-0.2105
-0.215
-0.219
-0.214
-0.206
-0.2035
-0.2025
-0.1975
-0.197
-0.1965
-0.1945
-0.1995
-0.2
-0.195
-0.189
-0.1895
-0.186
-0.178
-0.1785
-0.175
-0.172
-0.17
-0.1705
-0.1735
-0.166
-0.166
-0.1655
-0.1615
-0.1655
-0.165
-0.1645
-0.167
-0.169
-0.1645
-0.1575
-0.1565
-0.161
-0.1615
-0.163
-0.165
-0.158
-0.1575
-0.163
-0.1595
-0.1625
-0.1645
-0.162
-0.164
-0.1655
-0.1715
-0.177
-0.1845
-0.1865
-0.1895
-0.198
-0.2015
-0.2035
-0.202
-0.204
-0.2075
-0.2115
-0.2115
-0.221
-0.2375
-0.239
-0.2385
-0.2405
-0.247
-0.257
-0.26
-0.26
-0.266
-0.2785
-0.286
-0.2865
-0.2875
-0.291
-0.294
-0.296
-0.2935
-0.296
-0.3065
-0.3075
-0.3145
-0.3245
-0.327
-0.3335
-0.3345
-0.3305
-0.3285
-0.338
-0.3445
-0.345
-0.35
-0.3505
-0.3535
-0.3575
-0.361
-0.371
-0.3765
-0.373
-0.363
-0.359
-0.3655
-0.3685
-0.37
-0.3725
-0.372
-0.3745
-0.379
-0.383
-0.3875
-0.3885
-0.389
-0.392
-0.392
-0.3875
-0.392
-0.3945
-0.39
-0.394
-0.391
-0.391
-0.394
-0.388
-0.3855
-0.3885
-0.386
-0.3865
-0.394
-0.389
-0.391
-0.3965
-0.393
-0.388
-0.389
-0.384
-0.382
-0.3915
-0.387
-0.3905
-0.3925
-0.3895
-0.395
-0.395
-0.391
-0.3895
-0.389
-0.3875
-0.3915
-0.391
-0.3905
-0.391
-0.3845
-0.3865
-0.397
-0.3905
-0.3855
-0.388
-0.3805
-0.3835
-0.3865
-0.3905
-0.3975
-0.3905
-0.392
-0.394
-0.392
-0.395
-0.3945
-0.395
-0.399
-0.402
-0.4065
-0.408
-0.4035
-0.4005
-0.404
-0.403
-0.4045
-0.4145
-0.414
-0.4095
-0.404
-0.3985
-0.4035
-0.404
-0.403
-0.408
-0.4055
-0.405
-0.4035
-0.3955
-0.3995
-0.402
-0.404
-0.4105
-0.4095
-0.4005
-0.39
-0.394
-0.4
-0.402
-0.3975
-0.393
-0.394
-0.39
-0.3875
-0.393
-0.4005
-0.402
-0.3975
-0.3975
-0.4025
-0.4085
-0.41
-0.4055
-0.4055
-0.406
-0.413
-0.419
-0.4195
-0.4225
-0.4185
-0.418
-0.421
-0.418
-0.4145
-0.413
-0.4075
-0.4045
-0.4085
-0.401
-0.3985
-0.4055
-0.4105
-0.4075
-0.4005
-0.3975
-0.3905
-0.388
-0.391
-0.389
-0.394
-0.397
-0.397
-0.3965
-0.389
-0.3845
-0.3845
-0.389
-0.388
-0.388
-0.3935
-0.3915
-0.392
-0.3945
-0.3905
-0.3905
-0.393
-0.394
-0.396
-0.3955
-0.4005
-0.3985
-0.392
-0.391
-0.39
-0.3885
-0.383
-0.3835
-0.3895
-0.394
-0.392
-0.3875
-0.3905
-0.392
-0.3955
-0.401
-0.4025
-0.3965
-0.3955
-0.398
-0.3945
-0.394
-0.393
-0.3915
-0.397
-0.3995
-0.3955
-0.3975
-0.4045
-0.407
-0.4145
-0.4095
-0.397
-0.3975
-0.397
-0.394
-0.386
-0.3825
-0.3875
-0.394
-0.399
-0.3985
-0.398
-0.4005
-0.41
-0.413
-0.409
-0.4045
-0.399
-0.402
-0.403
-0.4065
-0.411
-0.409
-0.415
-0.4145
-0.418
-0.42
-0.4155
-0.42
-0.4225
-0.424
-0.4245
-0.426
-0.4285
-0.4265
-0.4235
-0.4265
-0.424
-0.423
-0.4225
-0.4215
-0.4265
-0.4265
-0.4225
-0.4195
-0.427
-0.4285
-0.427
-0.429
-0.4275
-0.428
-0.4315
-0.43
-0.4305
-0.429
-0.4235
-0.424
-0.423
-0.424
-0.416
-0.408
-0.4105
-0.417
-0.4235
-0.419
-0.4115
-0.4135
-0.419
-0.421
-0.4175
-0.4125
-0.4095
-0.414
-0.4225
-0.418
-0.4155
-0.419
-0.4175
-0.4175
-0.4205
-0.4215
-0.4215
-0.4235
-0.428
-0.4305
-0.427
-0.421
-0.417
-0.418
-0.4185
-0.42
-0.4225
-0.422
-0.4255
-0.4275
-0.424
-0.42
-0.4185
-0.417
-0.426
-0.4345
-0.4315
-0.429
-0.4175
-0.4095
-0.413
-0.414
-0.414
-0.419
-0.42
-0.413
-0.418
-0.422
-0.4175
-0.419
-0.423
-0.4255
-0.4215
-0.4185
-0.415
-0.4105
-0.412
-0.4125
-0.414
-0.4105
-0.41
-0.4145
-0.4115
-0.4135
-0.414
-0.4105
-0.4085
-0.4045
-0.4025
-0.4045
-0.4025
-0.4005
-0.404
-0.4045
-0.407
-0.411
-0.4055
-0.404
-0.4125
-0.407
-0.3955
-0.3955
-0.397
-0.4015
-0.4065
-0.403
-0.4045
-0.401
-0.392
-0.396
-0.3975
-0.397
-0.3995
-0.3965
-0.4005
-0.398
-0.3965
-0.4005
-0.3975
-0.4015
-0.4065
-0.4105
-0.41
-0.403
-0.402
-0.4
-0.4035
-0.4125
-0.405
-0.3985
-0.395
-0.399
-0.41
-0.4135
-0.4175
-0.4185
-0.4215
-0.424
-0.4225
-0.422
-0.409
-0.397
-0.3945
-0.397
-0.401
-0.3945
-0.3945
-0.401
-0.401
-0.4085
-0.4095
-0.4005
-0.404
-0.404
-0.403
-0.4045
-0.406
-0.405
-0.407
-0.412
-0.4115
-0.407
-0.4035
-0.409
-0.408
-0.4065
-0.4075
-0.4025
-0.407
-0.4145
-0.4185
-0.42
-0.4195
-0.4185
-0.411
-0.411
-0.416
-0.4175
-0.417
-0.421
-0.4185
-0.413
-0.4195
-0.422
-0.422
-0.425
-0.4285
-0.428
-0.4275
-0.429
-0.4295
-0.437
-0.435
-0.4195
-0.415
-0.419
-0.424
-0.427
-0.4335
-0.437
-0.4335
-0.4325
-0.433
-0.431
-0.4375
-0.443
-0.4385
-0.4425
-0.4445
-0.442
-0.44
-0.443
-0.4445
-0.439
-0.4375
-0.4385
-0.44
-0.443
-0.4405
-0.438
-0.4415
-0.4395
-0.4425
-0.455
-0.465
-0.4585
-0.453
-0.458
-0.4555
-0.462
-0.4775
-0.4835
-0.4715
-0.4555
-0.459
-0.469
-0.4715
-0.4655
-0.4525
-0.4455
-0.449
-0.453
-0.4525
-0.46
-0.465
-0.4615
-0.46
-0.4515
-0.4485
-0.4545
-0.4575
-0.456
-0.45
-0.45
-0.457
-0.4545
-0.4505
-0.454
-0.4515
-0.4485
-0.4495
-0.449
-0.4495
-0.452
-0.4545
-0.456
-0.45
-0.445
-0.449
-0.442
-0.4325
-0.4345
-0.435
-0.4375
-0.434
-0.427
-0.4305
-0.425
-0.4205
-0.424
-0.4315
-0.431
-0.423
-0.4245
-0.42
-0.4235
-0.4315
-0.4345
-0.434
-0.425
-0.4145
-0.4075
-0.4095
-0.4075
-0.405
-0.4035
-0.402
-0.3985
-0.3975
-0.393
-0.393
-0.3995
-0.3935
-0.388
-0.383
-0.381
-0.381
-0.377
-0.3755
-0.3705
-0.3715
-0.37
-0.3605
-0.361
-0.3625
-0.366
-0.372
-0.3645
-0.358
-0.3635
-0.369
-0.369
-0.3765
-0.3805
-0.369
-0.3685
-0.376
-0.3735
-0.367
-0.363
-0.3535
-0.344
-0.344
-0.346
-0.35
-0.3475
-0.3495
-0.3585
-0.361
-0.3615
-0.3585
-0.36
-0.3615
-0.369
-0.377
-0.3775
-0.3795
-0.3865
-0.3975
-0.3995
-0.4045
-0.415
-0.423
-0.4185
-0.415
-0.4125
-0.409
-0.415
-0.4135
-0.415
-0.4225
-0.421
-0.4225
-0.4265
-0.4265
-0.4255
-0.42
-0.4175
-0.4155
-0.4155
-0.4155
-0.4115
-0.413
-0.413
-0.4115
-0.406
-0.4075
-0.416
-0.418
-0.4195
-0.4185
-0.422
-0.4195
-0.4155
-0.423
-0.421
-0.416
-0.4175
-0.4175
-0.418
-0.4155
-0.4115
-0.4125
-0.4145
-0.4165
-0.415
-0.4105
-0.4045
-0.4025
-0.4045
-0.411
-0.412
-0.4105
-0.4115
-0.4135
-0.4095
-0.4075
-0.4135
-0.4125
-0.415
-0.414
-0.4105
-0.406
-0.405
-0.4065
-0.404
-0.4035
-0.4035
-0.405
-0.407
-0.408
-0.41
-0.41
-0.411
-0.416
-0.4185
-0.417
-0.4225
-0.4265
-0.423
-0.4215
-0.4235
-0.4275
-0.428
-0.425
-0.4205
-0.425
-0.4175
-0.4
-0.394
-0.387
-0.379
-0.356
-0.331
-0.31
-0.2835
-0.27
-0.256
-0.2375
-0.2285
-0.218
-0.211
-0.1975
-0.169
-0.1455
-0.121
-0.1035
-0.089
-0.063
-0.0505
-0.039
-0.0215
-0.007
-0.0065
-0.016
-0.022
-0.0365
-0.0565
-0.095
-0.1335
-0.1515
-0.1695
-0.1955
-0.231
-0.263
-0.2905
-0.3115
-0.3305
-0.3565
-0.383
-0.411
-0.4425
-0.4625
-0.4645
-0.4535
-0.448
-0.454
-0.452
-0.452
-0.4515
-0.4415
-0.4265
-0.407
-0.39
-0.3755
-0.3615
-0.353
-0.3435
-0.335
-0.329
-0.3115
-0.2985
-0.303
-0.303
-0.3085
-0.322
-0.3255
-0.3305
-0.3375
-0.342
-0.3415
-0.334
-0.338
-0.344
-0.344
-0.3475
-0.3535
-0.3565
-0.3525
-0.352
-0.354
-0.357
-0.3605
-0.3575
-0.362
-0.364
-0.362
-0.361
-0.3655
-0.3695
-0.357
-0.355
-0.359
-0.361
-0.364
-0.3685
-0.3775
-0.379
-0.372
-0.369
-0.3665
-0.3685
-0.3685
-0.3665
-0.374
-0.378
-0.38
-0.372
-0.372
-0.3745
-0.3685
-0.3665
-0.3645
-0.3685
-0.373
-0.372
-0.3705
-0.376
-0.379
-0.3735
-0.373
-0.38
-0.3755
-0.363
-0.355
-0.3505
-0.354
-0.3605
-0.3635
-0.3615
-0.355
-0.357
-0.361
-0.362
-0.362
-0.355
-0.356
-0.3625
-0.36
-0.363
-0.37
-0.371
-0.3645
-0.3565
-0.357
-0.3615
-0.36
-0.3565
-0.3585
-0.3525
-0.3465
-0.3555
-0.359
-0.343
-0.3375
-0.342
-0.3455
-0.343
-0.339
-0.3405
-0.334
-0.332
-0.3315
-0.3305
-0.332
-0.3305
-0.3275
-0.319
-0.322
-0.3265
-0.324
-0.319
-0.314
-0.316
-0.316
-0.315
-0.317
-0.3205
-0.3195
-0.322
-0.322
-0.318
-0.32
-0.318
-0.321
-0.3245
-0.322
-0.3195
-0.317
-0.315
-0.3095
-0.2935
-0.285
-0.2855
-0.2815
-0.2805
-0.2835
-0.2805
-0.275
-0.2775
-0.28
-0.2755
-0.2715
-0.271
-0.2645
-0.266
-0.2665
-0.258
-0.2595
-0.2605
-0.253
-0.2485
-0.252
-0.255
-0.249
-0.2425
-0.2375
-0.2275
-0.2245
-0.225
-0.2235
-0.2205
-0.2125
-0.2055
-0.2
-0.1995
-0.199
-0.196
-0.1955
-0.196
-0.1935
-0.188
-0.189
-0.1845
-0.18
-0.177
-0.175
-0.172
-0.169
-0.175
-0.1715
-0.171
-0.171
-0.167
-0.1685
-0.1665
-0.169
-0.163
-0.158
-0.1585
-0.151
-0.1575
-0.1595
-0.154
-0.154
-0.153
-0.1485
-0.144
-0.1445
-0.143
-0.145
-0.1455
-0.142
-0.144
-0.1435
-0.1415
-0.142
-0.144
-0.148
-0.1445
-0.1495
-0.1555
-0.147
-0.1485
-0.154
-0.1535
-0.1565
-0.1605
-0.167
-0.1745
-0.1785
-0.185
-0.19
-0.194
-0.1985
-0.2
-0.2065
-0.2135
-0.2165
-0.2265
-0.236
-0.242
-0.2525
-0.2565
-0.264
-0.2655
-0.2695
-0.278
-0.2725
-0.272
-0.281
-0.2865
-0.2905
-0.3
-0.306
-0.309
-0.3175
-0.3235
-0.3195
-0.3165
-0.3165
-0.311
-0.3125
-0.3205
-0.3235
-0.327
-0.3355
-0.3385
-0.342
-0.344
-0.3465
-0.3475
-0.3495
-0.354
-0.35
-0.3535
-0.3565
-0.3565
-0.3535
-0.358
-0.3665
-0.361
-0.359
-0.3595
-0.3645
-0.3685
-0.3675
-0.3695
-0.3725
-0.3745
-0.368
-0.3645
-0.369
-0.37
-0.377
-0.383
-0.376
-0.375
-0.381
-0.374
-0.372
-0.3775
-0.3785
-0.3825
-0.385
-0.3845
-0.381
-0.3785
-0.3805
-0.376
-0.372
-0.3735
-0.376
-0.378
-0.377
-0.378
-0.3815
-0.375
-0.365
-0.367
-0.3675
-0.3645
-0.3645
-0.362
-0.355
-0.355
-0.358
-0.36
-0.358
-0.354
-0.3555
-0.351
-0.3515
-0.3555
-0.3515
-0.349
-0.352
-0.3495
-0.3425
-0.342
-0.341
-0.3425
-0.3465
-0.3465
-0.347
-0.3495
-0.3435
-0.3405
-0.3505
-0.3495
-0.347
-0.343
-0.3415
-0.3455
-0.3425
-0.3425
-0.3515
-0.352
-0.3435
-0.3435
-0.346
-0.347
-0.3415
-0.337
-0.344
-0.342
-0.3405
-0.341
-0.341
-0.344
-0.3415
-0.3365
-0.3365
-0.3385
-0.337
-0.338
-0.3415
-0.34
-0.3365
-0.3335
-0.334
-0.3365
-0.337
-0.338
-0.3385
-0.3395
-0.3405
-0.3435
-0.3415
-0.3385
-0.34
-0.343
-0.345
-0.3445
-0.34
-0.3415
-0.3455
-0.341
-0.3455
-0.349
-0.3405
-0.3345
-0.336
-0.3335
-0.332
-0.338
-0.337
-0.335
-0.337
-0.3375
-0.339
-0.341
-0.3455
-0.3465
-0.349
-0.3515
-0.346
-0.3475
-0.3515
-0.353
-0.354
-0.356
-0.35
-0.341
-0.345
-0.339
-0.3405
-0.346
-0.342
-0.345
-0.345
-0.3425
-0.3395
-0.339
-0.3385
-0.34
-0.341
-0.3405
-0.3425
-0.3415
-0.339
-0.342
-0.341
-0.333
-0.33
-0.335
-0.337
-0.337
-0.3415
-0.335
-0.3335
-0.3345
-0.3285
-0.331
-0.3315
-0.3315
-0.333
-0.3325
-0.334
-0.339
-0.338
-0.3305
-0.3325
-0.339
-0.3395
-0.334
-0.3305
-0.3355
-0.3425
-0.344
-0.3465
-0.3485
-0.3415
-0.342
-0.346
-0.3465
-0.3525
-0.351
-0.3515
-0.3565
-0.3595
-0.363
-0.3585
-0.347
-0.3325
-0.329
-0.337
-0.343
-0.3415
-0.3395
-0.3345
-0.3345
-0.3355
-0.3385
-0.35
-0.3455
-0.3405
-0.339
-0.3355
-0.334
-0.33
-0.3345
-0.3305
-0.3285
-0.3325
-0.333
-0.335
-0.34
-0.348
-0.3425
-0.3425
-0.3425
-0.335
-0.3395
-0.3445
-0.346
-0.348
-0.3495
-0.3515
-0.3595
-0.365
-0.3565
-0.345
-0.346
-0.3505
-0.3495
-0.35
-0.3515
-0.353
-0.349
-0.347
-0.349
-0.349
-0.352
-0.3515
-0.3505
-0.3495
-0.3485
-0.3465
-0.3435
-0.3455
-0.355
-0.3575
-0.355
-0.359
-0.3565
-0.3535
-0.349
-0.349
-0.352
-0.3505
-0.3485
-0.346
-0.348
-0.349
-0.35
-0.349
-0.3505
-0.3565
-0.356
-0.353
-0.35
-0.348
-0.349
-0.3465
-0.348
-0.3485
-0.348
-0.3465
-0.3425
-0.3435
-0.344
-0.3455
-0.342
-0.3385
-0.34
-0.3425
-0.3435
-0.344
-0.3485
-0.352
-0.351
-0.3505
-0.354
-0.354
-0.359
-0.355
-0.349
-0.3505
-0.3485
-0.3505
-0.348
-0.344
-0.3455
-0.349
-0.3535
-0.35
-0.351
-0.3605
-0.3655
-0.3685
-0.3615
-0.349
-0.344
-0.3465
-0.3435
-0.3475
-0.359
-0.3555
-0.3505
-0.348
-0.349
-0.3545
-0.356
-0.359
-0.3565
-0.3575
-0.3595
-0.358
-0.3665
-0.369
-0.3685
-0.367
-0.363
-0.3595
-0.358
-0.359
-0.355
-0.362
-0.364
-0.3555
-0.354
-0.353
-0.3555
-0.355
-0.352
-0.353
-0.3535
-0.3585
-0.3605
-0.364
-0.364
-0.36
-0.359
-0.3615
-0.366
-0.3635
-0.366
-0.3675
-0.37
-0.376
-0.38
-0.3805
-0.371
-0.366
-0.3645
-0.3625
-0.363
-0.3705
-0.372
-0.3695
-0.369
-0.3655
-0.3645
-0.3625
-0.362
-0.364
-0.364
-0.3615
-0.364
-0.3625
-0.3605
-0.359
-0.354
-0.3515
-0.3495
-0.3465
-0.343
-0.3455
-0.349
-0.3425
-0.3375
-0.338
-0.332
-0.338
-0.345
-0.3455
-0.349
-0.347
-0.3485
-0.34
-0.331
-0.334
-0.3285
-0.3265
-0.333
-0.3305
-0.3225
-0.323
-0.325
-0.3265
-0.329
-0.331
-0.338
-0.3375
-0.33
-0.327
-0.3305
-0.335
-0.333
-0.3325
-0.331
-0.332
-0.3335
-0.332
-0.336
-0.336
-0.337
-0.342
-0.345
-0.341
-0.3265
-0.3205
-0.327
-0.3355
-0.3395
-0.3395
-0.3385
-0.336
-0.337
-0.338
-0.333
-0.3305
-0.3275
-0.324
-0.3245
-0.325
-0.331
-0.3335
-0.3265
-0.33
-0.3395
-0.3345
-0.329
-0.3305
-0.333
-0.336
-0.341
-0.3445
-0.3435
-0.341
-0.3405
-0.3435
-0.339
-0.341
-0.3475
-0.348
-0.351
-0.348
-0.346
-0.342
-0.3425
-0.349
-0.3435
-0.336
-0.3375
-0.3415
-0.3495
-0.344
-0.334
-0.338
-0.342
-0.3445
-0.3455
-0.346
-0.3485
-0.352
-0.341
-0.335
-0.339
-0.345
-0.3515
-0.344
-0.339
-0.342
-0.344
-0.342
-0.3475
-0.3495
-0.3445
-0.3455
-0.343
-0.3455
-0.3535
-0.3465
-0.338
-0.337
-0.3415
-0.344
-0.343
-0.3495
-0.3505
-0.343
-0.3415
-0.3435
-0.345
-0.351
-0.351
-0.343
-0.3395
-0.338
-0.3335
-0.3315
-0.3255
-0.323
-0.328
-0.328
-0.332
-0.333
-0.327
-0.323
-0.32
-0.3165
-0.3165
-0.325
-0.3325
-0.3355
-0.339
-0.34
-0.3415
-0.345
-0.336
-0.331
-0.3285
-0.315
-0.3085
-0.304
-0.3005
-0.306
-0.3085
-0.3025
-0.305
-0.31
-0.3095
-0.314
-0.3165
-0.3195
-0.3255
-0.3285
-0.333
-0.337
-0.339
-0.344
-0.351
-0.356
-0.3665
-0.37
-0.3605
-0.362
-0.364
-0.364
-0.368
-0.375
-0.3755
-0.376
-0.3855
-0.381
-0.3755
-0.375
-0.379
-0.3825
-0.378
-0.3785
-0.3765
-0.3765
-0.378
-0.3775
-0.3795
-0.385
-0.383
-0.3825
-0.3845
-0.3795
-0.3805
-0.3815
-0.3815
-0.383
-0.3855
-0.391
-0.391
-0.389
-0.3845
-0.382
-0.392
-0.395
-0.385
-0.3855
-0.394
-0.401
-0.397
-0.3875
-0.3815
-0.3785
-0.379
-0.3775
-0.379
-0.379
-0.3785
-0.384
-0.384
-0.3755
-0.368
-0.36
-0.3625
-0.365
-0.366
-0.368
-0.371
-0.372
-0.37
-0.378
-0.38
-0.377
-0.379
-0.383
-0.387
-0.385
-0.3825
-0.3825
-0.386
-0.3935
-0.397
-0.3975
-0.404
-0.4115
-0.41
-0.405
-0.399
-0.3975
-0.3985
-0.3975
-0.396
-0.389
-0.3825
-0.369
-0.3525
-0.344
-0.3325
-0.3175
-0.296
-0.264
-0.2305
-0.2125
-0.196
-0.177
-0.168
-0.1575
-0.145
-0.133
-0.1035
-0.073
-0.056
-0.0395
-0.021
0.003
0.0165
0.0295
0.0445
0.051
0.049
0.047
0.051
0.0405
0.007
-0.033
-0.0635
-0.086
-0.1115
-0.144
-0.1785
-0.217
-0.234
-0.253
-0.2855
-0.302
-0.3235
-0.35
-0.3745
-0.396
-0.4025
-0.3975
-0.392
-0.3915
-0.3935
-0.4
-0.395
-0.377
-0.3635
-0.347
-0.3345
-0.3275
-0.3125
-0.299
-0.2905
-0.2825
-0.2775
-0.2765
-0.274
-0.2765
-0.2775
-0.277
-0.2855
-0.283
-0.283
-0.291
-0.292
-0.2945
-0.2965
-0.2985
-0.2975
-0.3005
-0.302
-0.3015
-0.306
-0.309
-0.3095
-0.3105
-0.3165
-0.316
-0.319
-0.3205
-0.3155
-0.3205
-0.3225
-0.3225
-0.3235
-0.3255
-0.329
-0.328
-0.318
-0.315
-0.31
-0.303
-0.305
-0.3045
-0.3085
-0.3035
-0.2985
-0.301
-0.305
-0.308
-0.3055
-0.304
-0.304
-0.3055
-0.304
-0.3005
-0.2985
-0.296
-0.296
-0.294
-0.295
-0.3035
-0.309
-0.309
-0.3025
-0.301
-0.3065
-0.312
-0.316
-0.316
-0.31
-0.303
-0.3045
-0.314
-0.3135
-0.3105
-0.3095
-0.305
-0.3095
-0.3135
-0.3085
-0.306
-0.3065
-0.3005
-0.2945
-0.2965
-0.2955
-0.2905
-0.292
-0.2925
-0.297
-0.3045
-0.3055
-0.301
-0.287
-0.2745
-0.274
-0.2725
-0.277
-0.2825
-0.275
-0.269
-0.2695
-0.2725
-0.274
-0.2705
-0.2695
-0.268
-0.267
-0.267
-0.2695
-0.2735
-0.27
-0.267
-0.264
-0.262
-0.264
-0.261
-0.262
-0.2615
-0.2615
-0.261
-0.262
-0.2635
-0.263
-0.267
-0.267
-0.268
-0.2675
-0.269
-0.267
-0.269
-0.2725
-0.2635
-0.251
-0.2465
-0.251
-0.25
-0.2485
-0.2435
-0.2435
-0.243
-0.235
-0.234
-0.236
-0.2385
-0.236
-0.235
-0.235
-0.2285
-0.2285
-0.2355
-0.235
-0.231
-0.2255
-0.2215
-0.225
-0.227
-0.223
-0.2185
-0.2155
-0.212
-0.2135
-0.208
-0.2075
-0.211
-0.205
-0.2025
-0.195
-0.19
-0.1915
-0.1895
-0.187
-0.186
-0.194
-0.1935
-0.176
-0.158
-0.1545
-0.162
-0.1655
-0.162
-0.157
-0.146
-0.1375
-0.1445
-0.1425
-0.1415
-0.143
-0.1395
-0.1435
-0.1375
-0.14
-0.143
-0.138
-0.1375
-0.134
-0.132
-0.1305
-0.134
-0.1345
-0.132
-0.1325
-0.1335
-0.136
-0.1305
-0.127
-0.131
-0.133
-0.1365
-0.134
-0.13
-0.1245
-0.122
-0.1225
-0.125
-0.126
-0.125
-0.1305
-0.134
-0.137
-0.1435
-0.148
-0.1535
-0.163
-0.16
-0.1635
-0.172
-0.175
-0.18
-0.1825
-0.1935
-0.196
-0.195
-0.205
-0.2125
-0.2175
-0.2255
-0.2385
-0.2465
-0.247
-0.253
-0.2605
-0.2665
-0.2725
-0.268
-0.264
-0.272
-0.2775
-0.2865
-0.301
-0.307
-0.3085
-0.3105
-0.3125
-0.3125
-0.313
-0.313
-0.318
-0.3185
-0.3205
-0.3265
-0.3275
-0.33
-0.3385
-0.3415
-0.3425
-0.3445
-0.3455
-0.347
-0.347
-0.3535
-0.355
-0.355
-0.358
-0.3605
-0.36
-0.3575
-0.356
-0.3605
-0.363
-0.3565
-0.355
-0.3505
-0.348
-0.352
-0.3525
-0.352
-0.3505
-0.3535
-0.357
-0.3555
-0.362
-0.3705
-0.3685
-0.369
-0.371
-0.368
-0.3695
-0.372
-0.3675
-0.364
-0.3685
-0.376
-0.379
-0.373
-0.368
-0.3695
-0.368
-0.367
-0.3675
-0.366
-0.3675
-0.3675
-0.365
-0.362
-0.357
-0.358
-0.357
-0.358
-0.36
-0.3615
-0.3655
-0.3695
-0.3715
-0.3725
-0.375
-0.373
-0.3725
-0.377
-0.3785
-0.3795
-0.383
-0.389
-0.384
-0.3755
-0.366
-0.3565
-0.361
-0.3655
-0.365
-0.3645
-0.3645
-0.364
-0.3665
-0.368
-0.3675
-0.3675
-0.368
-0.3695
-0.364
-0.3645
-0.365
-0.357
-0.3575
-0.3625
-0.3635
-0.371
-0.3705
-0.3675
-0.3695
-0.363
-0.3665
-0.3685
-0.365
-0.367
-0.3655
-0.367
-0.3685
-0.3695
-0.371
-0.37
-0.373
-0.377
-0.3775
-0.3765
-0.371
-0.3655
-0.3685
-0.3715
-0.371
-0.3705
-0.371
-0.3705
-0.365
-0.3645
-0.365
-0.3635
-0.3655
-0.363
-0.3635
-0.3605
-0.357
-0.3625
-0.3625
-0.363
-0.3655
-0.3625
-0.3565
-0.357
-0.3565
-0.3535
-0.355
-0.354
-0.355
-0.3565
-0.356
-0.356
-0.3565
-0.358
-0.3615
-0.3635
-0.3645
-0.371
-0.3755
-0.3765
-0.3795
-0.3835
-0.3885
-0.389
-0.3785
-0.37
-0.366
-0.363
-0.367
-0.3725
-0.376
-0.3795
-0.3755
-0.3775
-0.383
-0.3825
-0.3775
-0.368
-0.3615
-0.365
-0.3695
-0.3705
-0.371
-0.371
-0.3715
-0.372
-0.3775
-0.3775
-0.376
-0.376
-0.369
-0.374
-0.3795
-0.3725
-0.368
-0.3645
-0.366
-0.366
-0.3645
-0.3755
-0.3805
-0.375
-0.37
-0.361
-0.363
-0.3725
-0.369
-0.3675
-0.368
-0.3705
-0.3755
-0.379
-0.3795
-0.3695
-0.374
-0.377
-0.3805
-0.389
-0.384
-0.3815
-0.377
-0.3775
-0.382
-0.3895
-0.393
-0.387
-0.3795
-0.374
-0.376
-0.3835
-0.3915
-0.388
-0.3865
-0.388
-0.3875
-0.389
-0.3875
-0.39
-0.3895
-0.3905
-0.3885
-0.3835
-0.384
-0.3855
-0.387
-0.3915
-0.3905
-0.393
-0.3985
-0.3955
-0.394
-0.3915
-0.3945
-0.397
-0.3985
-0.3995
-0.391
-0.394
-0.403
-0.399
-0.3895
-0.3835
-0.3885
-0.393
-0.3895
-0.3895
-0.3945
-0.3995
-0.398
-0.393
-0.3865
-0.384
-0.3875
-0.389
-0.3865
-0.385
-0.3875
-0.39
-0.385
-0.3815
-0.3885
-0.383
-0.3735
-0.3745
-0.379
-0.385
-0.385
-0.3825
-0.383
-0.381
-0.3775
-0.3765
-0.377
-0.376
-0.3805
-0.3885
-0.389
-0.381
-0.369
-0.3715
-0.3795
-0.382
-0.383
-0.392
-0.3985
-0.392
-0.397
-0.401
-0.3975
-0.3995
-0.3995
-0.399
-0.3965
-0.393
-0.3955
-0.3905
-0.3835
-0.3815
-0.382
-0.389
-0.388
-0.384
-0.383
-0.384
-0.3845
-0.383
-0.383
-0.383
-0.379
-0.3775
-0.3795
-0.3795
-0.383
-0.3815
-0.383
-0.3855
-0.3845
-0.383
-0.3765
-0.3785
-0.3825
-0.3865
-0.3845
-0.3865
-0.389
-0.3865
-0.394
-0.386
-0.379
-0.378
-0.3745
-0.3815
-0.3825
-0.3875
-0.389
-0.3875
-0.392
-0.3915
-0.391
-0.3885
-0.3935
-0.398
-0.3945
-0.3965
-0.396
-0.3995
-0.403
-0.3975
-0.3945
-0.389
-0.389
-0.39
-0.3865
-0.3865
-0.3855
-0.3835
-0.3885
-0.4
-0.397
-0.397
-0.398
-0.392
-0.39
-0.385
-0.383
-0.3845
-0.386
-0.387
-0.392
-0.3915
-0.389
-0.3965
-0.401
-0.394
-0.391
-0.3865
-0.3855
-0.3925
-0.3925
-0.399
-0.402
-0.3955
-0.3945
-0.3855
-0.372
-0.37
-0.368
-0.3695
-0.375
-0.3825
-0.383
-0.376
-0.376
-0.373
-0.3685
-0.3685
-0.3715
-0.37
-0.3665
-0.3665
-0.365
-0.3665
-0.365
-0.366
-0.3675
-0.359
-0.359
-0.362
-0.359
-0.355
-0.3535
-0.3615
-0.365
-0.361
-0.36
-0.366
-0.3645
-0.3585
-0.36
-0.354
-0.352
-0.357
-0.362
-0.3625
-0.3575
-0.3545
-0.3525
-0.3545
-0.356
-0.3525
-0.352
-0.3545
-0.3565
-0.349
-0.3465
-0.3465
-0.3435
-0.3455
-0.3455
-0.347
-0.346
-0.345
-0.344
-0.3365
-0.3375
-0.339
-0.338
-0.337
-0.34
-0.345
-0.339
-0.335
-0.3345
-0.3325
-0.322
-0.31
-0.304
-0.297
-0.2885
-0.286
-0.2905
-0.293
-0.2925
-0.292
-0.2985
-0.3025
-0.305
-0.312
-0.3145
-0.3215
-0.326
-0.329
-0.3365
-0.3425
-0.349
-0.349
-0.3425
-0.346
-0.356
-0.3605
-0.3575
-0.3485
-0.347
-0.3475
-0.3485
-0.3505
-0.36
-0.3675
-0.3635
-0.3645
-0.3575
-0.3525
-0.3495
-0.346
-0.3555
-0.3545
-0.3505
-0.357
-0.3575
-0.352
-0.3515
-0.354
-0.3555
-0.3525
-0.351
-0.351
-0.347
-0.352
-0.36
-0.3585
-0.3605
-0.3625
-0.363
-0.3625
-0.362
-0.3605
-0.3605
-0.368
-0.367
-0.3655
-0.368
-0.371
-0.371
-0.365
-0.371
-0.3745
-0.37
-0.3675
-0.3605
-0.3595
-0.3615
-0.362
-0.3635
-0.363
-0.365
-0.364
-0.3665
-0.368
-0.366
-0.363
-0.3605
-0.3635
-0.362
-0.361
-0.3615
-0.361
-0.362
-0.3605
-0.359
-0.3585
-0.3645
-0.3675
-0.37
-0.3775
-0.377
-0.375
-0.377
-0.3885
-0.394
-0.392
-0.385
-0.3665
-0.3545
-0.3555
-0.358
-0.357
-0.3495
-0.332
-0.3165
-0.299
-0.279
-0.258
-0.246
-0.238
-0.219
-0.2015
-0.184
-0.1705
-0.1555
-0.1325
-0.1065
-0.0845
-0.0715
-0.0575
-0.043
-0.0325
-0.028
-0.017
0.0005
0.0105
0.018
0.007
-0.0095
-0.0175
-0.052
-0.088
-0.119
-0.146
-0.168
-0.196
-0.227
-0.259
-0.2725
-0.2945
-0.318
-0.333
-0.3535
-0.374
-0.3965
-0.411
-0.415
-0.415
-0.4115
-0.411
-0.4185
-0.417
-0.4145
-0.4085
-0.3825
-0.343
-0.315
-0.3105
-0.3055
-0.2935
-0.2795
-0.277
-0.2755
-0.268
-0.2605
-0.252
-0.2595
-0.2635
-0.2565
-0.263
-0.273
-0.2775
-0.276
-0.274
-0.279
-0.2865
-0.2875
-0.2885
-0.2865
-0.281
-0.289
-0.298
-0.303
-0.3
-0.295
-0.297
-0.297
-0.2975
-0.3035
-0.3085
-0.3045
-0.3045
-0.3055
-0.3065
-0.3075
-0.306
-0.3085
-0.309
-0.3085
-0.308
-0.3065
-0.307
-0.306
-0.302
-0.304
-0.304
-0.303
-0.306
-0.308
-0.3115
-0.3075
-0.306
-0.308
-0.3065
-0.303
-0.297
-0.299
-0.3045
-0.3015
-0.301
-0.3035
-0.304
-0.3095
-0.312
-0.313
-0.312
-0.319
-0.3215
-0.3135
-0.315
-0.3175
-0.316
-0.313
-0.319
-0.3155
-0.3115
-0.315
-0.315
-0.3135
-0.306
-0.3115
-0.3125
-0.3105
-0.314
-0.3105
-0.302
-0.2935
-0.2915
-0.293
-0.2955
-0.2935
-0.2915
-0.2935
-0.2885
-0.2805
-0.2765
-0.276
-0.279
-0.2805
-0.2815
-0.2785
-0.278
-0.2825
-0.285
-0.2915
-0.2905
-0.2845
-0.28
-0.2795
-0.283
-0.2785
-0.272
-0.2675
-0.2645
-0.2675
-0.272
-0.274
-0.274
-0.276
-0.274
-0.277
-0.2855
-0.2785
-0.274
-0.273
-0.2715
-0.2745
-0.271
-0.2705
-0.2675
-0.2645
-0.2645
-0.2595
-0.258
-0.2575
-0.2575
-0.2555
-0.2515
-0.2485
-0.25
-0.2485
-0.2425
-0.242
-0.238
-0.24
-0.244
-0.242
-0.2385
-0.2405
-0.2405
-0.2285
-0.2265
-0.228
-0.23
-0.243
-0.25
-0.238
-0.2145
-0.194
-0.1955
-0.2025
-0.2005
-0.206
-0.2035
-0.198
-0.1995
-0.196
-0.195
-0.19
-0.18
-0.175
-0.171
-0.174
-0.174
-0.168
-0.168
-0.1675
-0.161
-0.158
-0.1615
-0.157
-0.1505
-0.1595
-0.16
-0.1495
-0.1505
-0.1455
-0.14
-0.1415
-0.143
-0.144
-0.142
-0.143
-0.147
-0.147
-0.1425
-0.134
-0.1305
-0.1325
-0.1335
-0.137
-0.1345
-0.135
-0.139
-0.136
-0.134
-0.1345
-0.141
-0.1445
-0.143
-0.146
-0.15
-0.1555
-0.1555
-0.1505
-0.1555
-0.16
-0.159
-0.1635
-0.1695
-0.177
-0.188
-0.197
-0.2035
-0.207
-0.2055
-0.2075
-0.21
-0.2155
-0.2245
-0.231
-0.2375
-0.242
-0.243
-0.254
-0.263
-0.2595
-0.262
-0.2685
-0.2715
-0.2705
-0.2725
-0.2775
-0.284
-0.294
-0.301
-0.2985
-0.2995
-0.3055
-0.312
-0.3185
-0.32
-0.325
-0.3265
-0.3245
-0.33
-0.3405
-0.339
-0.3285
-0.3325
-0.332
-0.328
-0.3375
-0.3355
-0.333
-0.339
-0.3405
-0.3445
-0.3445
-0.338
-0.3395
-0.3425
-0.3435
-0.343
-0.3345
-0.331
-0.3365
-0.34
-0.3385
-0.3355
-0.3305
-0.327
-0.325
-0.3315
-0.342
-0.343
-0.348
-0.35
-0.3465
-0.351
-0.3495
-0.3425
-0.348
-0.3505
-0.3505
-0.3435
-0.3285
-0.324
-0.329
-0.338
-0.3385
-0.3345
-0.326
-0.32
-0.33
-0.337
-0.333
-0.3355
-0.3375
-0.338
-0.342
-0.3455
-0.3445
-0.347
-0.3495
-0.349
-0.3525
-0.354
-0.355
-0.352
-0.346
-0.3465
-0.3415
-0.3355
-0.3465
-0.3515
-0.3455
-0.343
-0.341
-0.341
-0.347
-0.349
-0.3495
-0.3505
-0.3475
-0.348
-0.3535
-0.356
-0.353
-0.353
-0.359
-0.36
-0.357
-0.356
-0.353
-0.3475
-0.352
-0.3585
-0.352
-0.347
-0.349
-0.352
-0.355
-0.355
-0.3585
-0.3545
-0.349
-0.352
-0.3525
-0.347
-0.3415
-0.3465
-0.3485
-0.3475
-0.348
-0.3415
-0.3395
-0.3435
-0.346
-0.349
-0.3525
-0.3535
-0.354
-0.3555
-0.349
-0.3425
-0.344
-0.338
-0.3385
-0.3495
-0.351
-0.3465
-0.347
-0.347
-0.3475
-0.3515
-0.352
-0.35
-0.352
-0.361
-0.3645
-0.3595
-0.351
-0.3495
-0.3535
-0.3525
-0.3485
-0.3455
-0.349
-0.358
-0.364
-0.36
-0.3515
-0.342
-0.337
-0.341
-0.343
-0.347
-0.3515
-0.3475
-0.3465
-0.349
-0.3495
-0.346
-0.3415
-0.345
-0.346
-0.344
-0.3445
-0.3405
-0.3375
-0.34
-0.3415
-0.345
-0.3425
-0.332
-0.332
-0.3315
-0.328
-0.3245
-0.3215
-0.326
-0.3265
-0.3275
-0.3295
-0.3285
-0.3255
-0.326
-0.3265
-0.3235
-0.324
-0.3245
-0.3245
-0.3255
-0.3245
-0.3295
-0.336
-0.3385
-0.342
-0.341
-0.341
-0.348
-0.3445
-0.338
-0.3415
-0.34
-0.3395
-0.3435
-0.34
-0.34
-0.3405
-0.3345
-0.329
-0.333
-0.335
-0.3345
-0.335
-0.334
-0.335
-0.3365
-0.3385
-0.3385
-0.3395
-0.339
-0.333
-0.3305
-0.33
-0.3285
-0.3285
-0.33
-0.325
-0.325
-0.3375
-0.3395
-0.3405
-0.341
-0.338
-0.341
-0.35
-0.354
-0.345
-0.3335
-0.3345
-0.3475
-0.3455
-0.343
-0.345
-0.3465
-0.345
-0.345
-0.354
-0.3555
-0.356
-0.3515
-0.344
-0.342
-0.3415
-0.3475
-0.35
-0.3475
-0.3545
-0.3555
-0.3505
-0.3515
-0.347
-0.3505
-0.3495
-0.348
-0.3495
-0.3455
-0.3435
-0.3445
-0.346
-0.344
-0.348
-0.35
-0.353
-0.349
-0.343
-0.3465
-0.348
-0.345
-0.3455
-0.3445
-0.3425
-0.346
-0.3475
-0.3495
-0.352
-0.3505
-0.35
-0.3515
-0.3555
-0.354
-0.3465
-0.339
-0.3375
-0.3365
-0.341
-0.3465
-0.3455
-0.351
-0.351
-0.348
-0.347
-0.3505
-0.3535
-0.3555
-0.3585
-0.364
-0.372
-0.3755
-0.3725
-0.3655
-0.3705
-0.3675
-0.364
-0.368
-0.3695
-0.373
-0.3745
-0.3755
-0.3725
-0.3725
-0.3695
-0.3695
-0.371
-0.3755
-0.3785
-0.3715
-0.375
-0.38
-0.379
-0.3735
-0.366
-0.361
-0.362
-0.3635
-0.3655
-0.372
-0.372
-0.3725
-0.376
-0.379
-0.383
-0.3795
-0.377
-0.377
-0.384
-0.388
-0.382
-0.38
-0.381
-0.382
-0.378
-0.377
-0.3785
-0.3795
-0.377
-0.368
-0.364
-0.365
-0.3725
-0.3775
-0.376
-0.3695
-0.368
-0.3745
-0.372
-0.3725
-0.371
-0.3675
-0.371
-0.367
-0.3695
-0.3705
-0.364
-0.367
-0.374
-0.375
-0.376
-0.384
-0.383
-0.378
-0.3745
-0.372
-0.3765
-0.378
-0.37
-0.364
-0.362
-0.3635
-0.3645
-0.3625
-0.364
-0.365
-0.366
-0.3615
-0.357
-0.3585
-0.352
-0.349
-0.347
-0.348
-0.353
-0.3505
-0.3475
-0.346
-0.3445
-0.336
-0.328
-0.328
-0.326
-0.324
-0.3205
-0.3195
-0.3195
-0.324
-0.3335
-0.338
-0.336
-0.325
-0.313
-0.3055
-0.304
-0.3115
-0.3145
-0.313
-0.32
-0.3255
-0.3235
-0.32
-0.301
-0.281
-0.2825
-0.284
-0.2805
-0.2805
-0.2815
-0.279
-0.2785
-0.2865
-0.284
-0.2835
-0.288
-0.291
-0.297
-0.292
-0.2915
-0.307
-0.3185
-0.323
-0.3295
-0.337
-0.3405
-0.3475
-0.356
-0.353
-0.3475
-0.3485
-0.352
-0.3565
-0.363
-0.3615
-0.356
-0.3565
-0.3595
-0.36
-0.3595
-0.3615
-0.3625
-0.365
-0.363
-0.358
-0.3555
-0.3505
-0.3485
-0.3485
-0.35
-0.351
-0.3515
-0.3495
-0.344
-0.3475
-0.3505
-0.345
-0.3455
-0.347
-0.342
-0.344
-0.3435
-0.337
-0.337
-0.337
-0.336
-0.336
-0.339
-0.333
-0.3275
-0.3375
-0.337
-0.334
-0.3345
-0.332
-0.3275
-0.3195
-0.324
-0.3255
-0.3265
-0.3315
-0.3295
-0.329
-0.3325
-0.3365
-0.334
-0.3325
-0.333
-0.333
-0.332
-0.337
-0.345
-0.349
-0.3415
-0.338
-0.3425
-0.3395
-0.343
-0.34
-0.343
-0.345
-0.345
-0.3475
-0.346
-0.3485
-0.349
-0.3575
-0.3575
-0.352
-0.346
-0.3365
-0.3355
-0.326
-0.32
-0.32
-0.31
-0.299
-0.2805
-0.2615
-0.2485
-0.2355
-0.2205
-0.2075
-0.196
-0.178
-0.166
-0.146
-0.1285
-0.1115
-0.079
-0.0555
-0.0465
-0.043
-0.027
-0.0125
0.0005
0.0185
0.0315
0.0315
0.0185
0.008
0.001
-0.0205
-0.0585
-0.088
-0.1125
-0.134
-0.163
-0.196
-0.2265
-0.25
-0.2595
-0.2815
-0.3065
-0.3215
-0.3435
-0.366
-0.384
-0.393
-0.3935
-0.389
-0.382
-0.383
-0.3815
-0.3765
-0.3735
-0.3675
-0.358
-0.3295
-0.3075
-0.3015
-0.2925
-0.286
-0.2795
-0.274
-0.2665
-0.262
-0.262
-0.264
-0.2695
-0.2715
-0.2735
-0.284
-0.2905
-0.289
-0.2925
-0.293
-0.296
-0.299
-0.296
-0.302
-0.3095
-0.309
-0.3105
-0.3155
-0.318
-0.3195
-0.325
-0.328
-0.324
-0.3195
-0.316
-0.3175
-0.3235
-0.322
-0.32
-0.326
-0.329
-0.3195
-0.3105
-0.3115
-0.315
-0.32
-0.3225
-0.325
-0.3265
-0.3285
-0.3265
-0.33
-0.329
-0.3185
-0.321
-0.322
-0.3245
-0.322
-0.3135
-0.3155
-0.318
-0.3205
-0.321
-0.3215
-0.3235
-0.3195
-0.3135
-0.3175
-0.32
-0.3145
-0.3135
-0.3125
-0.314
-0.312
-0.3095
-0.318
-0.319
-0.3135
-0.3135
-0.3155
-0.316
-0.3165
-0.3185
-0.313
-0.3115
-0.315
-0.314
-0.317
-0.3215
-0.3155
-0.309
-0.3105
-0.3085
-0.31
-0.309
-0.3035
-0.299
-0.292
-0.2945
-0.297
-0.295
-0.297
-0.3
-0.3025
-0.2985
-0.2975
-0.299
-0.292
-0.284
-0.2825
-0.282
-0.2825
-0.281
-0.279
-0.2785
-0.278
-0.2695
-0.267
-0.272
-0.271
-0.267
-0.263
-0.269
-0.27
-0.262
-0.262
-0.2645
-0.2635
-0.2635
-0.272
-0.2765
-0.2705
-0.26
-0.2515
-0.2495
-0.2475
-0.243
-0.2355
-0.235
-0.237
-0.237
-0.237
-0.227
-0.228
-0.233
-0.2295
-0.2245
-0.223
-0.232
-0.2365
-0.2315
-0.227
-0.2255
-0.2175
-0.2145
-0.214
-0.21
-0.21
-0.209
-0.2025
-0.2005
-0.203
-0.2005
-0.199
-0.194
-0.1915
-0.1885
-0.1815
-0.179
-0.174
-0.173
-0.1745
-0.1725
-0.169
-0.168
-0.1675
-0.1655
-0.1685
-0.1685
-0.1625
-0.1595
-0.157
-0.153
-0.1515
-0.151
-0.1445
-0.145
-0.147
-0.1475
-0.1475
-0.143
-0.143
-0.143
-0.1405
-0.136
-0.1335
-0.132
-0.133
-0.1395
-0.14
-0.139
-0.1415
-0.1365
-0.133
-0.1275
-0.121
-0.124
-0.122
-0.1215
-0.1255
-0.1315
-0.136
-0.1315
-0.1255
-0.125
-0.131
-0.1335
-0.137
-0.1405
-0.138
-0.1435
-0.1445
-0.144
-0.152
-0.1535
-0.1575
-0.163
-0.1655
-0.165
-0.168
-0.181
-0.186
-0.1885
-0.194
-0.2015
-0.2095
-0.215
-0.2185
-0.223
-0.227
-0.222
-0.221
-0.232
-0.239
-0.2465
-0.256
-0.258
-0.2615
-0.262
-0.262
-0.2635
-0.2665
-0.277
-0.276
-0.282
-0.2955
-0.297
-0.298
-0.301
-0.3
-0.3045
-0.311
-0.3125
-0.318
-0.3235
-0.3205
-0.3215
-0.328
-0.3285
-0.328
-0.3265
-0.319
-0.324
-0.3285
-0.329
-0.337
-0.3385
-0.3415
-0.3465
-0.3495
-0.3515
-0.356
-0.3555
-0.351
-0.354
-0.3535
-0.348
-0.344
-0.346
-0.353
-0.362
-0.363
-0.356
-0.3525
-0.352
-0.3605
-0.366
-0.3645
-0.366
-0.368
-0.3685
-0.371
-0.3725
-0.3685
-0.365
-0.3675
-0.369
-0.3695
-0.3745
-0.38
-0.375
-0.374
-0.3785
-0.3745
-0.3715
-0.374
-0.374
-0.3665
-0.3625
-0.359
-0.3615
-0.3665
-0.3605
-0.3575
-0.3515
-0.3445
-0.341
-0.3435
-0.352
-0.3515
-0.3485
-0.3505
-0.356
-0.3575
-0.355
-0.362
-0.363
-0.354
-0.348
-0.3445
-0.3485
-0.351
-0.35
-0.3455
-0.347
-0.3575
-0.362
-0.363
-0.3635
-0.3655
-0.3665
-0.3665
-0.3655
-0.3615
-0.366
-0.3725
-0.3785
-0.3755
-0.367
-0.3715
-0.378
-0.382
-0.381
-0.38
-0.3795
-0.3785
-0.3775
-0.3695
-0.3635
-0.3595
-0.352
-0.3505
-0.357
-0.36
-0.361
-0.3595
-0.3585
-0.3585
-0.353
-0.349
-0.35
-0.356
-0.3535
-0.3515
-0.3565
-0.355
-0.3565
-0.3585
-0.359
-0.3575
-0.3565
-0.3585
-0.3595
-0.3565
-0.359
-0.3665
-0.3705
-0.368
-0.3595
-0.3625
-0.367
-0.364
-0.3655
-0.365
-0.371
-0.371
-0.364
-0.364
-0.359
-0.36
-0.3565
-0.3505
-0.355
-0.349
-0.3475
-0.3525
-0.3515
-0.3505
-0.352
-0.3545
-0.3525
-0.3575
-0.3585
-0.354
-0.352
-0.353
-0.359
-0.3595
-0.3595
-0.3605
-0.357
-0.3635
-0.3735
-0.377
-0.372
-0.37
-0.3615
-0.3505
-0.3525
-0.3515
-0.3565
-0.361
-0.3625
-0.3575
-0.3585
-0.364
-0.3625
-0.3635
-0.3625
-0.363
-0.3595
-0.3585
-0.36
-0.357
-0.3585
-0.3575
-0.3555
-0.3585
-0.3595
-0.3625
-0.3645
-0.365
-0.362
-0.354
-0.353
-0.3565
-0.3505
-0.344
-0.3455
-0.3405
-0.3395
-0.343
-0.3465
-0.3425
-0.34
-0.3405
-0.3335
-0.336
-0.3425
-0.343
-0.339
-0.3365
-0.3375
-0.334
-0.3315
-0.3355
-0.335
-0.334
-0.3355
-0.332
-0.333
-0.343
-0.342
-0.334
-0.332
-0.326
-0.326
-0.3325
-0.338
-0.3385
-0.336
-0.3365
-0.338
-0.34
-0.3405
-0.347
-0.353
-0.354
-0.353
-0.354
-0.3585
-0.3575
-0.352
-0.348
-0.345
-0.3415
-0.3485
-0.355
-0.3525
-0.3575
-0.3595
-0.3625
-0.3625
-0.3575
-0.358
-0.357
-0.36
-0.3625
-0.3575
-0.354
-0.3535
-0.349
-0.3465
-0.3535
-0.353
-0.35
-0.3535
-0.356
-0.3575
-0.361
-0.363
-0.364
-0.363
-0.362
-0.363
-0.3655
-0.3575
-0.351
-0.356
-0.354
-0.355
-0.354
-0.3505
-0.356
-0.36
-0.3635
-0.359
-0.355
-0.3595
-0.36
-0.366
-0.3655
-0.3635
-0.3675
-0.369
-0.3725
-0.371
-0.3695
-0.3685
-0.3645
-0.3695
-0.3685
-0.364
-0.3715
-0.3725
-0.3715
-0.374
-0.37
-0.3645
-0.367
-0.365
-0.3645
-0.3705
-0.373
-0.375
-0.3725
-0.379
-0.381
-0.376
-0.382
-0.377
-0.3705
-0.377
-0.376
-0.368
-0.368
-0.3725
-0.3685
-0.364
-0.362
-0.3625
-0.3625
-0.367
-0.368
-0.364
-0.368
-0.367
-0.369
-0.3675
-0.366
-0.366
-0.3615
-0.366
-0.367
-0.365
-0.3645
-0.365
-0.3675
-0.368
-0.375
-0.3835
-0.3855
-0.3875
-0.399
-0.408
-0.404
-0.3965
-0.388
-0.3835
-0.3835
-0.3905
-0.3995
-0.396
-0.392
-0.3965
-0.399
-0.392
-0.3865
-0.3885
-0.3925
-0.393
-0.387
-0.3735
-0.3665
-0.372
-0.3765
-0.3805
-0.381
-0.376
-0.3735
-0.3745
-0.375
-0.371
-0.362
-0.3565
-0.3595
-0.3585
-0.355
-0.36
-0.3625
-0.363
-0.3615
-0.3625
-0.371
-0.371
-0.365
-0.362
-0.362
-0.3645
-0.362
-0.36
-0.3535
-0.347
-0.349
-0.345
-0.3425
-0.344
-0.3405
-0.3335
-0.332
-0.3375
-0.3305
-0.323
-0.3235
-0.329
-0.339
-0.3395
-0.339
-0.3365
-0.339
-0.3455
-0.3475
-0.3495
-0.349
-0.359
-0.358
-0.3475
-0.3505
-0.35
-0.3375
-0.3245
-0.3255
-0.326
-0.318
-0.3145
-0.3125
-0.3235
-0.3305
-0.3305
-0.3355
-0.3365
-0.3395
-0.3455
-0.354
-0.357
-0.3595
-0.3695
-0.3745
-0.382
-0.3885
-0.3895
-0.3895
-0.3925
-0.3965
-0.3955
-0.4015
-0.4045
-0.404
-0.408
-0.4015
-0.4005
-0.404
-0.4065
-0.404
-0.398
-0.3955
-0.3935
-0.393
-0.3875
-0.39
-0.3905
-0.3875
-0.391
-0.394
-0.39
-0.3855
-0.389
-0.394
-0.3965
-0.4
-0.3965
-0.3855
-0.387
-0.396
-0.3955
-0.394
-0.3935
-0.39
-0.39
-0.391
-0.3895
-0.391
-0.397
-0.396
-0.397
-0.3935
-0.389
-0.3925
-0.3945
-0.395
-0.3935
-0.3975
-0.4025
-0.3955
-0.3915
-0.3955
-0.3995
-0.406
-0.41
-0.414
-0.407
-0.4025
-0.409
-0.4075
-0.407
-0.407
-0.4075
-0.409
-0.4075
-0.4005
-0.401
-0.4025
-0.402
-0.407
-0.405
-0.4065
-0.406
-0.404
-0.4095
-0.409
-0.41
-0.412
-0.409
-0.406
-0.4025
-0.3975
-0.3895
-0.3755
-0.3605
-0.344
-0.33
-0.3165
-0.3035
-0.293
-0.2675
-0.2525
-0.2465
-0.225
-0.2115
-0.1995
-0.184
-0.1745
-0.1535
-0.1285
-0.106
-0.088
-0.073
-0.0485
-0.0325
-0.0255
-0.015
-0.003
-0.002
-0.0065
-0.0135
-0.0315
-0.045
-0.085
-0.1255
-0.1385
-0.155
-0.175
-0.21
-0.2375
-0.2675
-0.2905
-0.308
-0.335
-0.353
-0.378
-0.4
-0.4205
-0.4255
-0.4185
-0.4195
-0.416
-0.422
-0.4255
-0.4225
-0.417
-0.398
-0.38
-0.363
-0.3545
-0.347
-0.336
-0.3225
-0.304
-0.2955
-0.2995
-0.304
-0.301
-0.3015
-0.3045
-0.3085
-0.317
-0.3225
-0.3295
-0.3325
-0.333
-0.344
-0.3505
-0.3505
-0.3485
-0.3465
-0.353
-0.353
-0.3485
-0.351
-0.3555
-0.3575
-0.352
-0.343
-0.346
-0.35
-0.348
-0.3505
-0.349
-0.3505
-0.357
-0.3595
-0.3655
-0.3625
-0.3575
-0.3625
-0.365
-0.362
-0.36
-0.361
-0.363
-0.362
-0.3655
-0.372
-0.371
-0.364
-0.3635
-0.363
-0.363
-0.3675
-0.366
-0.3655
-0.37
-0.3775
-0.3745
-0.3645
-0.3615
-0.3605
-0.355
-0.355
-0.3605
-0.3555
-0.356
-0.3535
-0.348
-0.3525
-0.3535
-0.3555
-0.356
-0.3565
-0.3555
-0.357
-0.3575
-0.352
-0.357
-0.354
-0.3515
-0.36
-0.36
-0.3545
-0.3555
-0.36
-0.3605
-0.3575
-0.3555
-0.358
-0.3585
-0.3535
-0.351
-0.353
-0.3515
-0.3485
-0.353
-0.352
-0.3505
-0.3555
-0.3525
-0.353
-0.3585
-0.358
-0.358
-0.3565
-0.3595
-0.3595
-0.3535
-0.357
-0.36
-0.361
-0.359
-0.3575
-0.36
-0.3705
-0.367
-0.347
-0.3415
-0.3385
-0.348
-0.35
-0.3415
-0.343
-0.3395
-0.3475
-0.352
-0.345
-0.3415
-0.34
-0.3365
-0.336
-0.3365
-0.331
-0.3275
-0.3235
-0.3235
-0.321
-0.3145
-0.316
-0.316
-0.316
-0.3185
-0.3175
-0.311
-0.306
-0.303
-0.2985
-0.301
-0.3025
-0.3
-0.3035
-0.308
-0.302
-0.2975
-0.298
-0.292
-0.2965
-0.295
-0.2875
-0.2815
-0.276
-0.2745
-0.2675
-0.2625
-0.2595
-0.2585
-0.2585
-0.262
-0.2645
-0.2565
-0.256
-0.2535
-0.2475
-0.251
-0.254
-0.258
-0.2545
-0.243
-0.2335
-0.227
-0.227
-0.2295
-0.2305
-0.237
-0.2325
-0.2245
-0.2195
-0.219
-0.2285
-0.224
-0.22
-0.22
-0.2145
-0.2155
-0.215
-0.2135
-0.212
-0.2065
-0.1995
-0.196
-0.1895
-0.1835
-0.1855
-0.186
-0.1895
-0.194
-0.1925
-0.195
-0.196
-0.1925
-0.186
-0.183
-0.188
-0.1905
-0.1975
-0.2035
-0.206
-0.2125
-0.213
-0.2155
-0.219
-0.2205
-0.2275
-0.2285
-0.228
-0.237
-0.245
-0.247
-0.2475
-0.249
-0.254
-0.265
-0.2725
-0.2725
-0.278
-0.2835
-0.2845
-0.283
-0.2865
-0.2935
-0.2965
-0.3
-0.303
-0.31
-0.31
-0.3125
-0.3255
-0.335
-0.341
-0.3415
-0.346
-0.348
-0.344
-0.351
-0.3615
-0.365
-0.369
-0.371
-0.369
-0.3735
-0.377
-0.379
-0.385
-0.385
-0.384
-0.3855
-0.388
-0.3915
-0.386
-0.3855
-0.389
-0.389
-0.3955
-0.3995
-0.4005
-0.4
-0.4
-0.3975
-0.399
-0.408
-0.4075
-0.4095
-0.4065
-0.403
-0.408
-0.406
-0.401
-0.398
-0.404
-0.4085
-0.4045
-0.398
-0.405
-0.411
-0.412
-0.416
-0.414
-0.405
-0.3955
-0.399
-0.4055
-0.4055
-0.4055
-0.4045
-0.4085
-0.4145
-0.4135
-0.4115
-0.4135
-0.415
-0.417
-0.415
-0.413
-0.4075
-0.4045
-0.4045
-0.4005
-0.406
-0.411
-0.4115
-0.4125
-0.4065
-0.4155
-0.4205
-0.4105
-0.411
-0.412
-0.412
-0.4115
-0.415
-0.413
-0.4095
-0.41
-0.414
-0.4175
-0.4075
-0.4025
-0.4065
-0.4065
-0.404
-0.3995
-0.397
-0.3985
-0.402
-0.4065
-0.4135
-0.413
-0.4115
-0.4055
-0.3975
-0.403
-0.4085
-0.4025
-0.3975
-0.395
-0.395
-0.3985
-0.3965
-0.394
-0.399
-0.4025
-0.398
-0.402
-0.405
-0.4045
-0.4005
-0.39
-0.3975
-0.4
-0.395
-0.3985
-0.4005
-0.403
-0.404
-0.4065
-0.4095
-0.405
-0.405
-0.408
-0.4085
-0.4085
-0.4105
-0.4145
-0.4125
-0.421
-0.435
-0.4385
-0.4355
-0.433
-0.421
-0.4135
-0.422
-0.427
-0.4285
-0.4295
-0.424
-0.4205
-0.4225
-0.4225
-0.4205
-0.4215
-0.4225
-0.425
-0.429
-0.429
-0.4345
-0.4355
-0.431
-0.433
-0.43
-0.433
-0.437
-0.436
-0.4395
-0.4395
-0.4375
-0.4345
-0.435
-0.433
-0.4255
-0.4245
-0.427
-0.433
-0.4405
-0.4345
-0.428
-0.432
-0.4355
-0.4395
-0.4425
-0.4395
-0.433
-0.432
-0.4325
-0.43
-0.433
-0.438
-0.4355
-0.431
-0.4315
-0.435
-0.4375
-0.438
-0.443
-0.4395
-0.436
-0.433
-0.427
-0.4255
-0.4265
-0.4305
-0.438
-0.4415
-0.4405
-0.4435
-0.439
-0.4405
-0.4455
-0.439
-0.433
-0.4265
-0.426
-0.43
-0.4335
-0.429
-0.4265
-0.4325
-0.435
-0.4345
-0.437
-0.438
-0.4325
-0.429
-0.4275
-0.4245
-0.4255
-0.4255
-0.425
-0.425
-0.424
-0.425
-0.4235
-0.4245
-0.4225
-0.417
-0.419
-0.416
-0.4155
-0.42
-0.4155
-0.4105
-0.414
-0.4125
-0.408
-0.415
-0.4115
-0.4085
-0.419
-0.4155
-0.4215
-0.438
-0.433
-0.4215
-0.416
-0.4145
-0.4185
-0.418
-0.4205
-0.423
-0.422
-0.424
-0.4255
-0.4295
-0.4305
-0.4335
-0.428
-0.417
-0.417
-0.4215
-0.419
-0.4235
-0.4325
-0.4355
-0.441
-0.44
-0.433
-0.4285
-0.431
-0.4355
-0.431
-0.429
-0.43
-0.428
-0.4315
-0.4325
-0.4335
-0.4375
-0.436
-0.4325
-0.436
-0.44
-0.442
-0.4485
-0.4445
-0.4375
-0.435
-0.4345
-0.449
-0.455
-0.4465
-0.436
-0.4295
-0.4385
-0.445
-0.446
-0.446
-0.437
-0.4235
-0.4245
-0.433
-0.437
-0.438
-0.438
-0.4355
-0.43
-0.428
-0.432
-0.4295
-0.4255
-0.427
-0.4255
-0.42
-0.4265
-0.4315
-0.424
-0.4245
-0.4315
-0.4365
-0.4355
-0.434
-0.437
-0.4365
-0.432
-0.431
-0.4185
-0.409
-0.415
-0.4185
-0.4215
-0.415
-0.4115
-0.4145
-0.4135
-0.42
-0.4185
-0.407
-0.4075
-0.417
-0.42
-0.4175
-0.4175
-0.417
-0.4185
-0.42
-0.4235
-0.429
-0.4315
-0.4295
-0.431
-0.428
-0.424
-0.427
-0.4215
-0.429
-0.438
-0.437
-0.439
-0.437
-0.4375
-0.44
-0.4265
-0.4215
-0.428
-0.431
-0.4355
-0.4325
-0.4265
-0.4305
-0.4365
-0.4325
-0.4285
-0.4245
-0.423
-0.4225
-0.4215
-0.424
-0.4215
-0.42
-0.4185
-0.4175
-0.4175
-0.4155
-0.416
-0.416
-0.413
-0.418
-0.417
-0.4125
-0.4155
-0.4115
-0.4145
-0.4135
-0.4065
-0.4025
-0.4045
-0.4085
-0.4075
-0.406
-0.405
-0.3995
-0.402
-0.412
-0.406
-0.4045
-0.405
-0.4035
-0.4045
-0.407
-0.4095
-0.405
-0.4005
-0.399
-0.404
-0.4025
-0.3965
-0.396
-0.4
-0.407
-0.407
-0.4125
-0.4205
-0.4235
-0.433
-0.436
-0.431
-0.4175
-0.3985
-0.387
-0.391
-0.4045
-0.4065
-0.402
-0.398
-0.3975
-0.3975
-0.394
-0.3925
-0.3925
-0.3935
-0.392
-0.388
-0.3875
-0.389
-0.3935
-0.389
-0.385
-0.3875
-0.389
-0.393
-0.3885
-0.385
-0.385
-0.386
-0.391
-0.39
-0.3835
-0.383
-0.383
-0.38
-0.3825
-0.382
-0.378
-0.3805
-0.3765
-0.368
-0.373
-0.3755
-0.367
-0.367
-0.3655
-0.363
-0.365
-0.3655
-0.37
-0.372
-0.37
-0.367
-0.366
-0.37
-0.3755
-0.3765
-0.371
-0.367
-0.369
-0.3665
-0.3625
-0.3605
-0.3575
-0.35
-0.3445
-0.35
-0.351
-0.3515
-0.35
-0.3425
-0.3475
-0.355
-0.3645
-0.3735
-0.3715
-0.375
-0.377
-0.3815
-0.387
-0.395
-0.408
-0.4155
-0.418
-0.4155
-0.41
-0.411
-0.414
-0.4235
-0.429
-0.4155
-0.4195
-0.4195
-0.4155
-0.421
-0.42
-0.42
-0.418
-0.4175
-0.4195
-0.42
-0.421
-0.4235
-0.425
-0.427
-0.425
-0.4185
-0.416
-0.415
-0.4125
-0.412
-0.4215
-0.4195
-0.4155
-0.42
-0.4225
-0.4215
-0.417
-0.423
-0.42
-0.4165
-0.4175
-0.416
-0.4205
-0.4205
-0.4255
-0.4275
-0.4245
-0.4255
-0.4305
-0.435
-0.428
-0.4275
-0.43
-0.4295
-0.428
-0.4235
-0.4255
-0.432
-0.4325
-0.4295
-0.4305
-0.4325
-0.4275
-0.4205
-0.4175
-0.416
-0.419
-0.4235
-0.4235
-0.4205
-0.42
-0.4225
-0.4225
-0.42
-0.4185
-0.4215
-0.4245
-0.4235
-0.426
-0.4315
-0.432
-0.431
-0.432
-0.439
-0.4415
-0.448
-0.4505
-0.442
-0.4385
-0.4325
-0.43
-0.423
-0.4165
-0.4125
-0.4015
-0.3835
-0.364
-0.345
-0.3175
-0.3015
-0.2935
-0.273
-0.262
-0.25
-0.2335
-0.2265
-0.203
-0.1765
-0.162
-0.1445
-0.1265
-0.1095
-0.091
-0.0815
-0.058
-0.037
-0.029
-0.026
-0.024
-0.018
-0.0375
-0.081
-0.1285
-0.147
-0.1585
-0.179
-0.207
-0.248
-0.2775
-0.3015
-0.321
-0.347
-0.3705
-0.39
-0.417
-0.4435
-0.465
-0.471
-0.47
-0.465
-0.4615
-0.4675
-0.47
-0.4645
-0.4465
-0.428
-0.41
-0.392
-0.3805
-0.3675
-0.36
-0.351
-0.3455
-0.345
-0.336
-0.3355
-0.338
-0.336
-0.331
-0.3405
-0.349
-0.3475
-0.3555
-0.359
-0.3635
-0.368
-0.37
-0.371
-0.3755
-0.376
-0.3765
-0.3835
-0.387
-0.386
-0.3805
-0.39
-0.3885
-0.384
-0.398
-0.3955
-0.3965
-0.4005
-0.3935
-0.3935
-0.397
-0.3975
-0.388
-0.3935
-0.403
-0.399
-0.402
-0.4055
-0.403
-0.398
-0.3995
-0.399
-0.399
-0.4005
-0.4035
-0.408
-0.4065
-0.4115
-0.4095
-0.403
-0.4015
-0.401
-0.4015
-0.4025
-0.403
-0.403
-0.4055
-0.41
-0.402
-0.393
-0.4055
-0.405
-0.4055
-0.411
-0.3975
-0.3925
-0.398
-0.4
-0.409
-0.411
-0.3965
-0.3965
-0.4005
-0.4
-0.398
-0.3925
-0.389
-0.393
-0.397
-0.3925
-0.3935
-0.391
-0.385
-0.3835
-0.386
-0.392
-0.3825
-0.3765
-0.381
-0.3815
-0.3825
-0.38
-0.3805
-0.378
-0.3785
-0.3835
-0.38
-0.38
-0.376
-0.37
-0.369
-0.3695
-0.3705
-0.3745
-0.3765
-0.371
-0.3725
-0.3685
-0.3585
-0.362
-0.3685
-0.3695
-0.369
-0.365
-0.3615
-0.3555
-0.352
-0.353
-0.3545
-0.3535
-0.352
-0.351
-0.349
-0.3505
-0.347
-0.338
-0.332
-0.331
-0.3335
-0.3305
-0.328
-0.3245
-0.322
-0.325
-0.32
-0.3105
-0.309
-0.3095
-0.308
-0.3085
-0.306
-0.3065
-0.302
-0.298
-0.301
-0.3055
-0.3085
-0.3025
-0.3065
-0.311
-0.305
-0.2945
-0.2875
-0.285
-0.2845
-0.2875
-0.2765
-0.2775
-0.278
-0.2715
-0.2745
-0.277
-0.2805
-0.269
-0.256
-0.2475
-0.246
-0.2515
-0.2495
-0.249
-0.245
-0.2365
-0.233
-0.2375
-0.2385
-0.2355
-0.236
-0.234
-0.232
-0.2325
-0.241
-0.2325
-0.214
-0.209
-0.209
-0.21
-0.21
-0.207
-0.205
-0.2055
-0.2005
-0.201
-0.2055
-0.2015
-0.1955
-0.1955
-0.199
-0.203
-0.2055
-0.2045
-0.204
-0.2
-0.196
-0.1975
-0.2
-0.2015
-0.1985
-0.1995
-0.2015
-0.208
-0.2115
-0.211
-0.2125
-0.214
-0.227
-0.234
-0.233
-0.2335
-0.236
-0.2345
-0.2315
-0.243
-0.251
-0.26
-0.271
-0.276
-0.283
-0.2865
-0.2845
-0.284
-0.2935
-0.298
-0.3005
-0.2975
-0.298
-0.3105
-0.315
-0.32
-0.325
-0.3235
-0.3315
-0.348
-0.3495
-0.3525
-0.348
-0.341
-0.3515
-0.3645
-0.369
-0.365
-0.365
-0.3715
-0.3745
-0.374
-0.375
-0.3705
-0.3725
-0.3775
-0.3825
-0.3905
-0.383
-0.38
-0.393
-0.3935
-0.39
-0.392
-0.3955
-0.3965
-0.395
-0.396
-0.394
-0.395
-0.394
-0.399
-0.401
-0.399
-0.4045
-0.4085
-0.4125
-0.4115
-0.4025
-0.393
-0.391
-0.398
-0.406
-0.4115
-0.414
-0.415
-0.419
-0.4215
-0.4195
-0.4065
-0.393
-0.3885
-0.39
-0.397
-0.3965
-0.392
-0.3935
-0.397
-0.4005
-0.4
-0.397
-0.398
-0.3935
-0.392
-0.4
-0.402
-0.3965
-0.3965
-0.4055
-0.405
-0.402
-0.405
-0.4035
-0.404
-0.403
-0.398
-0.392
-0.39
-0.393
-0.3905
-0.388
-0.388
-0.3815
-0.3775
-0.3805
-0.3775
-0.3715
-0.3705
-0.373
-0.3745
-0.3765
-0.381
-0.379
-0.379
-0.375
-0.372
-0.375
-0.3785
-0.384
-0.3815
-0.3845
-0.387
-0.3815
-0.3775
-0.381
-0.3835
-0.384
-0.3875
-0.382
-0.376
-0.373
-0.378
-0.3905
-0.396
-0.389
-0.381
-0.38
-0.3765
-0.38
-0.3885
-0.387
-0.379
-0.3795
-0.383
-0.3875
-0.388
-0.378
-0.3775
-0.372
-0.3685
-0.37
-0.3705
-0.38
-0.3815
-0.38
-0.378
-0.3765
-0.384
-0.383
-0.3745
-0.3735
-0.375
-0.377
-0.3845
-0.3875
-0.385
-0.3835
-0.3895
-0.3995
-0.4035
-0.3975
-0.388
-0.3915
-0.3955
-0.394
-0.395
-0.39
-0.387
-0.3895
-0.3895
-0.3895
-0.39
-0.3905
-0.3895
-0.392
-0.395
-0.398
-0.4045
-0.4
-0.4
-0.3975
-0.3945
-0.396
-0.395
-0.4005
-0.402
-0.4035
-0.4085
-0.415
-0.4125
-0.41
-0.406
-0.396
-0.4015
-0.408
-0.4125
-0.4055
-0.396
-0.4015
-0.398
-0.3925
-0.399
-0.406
-0.4105
-0.412
-0.408
-0.407
-0.4075
-0.411
-0.4155
-0.4135
-0.4105
-0.409
-0.415
-0.418
-0.4145
-0.415
-0.41
-0.4085
-0.4135
-0.4205
-0.422
-0.4245
-0.425
-0.4135
-0.414
-0.4135
-0.41
-0.416
-0.4075
-0.4
-0.4105
-0.4125
-0.408
-0.411
-0.4155
-0.4195
-0.415
-0.412
-0.4195
-0.4195
-0.417
-0.42
-0.427
-0.4245
-0.418
-0.4225
-0.4245
-0.424
-0.4295
-0.434
-0.426
-0.4255
-0.4325
-0.433
-0.4345
-0.435
-0.4355
-0.4325
-0.4285
-0.4335
-0.4365
-0.4355
-0.4365
-0.4365
-0.438
-0.4375
-0.432
-0.432
-0.4315
-0.4295
-0.429
-0.4285
-0.4295
-0.43
-0.438
-0.439
-0.4345
-0.438
-0.4425
-0.448
-0.4385
-0.429
-0.4305
-0.434
-0.4325
-0.432
-0.438
-0.433
-0.432
-0.4365
-0.4385
-0.4385
-0.4395
-0.448
-0.449
-0.4405
-0.4295
-0.4265
-0.4345
-0.444
-0.452
-0.4445
-0.4315
-0.432
-0.4345
-0.433
-0.437
-0.436
-0.433
-0.4345
-0.4335
-0.4355
-0.4355
-0.435
-0.4365
-0.4395
-0.437
-0.43
-0.4265
-0.429
-0.433
-0.435
-0.438
-0.4345
-0.431
-0.428
-0.427
-0.4265
-0.421
-0.424
-0.4245
-0.4315
-0.4345
-0.423
-0.4285
-0.43
-0.422
-0.4165
-0.4075
-0.3975
-0.403
-0.4125
-0.4125
-0.418
-0.4085
-0.403
-0.409
-0.4075
-0.4115
-0.4105
-0.409
-0.4105
-0.4075
-0.409
-0.4045
-0.4065
-0.4075
-0.406
-0.408
-0.4045
-0.411
-0.412
-0.4085
-0.4075
-0.411
-0.41
-0.4025
-0.407
-0.4135
-0.4125
-0.407
-0.405
-0.4085
-0.4085
-0.405
-0.4005
-0.396
-0.398
-0.403
-0.4025
-0.398
-0.398
-0.398
-0.4045
-0.4
-0.389
-0.3965
-0.4035
-0.407
-0.411
-0.41
-0.4085
-0.404
-0.407
-0.4145
-0.419
-0.4265
-0.417
-0.404
-0.3995
-0.402
-0.409
-0.416
-0.4175
-0.4085
-0.4085
-0.4095
-0.4085
-0.4165
-0.414
-0.4115
-0.414
-0.411
-0.408
-0.4125
-0.414
-0.4115
-0.413
-0.4085
-0.4135
-0.423
-0.426
-0.4225
-0.4215
-0.425
-0.416
-0.413
-0.4175
-0.415
-0.414
-0.4155
-0.419
-0.42
-0.4185
-0.421
-0.416
-0.413
-0.4185
-0.425
-0.423
-0.4155
-0.41
-0.408
-0.407
-0.4055
-0.41
-0.4085
-0.407
-0.413
-0.4185
-0.414
-0.4095
-0.4105
-0.409
-0.4135
-0.406
-0.394
-0.392
-0.3915
-0.3945
-0.3935
-0.3975
-0.39
-0.384
-0.3875
-0.386
-0.395
-0.403
-0.3975
-0.3915
-0.395
-0.4035
-0.401
-0.399
-0.398
-0.3845
-0.384
-0.3885
-0.393
-0.396
-0.401
-0.402
-0.398
-0.4015
-0.4005
-0.407
-0.4125
-0.4085
-0.4005
-0.3985
-0.395
-0.39
-0.393
-0.39
-0.3925
-0.4005
-0.4
-0.397
-0.3995
-0.405
-0.4095
-0.4035
-0.396
-0.4005
-0.4015
-0.3915
-0.392
-0.3925
-0.393
-0.397
-0.4
-0.4
-0.401
-0.405
-0.404
-0.407
-0.3985
-0.3905
-0.392
-0.3945
-0.3935
-0.3825
-0.381
-0.3775
-0.3765
-0.377
-0.3725
-0.3745
-0.372
-0.365
-0.363
-0.3765
-0.383
-0.3745
-0.385
-0.3865
-0.381
-0.376
-0.3665
-0.3695
-0.36
-0.351
-0.3475
-0.339
-0.3385
-0.342
-0.3405
-0.339
-0.3435
-0.347
-0.3455
-0.3425
-0.3465
-0.3575
-0.3675
-0.369
-0.3735
-0.3775
-0.3775
-0.391
-0.4065
-0.405
-0.402
-0.407
-0.4045
-0.4
-0.404
-0.4075
-0.404
-0.406
-0.4105
-0.415
-0.421
-0.4205
-0.4255
-0.427
-0.427
-0.423
-0.4145
-0.4115
-0.411
-0.4135
-0.4155
-0.4115
-0.4065
-0.404
-0.4045
-0.406
-0.405
-0.406
-0.4085
-0.4095
-0.4035
-0.4115
-0.4155
-0.4115
-0.412
-0.412
-0.4265
-0.4255
-0.4125
-0.412
-0.4065
-0.4005
-0.402
-0.405
-0.413
-0.4075
-0.4005
-0.403
-0.4045
-0.4075
-0.4055
-0.4075
-0.409
-0.41
-0.413
-0.4125
-0.419
-0.4235
-0.425
-0.425
-0.4225
-0.4225
-0.4155
-0.4155
-0.4225
-0.4185
-0.4215
-0.421
-0.4235
-0.4285
-0.4175
-0.4055
-0.3905
-0.3945
-0.4165
-0.4225
-0.428
-0.4325
-0.431
-0.4355
-0.437
-0.4345
-0.435
-0.4345
-0.433
-0.439
-0.435
-0.4315
-0.4295
-0.4155
-0.403
-0.3965
-0.3835
-0.3635
-0.351
-0.332
-0.312
-0.299
-0.287
-0.2705
-0.248
-0.2355
-0.2215
-0.206
-0.182
-0.156
-0.1425
-0.118
-0.083
-0.0605
-0.0555
-0.0495
-0.036
-0.0225
-0.0225
-0.0305
-0.0315
-0.0355
-0.057
-0.1005
-0.1345
-0.155
-0.178
-0.2105
-0.2385
-0.27
-0.302
-0.3165
-0.349
-0.3735
-0.3925
-0.4145
-0.4365
-0.465
-0.4735
-0.473
-0.468
-0.4675
-0.474
-0.4745
-0.4665
-0.454
-0.4325
-0.4105
-0.397
-0.3775
-0.368
-0.3575
-0.341
-0.337
-0.3245
-0.3175
-0.3175
-0.316
-0.3255
-0.324
-0.321
-0.3305
-0.34
-0.341
-0.351
-0.3665
-0.3605
-0.3625
-0.371
-0.375
-0.3815
-0.383
-0.382
-0.3765
-0.3625
-0.3635
-0.3795
-0.3855
-0.388
-0.393
-0.391
-0.377
-0.3645
-0.366
-0.3775
-0.386
-0.39
-0.399
-0.398
-0.386
-0.386
-0.3875
-0.3795
-0.381
-0.386
-0.3865
-0.3845
-0.382
-0.3855
-0.3855
-0.383
-0.384
-0.39
-0.397
-0.396
-0.3945
-0.396
-0.399
-0.397
-0.393
-0.392
-0.3865
-0.3845
-0.3795
-0.378
-0.382
-0.3805
-0.3765
-0.3795
-0.3865
-0.3875
-0.3885
-0.383
-0.384
-0.385
-0.38
-0.3815
-0.386
-0.3895
-0.3865
-0.3795
-0.375
-0.3715
-0.369
-0.3685
-0.3695
-0.3685
-0.3615
-0.361
-0.37
-0.3645
-0.36
-0.36
-0.3555
-0.3605
-0.357
-0.3555
-0.353
-0.348
-0.35
-0.3465
-0.339
-0.3365
-0.3365
-0.337
-0.3365
-0.333
-0.3315
-0.3295
-0.3285
-0.3205
-0.3145
-0.318
-0.319
-0.3225
-0.317
-0.3145
-0.323
-0.3155
-0.3095
-0.3165
-0.3205
-0.318
-0.3175
-0.317
-0.3185
-0.318
-0.31
-0.312
-0.3075
-0.305
-0.309
-0.3015
-0.298
-0.305
-0.305
-0.305
-0.306
-0.302
-0.2955
-0.287
-0.29
-0.286
-0.2865
-0.282
-0.2735
-0.2805
-0.2765
-0.2745
-0.2645
-0.251
-0.258
-0.257
-0.2515
-0.255
-0.2445
-0.238
-0.2435
-0.2405
-0.237
-0.232
-0.231
-0.231
-0.2215
-0.2135
-0.2125
-0.214
-0.2125
-0.2105
-0.2035
-0.1995
-0.1995
-0.1925
-0.1905
-0.191
-0.191
-0.188
-0.18
-0.18
-0.184
-0.184
-0.168
-0.16
-0.168
-0.1625
-0.1605
-0.1665
-0.166
-0.161
-0.161
-0.1645
-0.1645
-0.1645
-0.164
-0.165
-0.163
-0.1615
-0.1745
-0.1725
-0.163
-0.166
-0.1655
-0.167
-0.171
-0.17
-0.1595
-0.1575
-0.1605
-0.1615
-0.1585
-0.157
-0.1625
-0.1655
-0.1645
-0.1595
-0.16
-0.1665
-0.174
-0.1755
-0.179
-0.1815
-0.1865
-0.187
-0.1835
-0.1915
-0.1955
-0.1995
-0.2065
-0.2125
-0.2145
-0.2185
-0.2255
-0.2305
-0.242
-0.2485
-0.249
-0.249
-0.2545
-0.261
-0.269
-0.2775
-0.278
-0.286
-0.294
-0.2965
-0.304
-0.3055
-0.308
-0.3125
-0.3115
-0.32
-0.326
-0.326
-0.3245
-0.324
-0.334
-0.3375
-0.3395
-0.3385
-0.3375
-0.3455
-0.347
-0.35
-0.3505
-0.356
-0.36
-0.351
-0.3555
-0.362
-0.366
-0.364
-0.361
-0.3645
-0.366
-0.3725
-0.378
-0.374
-0.373
-0.377
-0.376
-0.3815
-0.386
-0.379
-0.3745
-0.377
-0.3755
-0.374
-0.378
-0.384
-0.3805
-0.3705
-0.373
-0.372
-0.3705
-0.3695
-0.3675
-0.3715
-0.3675
-0.3755
-0.3815
-0.3775
-0.3765
-0.371
-0.3695
-0.374
-0.377
-0.373
-0.363
-0.357
-0.355
-0.346
-0.3515
-0.3575
-0.3585
-0.363
-0.3595
-0.3655
-0.3685
-0.3695
-0.3665
-0.363
-0.369
-0.369
-0.3695
-0.3685
-0.369
-0.377
-0.379
-0.3735
-0.3665
-0.357
-0.36
-0.371
-0.371
-0.3705
-0.3675
-0.3645
-0.368
-0.3725
-0.3765
-0.374
-0.3705
-0.372
-0.373
-0.365
-0.364
-0.37
-0.369
-0.37
-0.366
-0.3605
-0.365
-0.3745
-0.3765
-0.379
-0.3785
-0.3675
-0.3655
-0.372
-0.3735
-0.3705
-0.366
-0.3615
-0.3655
-0.371
-0.3685
-0.369
-0.371
-0.3685
-0.3715
-0.3705
-0.3665
-0.3695
-0.368
-0.3665
-0.366
-0.368
-0.372
-0.378
-0.3765
-0.3645
-0.363
-0.3695
-0.374
-0.378
-0.38
-0.376
-0.3705
-0.369
-0.3735
-0.3775
-0.3725
-0.37
-0.37
-0.3715
-0.3795
-0.382
-0.3755
-0.38
-0.386
-0.3805
-0.3785
-0.376
-0.3745
-0.377
-0.38
-0.38
-0.3785
-0.38
-0.3815
-0.387
-0.3885
-0.389
-0.395
-0.3925
-0.391
-0.3975
-0.395
-0.389
-0.392
-0.3965
-0.3925
-0.389
-0.3935
-0.398
-0.3965
-0.3945
-0.3935
-0.3915
-0.392
-0.391
-0.389
-0.3855
-0.3825
-0.3885
-0.3915
-0.3905
-0.3905
-0.388
-0.3865
-0.3875
-0.392
-0.3915
-0.394
-0.4085
-0.4125
-0.4
-0.4005
-0.4065
-0.4035
-0.403
-0.4045
-0.409
-0.4135
-0.4105
-0.4035
-0.4025
-0.4035
-0.4025
-0.402
-0.395
-0.3915
-0.39
-0.3955
-0.404
-0.4005
-0.3955
-0.397
-0.3935
-0.394
-0.396
-0.391
-0.387
-0.3855
-0.391
-0.395
-0.3945
-0.3965
-0.4005
-0.4065
-0.4115
-0.4085
-0.4105
-0.407
-0.399
-0.397
-0.395
-0.4015
-0.403
-0.4085
-0.417
-0.4205
-0.4205
-0.409
-0.4045
-0.4025
-0.401
-0.403
-0.404
-0.4065
-0.404
-0.4075
-0.4135
-0.411
-0.409
-0.407
-0.411
-0.412
-0.4105
-0.413
-0.409
-0.4105
-0.4135
-0.417
-0.4175
-0.4115
-0.419
-0.423
-0.4155
-0.4115
-0.41
-0.407
-0.406
-0.412
-0.41
-0.407
-0.406
-0.401
-0.401
-0.402
-0.4035
-0.399
-0.4005
-0.4115
-0.4145
-0.4185
-0.416
-0.4125
-0.415
-0.4115
-0.411
-0.4125
-0.4135
-0.4115
-0.407
-0.404
-0.4045
-0.404
-0.4025
-0.4
-0.39
-0.387
-0.385
-0.3815
-0.381
-0.3835
-0.3905
-0.391
-0.39
-0.3895
-0.3875
-0.3925
-0.397
-0.3945
-0.3965
-0.4035
-0.4025
-0.404
-0.4015
-0.396
-0.3995
-0.3965
-0.394
-0.392
-0.393
-0.392
-0.392
-0.3965
-0.3945
-0.3905
-0.388
-0.391
-0.395
-0.3965
-0.3955
-0.398
-0.405
-0.4135
-0.4125
-0.4035
-0.402
-0.402
-0.397
-0.3975
-0.4015
-0.4025
-0.4005
-0.4045
-0.4095
-0.412
-0.4125
-0.414
-0.412
-0.4115
-0.4115
-0.401
-0.4055
-0.4055
-0.4055
-0.4125
-0.4085
-0.4065
-0.4025
-0.4075
-0.4165
-0.416
-0.411
-0.406
-0.4085
-0.4095
-0.413
-0.414
-0.4125
-0.4175
-0.419
-0.4195
-0.42
-0.419
-0.419
-0.419
-0.414
-0.415
-0.42
-0.4175
-0.416
-0.419
-0.4195
-0.424
-0.4245
-0.4235
-0.426
-0.431
-0.4375
-0.438
-0.435
-0.425
-0.418
-0.4235
-0.426
-0.4245
-0.4225
-0.4235
-0.4295
-0.4285
-0.4255
-0.4265
-0.426
-0.425
-0.424
-0.4235
-0.4255
-0.4215
-0.4175
-0.4185
-0.417
-0.4155
-0.413
-0.4115
-0.4065
-0.407
-0.408
-0.401
-0.3955
-0.3975
-0.395
-0.3905
-0.396
-0.398
-0.3985
-0.397
-0.398
-0.3995
-0.399
-0.405
-0.4
-0.392
-0.3935
-0.401
-0.402
-0.3945
-0.394
-0.3955
-0.398
-0.3995
-0.3935
-0.3975
-0.4065
-0.41
-0.41
-0.411
-0.4105
-0.411
-0.419
-0.418
-0.4185
-0.4225
-0.425
-0.4255
-0.4215
-0.422
-0.421
-0.424
-0.428
-0.4295
-0.4255
-0.421
-0.4175
-0.414
-0.4205
-0.4175
-0.4115
-0.411
-0.413
-0.4225
-0.4265
-0.425
-0.421
-0.413
-0.409
-0.4165
-0.42
-0.4125
-0.4115
-0.417
-0.4135
-0.406
-0.4075
-0.4065
-0.4085
-0.411
-0.405
-0.404
-0.405
-0.4025
-0.4035
-0.4075
-0.41
-0.4075
-0.4045
-0.4015
-0.3915
-0.3925
-0.394
-0.39
-0.3955
-0.3975
-0.4005
-0.393
-0.3795
-0.3785
-0.382
-0.387
-0.3895
-0.398
-0.401
-0.3995
-0.404
-0.4055
-0.4035
-0.4055
-0.4085
-0.411
-0.4135
-0.4085
-0.4075
-0.4035
-0.3995
-0.397
-0.3945
-0.393
-0.387
-0.384
-0.374
-0.3735
-0.3795
-0.381
-0.386
-0.3815
-0.374
-0.371
-0.379
-0.386
-0.387
-0.3835
-0.3715
-0.369
-0.365
-0.359
-0.358
-0.355
-0.3475
-0.3375
-0.3305
-0.332
-0.3385
-0.337
-0.3335
-0.3295
-0.3275
-0.328
-0.3345
-0.3425
-0.3425
-0.3475
-0.3535
-0.363
-0.3735
-0.381
-0.3885
-0.3955
-0.402
-0.4055
-0.4075
-0.414
-0.419
-0.411
-0.4085
-0.4105
-0.414
-0.4225
-0.424
-0.421
-0.425
-0.4295
-0.4255
-0.423
-0.4215
-0.421
-0.419
-0.4205
-0.4185
-0.411
-0.41
-0.4115
-0.4115
-0.4085
-0.414
-0.4185
-0.4225
-0.426
-0.4225
-0.421
-0.4175
-0.4145
-0.416
-0.418
-0.424
-0.4345
-0.435
-0.4335
-0.4385
-0.4425
-0.44
-0.4375
-0.427
-0.4095
-0.414
-0.417
-0.418
-0.423
-0.4205
-0.4235
-0.424
-0.4215
-0.426
-0.4295
-0.4325
-0.428
-0.429
-0.4355
-0.4315
-0.432
-0.431
-0.4315
-0.434
-0.434
-0.434
-0.435
-0.4365
-0.4325
-0.432
-0.4325
-0.4325
-0.44
-0.441
-0.437
-0.4405
-0.4445
-0.4485
-0.4485
-0.444
-0.442
-0.444
-0.446
-0.4425
-0.4425
-0.436
-0.4305
-0.4335
-0.4275
-0.4175
-0.412
-0.3945
-0.3665
-0.3475
-0.332
-0.3135
-0.303
-0.294
-0.282
-0.266
-0.25
-0.2335
-0.2155
-0.189
-0.1605
-0.1435
-0.126
-0.1065
-0.0825
-0.07
-0.0655
-0.049
-0.0335
-0.033
-0.045
-0.054
-0.064
-0.089
-0.1315
-0.167
-0.188
-0.2225
-0.254
-0.282
-0.318
-0.3455
-0.3675
-0.395
-0.417
-0.4335
-0.452
-0.469
-0.4915
-0.505
-0.5005
-0.4915
-0.492
-0.4955
-0.4955
-0.4945
-0.481
-0.4625
-0.441
-0.429
-0.416
-0.399
-0.3865
-0.371
-0.3615
-0.3565
-0.3555
-0.3545
-0.3485
-0.3485
-0.3555
-0.3595
-0.3655
-0.3655
-0.37
-0.3735
-0.3735
-0.377
-0.376
-0.385
-0.3885
-0.3915
-0.3955
-0.393
-0.389
-0.3845
-0.3885
-0.389
-0.3855
-0.383
-0.3865
-0.386
-0.3825
-0.3845
-0.382
-0.38
-0.3805
-0.3835
-0.384
-0.3825
-0.3885
-0.3905
-0.392
-0.398
-0.4
-0.4
-0.392
-0.384
-0.3905
-0.397
-0.4005
-0.3955
-0.3845
-0.379
-0.3775
-0.385
-0.393
-0.3895
-0.3825
-0.3825
-0.385
-0.3855
-0.3825
-0.3825
-0.3865
-0.38
-0.3735
-0.374
-0.372
-0.371
-0.371
-0.371
-0.375
-0.3725
-0.3715
-0.371
-0.3645
-0.3765
-0.3855
-0.385
-0.3875
-0.388
-0.384
-0.3765
-0.3735
-0.37
-0.3675
-0.37
-0.3695
-0.3705
-0.3725
-0.367
-0.3645
-0.367
-0.3655
-0.3655
-0.3645
-0.3645
-0.365
-0.366
-0.3595
-0.351
-0.351
-0.351
-0.354
-0.3535
-0.343
-0.342
-0.3445
-0.342
-0.3395
-0.342
-0.3435
-0.346
-0.347
-0.337
-0.3395
-0.3465
-0.3465
-0.3495
-0.342
-0.336
-0.337
-0.3295
-0.327
-0.3285
-0.3205
-0.3135
-0.3145
-0.317
-0.3215
-0.3255
-0.3225
-0.3215
-0.321
-0.3145
-0.312
-0.316
-0.3145
-0.3095
-0.307
-0.306
-0.305
-0.3065
-0.31
-0.3015
-0.301
-0.308
-0.296
-0.294
-0.2915
-0.29
-0.292
-0.2815
-0.279
-0.278
-0.276
-0.2755
-0.2715
-0.2635
-0.257
-0.2555
-0.254
-0.248
-0.244
-0.2445
-0.238
-0.233
-0.231
-0.225
-0.221
-0.2195
-0.2255
-0.227
-0.223
-0.231
-0.241
-0.242
-0.2305
-0.21
-0.201
-0.2055
-0.2055
-0.19
-0.1825
-0.184
-0.1835
-0.1875
-0.1865
-0.1855
-0.1925
-0.1945
-0.192
-0.1935
-0.185
-0.182
-0.186
-0.1845
-0.1805
-0.182
-0.181
-0.1755
-0.1815
-0.177
-0.17
-0.167
-0.1655
-0.1695
-0.174
-0.1725
-0.173
-0.18
-0.1815
-0.1835
-0.184
-0.184
-0.184
-0.1885
-0.2
-0.203
-0.208
-0.211
-0.211
-0.2075
-0.2095
-0.2165
-0.2145
-0.222
-0.2325
-0.2335
-0.2345
-0.246
-0.255
-0.2535
-0.2615
-0.2675
-0.269
-0.273
-0.278
-0.2845
-0.29
-0.292
-0.292
-0.2975
-0.298
-0.301
-0.3105
-0.3145
-0.3205
-0.3255
-0.328
-0.3325
-0.3335
-0.332
-0.3385
-0.3435
-0.3485
-0.3555
-0.361
-0.367
-0.368
-0.365
-0.353
-0.351
-0.3605
-0.3605
-0.3585
-0.3545
-0.354
-0.3565
-0.357
-0.357
-0.361
-0.3595
-0.361
-0.367
-0.366
-0.3705
-0.376
-0.3805
-0.378
-0.376
-0.382
-0.3825
-0.386
-0.3875
-0.3875
-0.384
-0.379
-0.3805
-0.3775
-0.381
-0.388
-0.3945
-0.396
-0.394
-0.391
-0.384
-0.386
-0.39
-0.388
-0.3915
-0.3955
-0.3945
-0.3935
-0.381
-0.3795
-0.388
-0.39
-0.397
-0.3935
-0.3875
-0.3875
-0.3855
-0.3865
-0.387
-0.3855
-0.3885
-0.382
-0.3785
-0.383
-0.3895
-0.3935
-0.384
-0.379
-0.374
-0.371
-0.3695
-0.365
-0.371
-0.378
-0.38
-0.379
-0.38
-0.379
-0.3755
-0.3765
-0.377
-0.381
-0.3845
-0.3825
-0.385
-0.3845
-0.3785
-0.3725
-0.379
-0.385
-0.3835
-0.385
-0.381
-0.376
-0.3735
-0.3805
-0.385
-0.3805
-0.3865
-0.391
-0.395
-0.3935
-0.388
-0.3915
-0.394
-0.396
-0.392
-0.391
-0.397
-0.3945
-0.396
-0.3975
-0.394
-0.3955
-0.3965
-0.392
-0.3885
-0.391
-0.391
-0.3935
-0.394
-0.3855
-0.3845
-0.387
-0.382
-0.385
-0.384
-0.378
-0.3755
-0.371
-0.368
-0.3695
-0.3705
-0.368
-0.375
-0.376
-0.3745
-0.375
-0.373
-0.381
-0.381
-0.374
-0.376
-0.383
-0.3835
-0.3765
-0.3635
-0.362
-0.3655
-0.3575
-0.3535
-0.357
-0.362
-0.3585
-0.3595
-0.3645
-0.366
-0.366
-0.364
-0.366
-0.372
-0.3745
-0.3735
-0.3685
-0.3625
-0.3645
-0.3685
-0.3695
-0.3675
-0.3675
-0.3725
-0.3755
-0.373
-0.372
-0.3805
-0.3845
-0.3815
-0.373
-0.357
-0.3565
-0.3665
-0.375
-0.381
-0.38
-0.378
-0.3775
-0.3735
-0.377
-0.3805
-0.381
-0.3845
-0.381
-0.3765
-0.373
-0.3685
-0.372
-0.374
-0.3735
-0.373
-0.3735
-0.3795
-0.376
-0.38
-0.3815
-0.383
-0.3865
-0.3795
-0.388
-0.396
-0.3885
-0.3795
-0.3805
-0.384
-0.3785
-0.376
-0.381
-0.383
-0.38
-0.3755
-0.372
-0.3725
-0.373
-0.3705
-0.37
-0.371
-0.3735
-0.378
-0.3795
-0.379
-0.38
-0.3775
-0.374
-0.378
-0.3785
-0.3765
-0.384
-0.385
-0.38
-0.3815
-0.378
-0.3755
-0.3755
-0.3715
-0.3695
-0.374
-0.377
-0.375
-0.375
-0.373
-0.375
-0.3745
-0.3735
-0.382
-0.3785
-0.3725
-0.3745
-0.376
-0.379
-0.385
-0.386
-0.39
-0.3955
-0.3945
-0.3975
-0.399
-0.4015
-0.405
-0.403
-0.3915
-0.383
-0.3765
-0.3775
-0.388
-0.3865
-0.387
-0.386
-0.384
-0.3875
-0.3895
-0.388
-0.389
-0.391
-0.3905
-0.3905
-0.3845
-0.387
-0.395
-0.401
-0.402
-0.392
-0.3785
-0.376
-0.3895
-0.3885
-0.3805
-0.3815
-0.382
-0.3855
-0.3865
-0.388
-0.391
-0.3925
-0.387
-0.384
-0.39
-0.3925
-0.39
-0.3865
-0.3945
-0.3965
-0.3985
-0.3955
-0.3905
-0.398
-0.3945
-0.3945
-0.3975
-0.401
-0.404
-0.403
-0.405
-0.406
-0.4095
-0.4115
-0.4125
-0.411
-0.404
-0.4025
-0.402
-0.4
-0.4045
-0.4035
-0.4065
-0.407
-0.404
-0.405
-0.4075
-0.4105
-0.406
-0.411
-0.4125
-0.4055
-0.407
-0.4105
-0.413
-0.4145
-0.4125
-0.409
-0.4105
-0.412
-0.4105
-0.4045
-0.4055
-0.4145
-0.414
-0.4195
-0.4215
-0.4085
-0.402
-0.403
-0.4065
-0.404
-0.4015
-0.3945
-0.3945
-0.4045
-0.4045
-0.409
-0.4085
-0.404
-0.41
-0.411
-0.41
-0.409
-0.406
-0.4025
-0.4035
-0.4085
-0.4055
-0.4045
-0.406
-0.3965
-0.392
-0.3935
-0.402
-0.411
-0.4145
-0.4145
-0.4055
-0.4005
-0.396
-0.39
-0.391
-0.3925
-0.3935
-0.398
-0.3995
-0.4005
-0.4
-0.395
-0.397
-0.4005
-0.402
-0.3965
-0.3885
-0.3935
-0.397
-0.3955
-0.393
-0.392
-0.396
-0.3985
-0.3965
-0.394
-0.3915
-0.3905
-0.395
-0.394
-0.384
-0.375
-0.3775
-0.3765
-0.374
-0.3785
-0.3775
-0.3755
-0.3765
-0.379
-0.375
-0.3755
-0.3755
-0.3745
-0.3805
-0.3825
-0.382
-0.378
-0.3755
-0.377
-0.384
-0.3825
-0.372
-0.373
-0.375
-0.379
-0.381
-0.374
-0.3745
-0.377
-0.374
-0.3705
-0.37
-0.3715
-0.3665
-0.362
-0.3635
-0.3665
-0.369
-0.372
-0.373
-0.369
-0.3735
-0.381
-0.38
-0.3745
-0.375
-0.381
-0.3875
-0.389
-0.3885
-0.3855
-0.378
-0.375
-0.377
-0.374
-0.369
-0.3715
-0.37
-0.3695
-0.367
-0.359
-0.353
-0.344
-0.348
-0.353
-0.353
-0.3585
-0.3655
-0.369
-0.36
-0.3535
-0.36
-0.3705
-0.3765
-0.384
-0.39
-0.393
-0.3915
-0.3895
-0.3955
-0.402
-0.403
-0.4045
-0.405
-0.3995
-0.401
-0.4025
-0.4065
-0.4165
-0.41
-0.4055
-0.4085
-0.4055
-0.4075
-0.4115
-0.409
-0.3985
-0.393
-0.3965
-0.3975
-0.402
-0.4085
-0.411
-0.407
-0.3985
-0.397
-0.4
-0.4
-0.3975
-0.392
-0.3925
-0.397
-0.401
-0.401
-0.4015
-0.403
-0.4025
-0.4035
-0.4065
-0.412
-0.4045
-0.398
-0.404
-0.407
-0.4115
-0.4125
-0.4135
-0.418
-0.417
-0.413
-0.41
-0.412
-0.4105
-0.4085
-0.408
-0.404
-0.4045
-0.407
-0.4085
-0.411
-0.4095
-0.409
-0.4075
-0.4025
-0.403
-0.4035
-0.4035
-0.405
-0.407
-0.4095
-0.404
-0.402
-0.404
-0.4095
-0.415
-0.407
-0.4105
-0.414
-0.4085
-0.4125
-0.4125
-0.4145
-0.414
-0.4105
-0.4095
-0.3995
-0.386
-0.3645
-0.352
-0.3435
-0.3325
-0.3135
-0.2895
-0.2765
-0.2555
-0.2425
-0.234
-0.2205
-0.21
-0.195
-0.1685
-0.1385
-0.119
-0.106
-0.092
-0.076
-0.065
-0.055
-0.04
-0.03
-0.0365
-0.0475
-0.06
-0.0735
-0.097
-0.1335
-0.164
-0.1895
-0.209
-0.2295
-0.269
-0.308
-0.3255
-0.345
-0.373
-0.3945
-0.416
-0.4385
-0.464
-0.49
-0.49
-0.474
-0.458
-0.453
-0.4595
-0.466
-0.4625
-0.4545
-0.437
-0.4135
-0.3995
-0.386
-0.3725
-0.361
-0.358
-0.354
-0.351
-0.3495
-0.349
-0.348
-0.3435
-0.3495
-0.356
-0.361
-0.3625
-0.3595
-0.365
-0.3695
-0.365
-0.364
-0.3695
-0.3725
-0.377
-0.378
-0.3715
-0.373
-0.374
-0.375
-0.377
-0.381
-0.391
-0.3975
-0.401
-0.387
-0.376
-0.38
-0.3845
-0.388
-0.3855
-0.3855
-0.3845
-0.381
-0.383
-0.3905
-0.4005
-0.399
-0.391
-0.3845
-0.3775
-0.381
-0.385
-0.379
-0.375
-0.3695
-0.37
-0.37
-0.3685
-0.373
-0.3715
-0.3675
-0.3675
-0.3735
-0.3775
-0.3735
-0.369
-0.3655
-0.3665
-0.365
-0.364
-0.364
-0.353
-0.354
-0.363
-0.3645
-0.367
-0.3655
-0.368
-0.37
-0.3665
-0.364
-0.3565
-0.3545
-0.355
-0.354
-0.3575
-0.349
-0.341
-0.349
-0.3545
-0.352
-0.352
-0.347
-0.346
-0.345
-0.341
-0.3415
-0.3385
-0.3395
-0.344
-0.344
-0.344
-0.3445
-0.3445
-0.346
-0.347
-0.3435
-0.3385
-0.3335
-0.3345
-0.338
-0.3375
-0.334
-0.3295
-0.33
-0.3285
-0.3295
-0.3285
-0.3325
-0.3365
-0.328
-0.3255
-0.327
-0.331
-0.329
-0.329
-0.331
-0.334
-0.3335
-0.333
-0.334
-0.324
-0.322
-0.3245
-0.329
-0.3245
-0.3165
-0.3185
-0.313
-0.302
-0.3005
-0.303
-0.3035
-0.305
-0.3025
-0.31
-0.311
-0.3005
-0.293
-0.288
-0.284
-0.2815
-0.284
-0.2845
-0.2795
-0.273
-0.2695
-0.2675
-0.2635
-0.26
-0.2565
-0.254
-0.255
-0.254
-0.2495
-0.25
-0.2545
-0.2505
-0.248
-0.239
-0.2285
-0.228
-0.224
-0.223
-0.2235
-0.2255
-0.2235
-0.2195
-0.215
-0.2095
-0.21
-0.203
-0.1965
-0.1965
-0.1945
-0.1935
-0.199
-0.1995
-0.197
-0.1955
-0.1975
-0.2005
-0.193
-0.188
-0.1855
-0.1835
-0.1835
-0.181
-0.182
-0.186
-0.1855
-0.183
-0.185
-0.1865
-0.183
-0.176
-0.1745
-0.1745
-0.1745
-0.178
-0.177
-0.174
-0.172
-0.171
-0.171
-0.175
-0.1805
-0.1855
-0.1915
-0.197
-0.199
-0.205
-0.211
-0.2125
-0.2185
-0.222
-0.224
-0.2295
-0.235
-0.2355
-0.2405
-0.247
-0.2505
-0.2555
-0.2635
-0.2705
-0.2745
-0.2765
-0.2785
-0.2915
-0.2975
-0.2965
-0.2995
-0.3095
-0.318
-0.326
-0.3325
-0.331
-0.3345
-0.335
-0.3355
-0.338
-0.345
-0.354
-0.3545
-0.359
-0.3595
-0.3685
-0.3805
-0.381
-0.3895
-0.395
-0.392
-0.393
-0.3895
-0.384
-0.389
-0.387
-0.383
-0.387
-0.389
-0.394
-0.393
-0.395
-0.397
-0.3965
-0.3995
-0.4015
-0.4075
-0.408
-0.4065
-0.4035
-0.399
-0.403
-0.4085
-0.4055
-0.397
-0.39
-0.3955
-0.4025
-0.402
-0.402
-0.403
-0.403
-0.4025
-0.4045
-0.404
-0.397
-0.395
-0.3995
-0.4
-0.4015
-0.404
-0.403
-0.402
-0.406
-0.4095
-0.4035
-0.402
-0.402
-0.4035
-0.411
-0.412
-0.41
-0.415
-0.422
-0.414
-0.4095
-0.4115
-0.417
-0.4245
-0.4225
-0.422
-0.422
-0.422
-0.42
-0.4235
-0.4265
-0.4205
-0.4175
-0.4175
-0.42
-0.4225
-0.4215
-0.416
-0.4165
-0.4185
-0.419
-0.423
-0.4235
-0.425
-0.423
-0.4215
-0.423
-0.4255
-0.427
-0.432
-0.443
-0.444
-0.4495
-0.4495
-0.4405
-0.4465
-0.442
-0.4335
-0.431
-0.4275
-0.429
-0.4285
-0.424
-0.4285
-0.438
-0.4355
-0.428
-0.4275
-0.4275
-0.423
-0.422
-0.418
-0.4155
-0.418
-0.4205
-0.4205
-0.4175
-0.419
-0.415
-0.4155
-0.4225
-0.421
-0.42
-0.4215
-0.4175
-0.415
-0.421
-0.423
-0.427
-0.432
-0.432
-0.433
-0.429
-0.4245
-0.4235
-0.4265
-0.4275
-0.425
-0.4255
-0.4275
