ECG
-0.5035
-0.516
-0.525
-0.508
-0.5035
-0.511
-0.527
-0.526
-0.5195
-0.5125
-0.508
-0.508
-0.4835
-0.4785
-0.4895
-0.4805
-0.4935
-0.5205
-0.501
-0.4805
-0.488
-0.4935
-0.4925
-0.4825
-0.476
-0.4745
-0.4955
-0.506
-0.5025
-0.499
-0.4945
-0.4995
-0.4955
-0.4855
-0.483
-0.4775
-0.467
-0.48
-0.49
-0.4865
-0.479
-0.479
-0.4845
-0.4765
-0.49
-0.5045
-0.51
-0.505
-0.483
-0.485
-0.499
-0.4915
-0.4775
-0.4675
-0.4505
-0.4255
-0.4155
-0.4275
-0.4505
-0.462
-0.4525
-0.4535
-0.4435
-0.4355
-0.453
-0.4575
-0.456
-0.4575
-0.456
-0.4415
-0.4225
-0.419
-0.4305
-0.423
-0.401
-0.4035
-0.4185
-0.4385
-0.438
-0.4185
-0.4325
-0.446
-0.4305
-0.4215
-0.447
-0.4515
-0.4375
-0.448
-0.4395
-0.452
-0.4645
-0.455
-0.4605
-0.4485
-0.442
-0.4515
-0.4615
-0.4585
-0.456
-0.459
-0.47
-0.491
-0.4895
-0.5115
-0.54
-0.53
-0.517
-0.5205
-0.522
-0.5315
-0.542
-0.527
-0.515
-0.498
-0.497
-0.4925
-0.4895
-0.512
-0.5175
-0.5235
-0.531
-0.5375
-0.5445
-0.542
-0.5355
-0.5245
-0.52
-0.5355
-0.5415
-0.542
-0.533
-0.522
-0.531
-0.5355
-0.5255
-0.519
-0.5295
-0.5425
-0.553
-0.551
-0.5515
-0.556
-0.5525
-0.5395
-0.529
-0.544
-0.552
-0.5525
-0.5455
-0.5435
-0.558
-0.5375
-0.527
-0.5475
-0.5585
-0.559
-0.555
-0.55
-0.541
-0.5405
-0.5525
-0.552
-0.5305
-0.5275
-0.5285
-0.5255
-0.536
-0.538
-0.5425
-0.5425
-0.531
-0.533
-0.53
-0.519
-0.5195
-0.5235
-0.547
-0.561
-0.5395
-0.5595
-0.5685
-0.5235
-0.518
-0.529
-0.536
-0.534
-0.529
-0.5385
-0.5395
-0.526
-0.5165
-0.525
-0.5435
-0.5625
-0.5685
-0.584
-0.5975
-0.6025
-0.6085
-0.6215
-0.641
-0.6185
-0.612
-0.6175
-0.608
-0.587
-0.578
-0.5465
-0.4865
-0.5035
-0.4495
-0.4645
-0.37
-0.4295
-0.16
0.607
0.697
0.724
0.8185
0.8485
0.9105
0.911
0.948
0.965
0.9995
0.9735
0.9565
0.9415
0.8985
0.853
0.816
0.783
0.7515
0.7245
0.728
0.756
0.7825
0.7895
0.766
0.7535
0.749
0.7365
0.7355
0.75
0.742
0.7015
0.664
0.6605
0.6255
0.6285
0.644
0.6125
0.6405
0.609
0.6565
0.577
0.656
0.404
-0.331
-0.3775
-0.362
-0.398
-0.3795
-0.4295
-0.432
-0.455
-0.439
-0.4515
-0.457
-0.477
-0.4775
-0.4725
-0.477
-0.486
-0.4995
-0.5035
-0.5085
-0.516
-0.51
-0.506
-0.51
-0.5105
-0.501
-0.5085
-0.526
-0.5305
-0.519
-0.514
-0.531
-0.5315
-0.53
-0.529
-0.52
-0.5185
-0.52
-0.516
-0.517
-0.53
-0.5355
-0.5315
-0.5305
-0.5335
-0.5255
-0.518
-0.521
-0.5315
-0.529
-0.5195
-0.5315
-0.5245
-0.524
-0.525
-0.5065
-0.5275
-0.533
-0.518
-0.517
-0.5035
-0.4975
-0.5125
-0.504
-0.496
-0.5295
-0.5305
-0.5245
-0.5295
-0.522
-0.522
-0.5285
-0.538
-0.542
-0.5435
-0.544
-0.546
-0.539
-0.5375
-0.54
-0.528
-0.5155
-0.538
-0.5595
-0.5555
-0.563
-0.5725
-0.5585
-0.5465
-0.552
-0.553
-0.549
-0.5435
-0.5435
-0.548
-0.5615
-0.546
-0.5345
-0.561
-0.565
-0.566
-0.561
-0.552
-0.5605
-0.5605
-0.56
-0.558
-0.5555
-0.5565
-0.5595
-0.5635
-0.574
-0.5805
-0.5795
-0.5825
-0.573
-0.5595
-0.5645
-0.5765
-0.5905
-0.594
-0.5765
-0.554
-0.54
-0.5585
-0.5795
-0.582
-0.592
-0.599
-0.6025
-0.585
-0.576
-0.587
-0.592
-0.603
-0.602
-0.6015
-0.611
-0.614
-0.6135
-0.6
-0.6015
-0.619
-0.611
-0.6085
-0.6195
-0.6205
-0.623
-0.634
-0.6455
-0.6635
-0.6765
-0.6775
-0.6825
-0.684
-0.6895
-0.6835
-0.6775
-0.6965
-0.7165
-0.735
-0.743
-0.7445
-0.746
-0.7455
-0.731
-0.708
-0.719
-0.737
-0.749
-0.7645
-0.7535
-0.749
-0.745
-0.7485
-0.774
-0.7785
-0.7835
-0.79
-0.7995
-0.8005
-0.787
-0.8025
-0.8035
-0.792
-0.824
-0.847
-0.828
-0.8235
-0.83
-0.82
-0.823
-0.8265
-0.817
-0.8135
-0.8205
-0.8255
-0.8365
-0.834
-0.807
-0.806
-0.809
-0.822
-0.84
-0.8315
-0.8285
-0.8395
-0.852
-0.844
-0.828
-0.821
-0.834
-0.8415
-0.8195
-0.8115
-0.805
-0.803
-0.809
-0.7945
-0.785
-0.779
-0.7745
-0.777
-0.7825
-0.7785
-0.7535
-0.7385
-0.7425
-0.7355
-0.7285
-0.725
-0.717
-0.7125
-0.6925
-0.691
-0.6975
-0.6835
-0.6695
-0.653
-0.648
-0.648
-0.6555
-0.6645
-0.6615
-0.659
-0.6595
-0.6485
-0.628
-0.625
-0.6165
-0.607
-0.6025
-0.589
-0.6035
-0.625
-0.618
-0.6045
-0.609
-0.6005
-0.586
-0.586
-0.5805
-0.5765
-0.562
-0.5455
-0.5315
-0.5345
-0.558
-0.551
-0.533
-0.532
-0.54
-0.5505
-0.554
-0.5455
-0.534
-0.524
-0.4985
-0.4915
-0.5055
-0.514
-0.5205
-0.5195
-0.5105
-0.489
-0.489
-0.5085
-0.5115
-0.505
-0.489
-0.487
-0.49
-0.4955
-0.5015
-0.501
-0.509
-0.506
-0.502
-0.5
-0.4915
-0.486
-0.5085
-0.5215
-0.5095
-0.52
-0.524
-0.5155
-0.51
-0.5115
-0.518
-0.518
-0.509
-0.497
-0.4935
-0.4845
-0.477
-0.4815
-0.496
-0.5075
-0.497
-0.4915
-0.494
-0.489
-0.5005
-0.4955
-0.479
-0.493
-0.4945
-0.485
-0.484
-0.4835
-0.4625
-0.4445
-0.4575
-0.467
-0.463
-0.4605
-0.47
-0.4785
-0.4885
-0.509
-0.5135
-0.4925
-0.472
-0.469
-0.4765
-0.4725
-0.4675
-0.4785
-0.4835
-0.47
-0.4585
-0.4515
-0.452
-0.465
-0.451
-0.431
-0.436
-0.435
-0.4415
-0.456
-0.455
-0.4495
-0.45
-0.4505
-0.446
-0.4605
-0.4695
-0.461
-0.4495
-0.432
-0.446
-0.449
-0.4275
-0.4295
-0.4325
-0.4245
-0.427
-0.427
-0.4205
-0.424
-0.4195
-0.418
-0.4125
-0.3955
-0.4045
-0.431
-0.4415
-0.4295
-0.411
-0.3915
-0.3735
-0.3805
-0.3985
-0.415
-0.426
-0.4045
-0.405
-0.422
-0.4195
-0.4095
-0.4025
-0.409
-0.4095
-0.412
-0.4265
-0.4335
-0.4285
-0.437
-0.439
-0.4305
-0.4375
-0.45
-0.46
-0.461
-0.462
-0.467
-0.4655
-0.461
-0.466
-0.4695
-0.471
-0.474
-0.476
-0.5045
-0.5195
-0.507
-0.507
-0.506
-0.5015
-0.5045
-0.52
-0.5235
-0.5135
-0.5135
-0.5235
-0.5335
-0.5275
-0.5215
-0.527
-0.54
-0.535
-0.5115
-0.516
-0.523
-0.507
-0.512
-0.523
-0.5095
-0.5045
-0.5035
-0.493
-0.5145
-0.5345
-0.528
-0.517
-0.5195
-0.5355
-0.5275
-0.5245
-0.5255
-0.524
-0.526
-0.5215
-0.526
-0.5255
-0.533
-0.5355
-0.522
-0.513
-0.5085
-0.519
-0.519
-0.501
-0.4975
-0.509
-0.5265
-0.5265
-0.52
-0.5245
-0.527
-0.5345
-0.542
-0.537
-0.537
-0.5445
-0.5365
-0.5355
-0.545
-0.541
-0.533
-0.5315
-0.541
-0.5425
-0.532
-0.5185
-0.517
-0.5305
-0.5435
-0.5515
-0.5545
-0.5595
-0.5655
-0.5605
-0.5405
-0.538
-0.5495
-0.549
-0.5515
-0.5555
-0.5615
-0.5825
-0.5965
-0.612
-0.62
-0.634
-0.6545
-0.6435
-0.635
-0.622
-0.59
-0.5995
-0.5855
-0.5815
-0.547
-0.5345
-0.5145
-0.4915
-0.484
-0.404
-0.4465
0.167
0.7275
0.691
0.8065
0.8285
0.873
0.9135
0.977
1.002
0.9775
0.9835
0.944
0.921
0.8935
0.8765
0.8675
0.8365
0.803
0.752
0.7125
0.7395
0.7545
0.745
0.7455
0.7445
0.7485
0.745
0.7235
0.707
0.72
0.7045
0.6755
0.6265
0.6445
0.605
0.619
0.5995
0.5835
0.6065
-0.079
-0.405
-0.305
-0.3905
-0.3495
-0.3925
-0.3925
-0.416
-0.43
-0.4425
-0.461
-0.4625
-0.47
-0.473
-0.489
-0.494
-0.509
-0.5145
-0.519
-0.53
-0.5315
-0.5395
-0.554
-0.5585
-0.557
-0.563
-0.5665
-0.5685
-0.5695
-0.5625
-0.554
-0.5495
-0.552
-0.559
-0.5715
-0.5785
-0.5765
-0.574
-0.567
-0.569
-0.567
-0.5585
-0.565
-0.584
-0.591
-0.592
-0.597
-0.591
-0.5945
-0.5925
-0.592
-0.6085
-0.6295
-0.619
-0.589
-0.586
-0.5625
-0.5385
-0.5385
-0.557
-0.584
-0.597
-0.6115
-0.6065
-0.5935
-0.585
-0.5775
-0.6005
-0.6155
-0.6125
-0.6165
-0.613
-0.606
-0.597
-0.5945
-0.593
-0.5855
-0.581
-0.577
-0.5735
-0.568
-0.571
-0.578
-0.575
-0.58
-0.575
-0.5775
-0.5985
-0.591
-0.588
-0.5865
-0.6025
-0.6305
-0.6275
-0.628
-0.623
-0.6065
-0.5915
-0.591
-0.604
-0.6035
-0.6065
-0.61
-0.5835
-0.569
-0.571
-0.5755
-0.592
-0.6105
-0.613
-0.604
-0.6045
-0.6095
-0.6175
-0.6145
-0.604
-0.6045
-0.608
-0.611
-0.61
-0.6095
-0.6175
-0.6265
-0.625
-0.6115
-0.6065
-0.61
-0.612
-0.614
-0.6295
-0.654
-0.6555
-0.645
-0.6385
-0.64
-0.6435
-0.6315
-0.626
-0.6285
-0.624
-0.629
-0.6415
-0.647
-0.6555
-0.674
-0.679
-0.6745
-0.672
-0.682
-0.6995
-0.7075
-0.714
-0.712
-0.716
-0.7215
-0.7265
-0.7235
-0.7035
-0.7
-0.712
-0.7275
-0.73
-0.729
-0.7385
-0.762
-0.773
-0.7765
-0.785
-0.7855
-0.786
-0.789
-0.7935
-0.796
-0.7965
-0.788
-0.796
-0.8035
-0.8195
-0.848
-0.8445
-0.831
-0.8385
-0.85
-0.856
-0.865
-0.8685
-0.865
-0.871
-0.882
-0.8795
-0.8725
-0.865
-0.86
-0.865
-0.869
-0.868
-0.8675
-0.8695
-0.879
-0.8815
-0.882
-0.888
-0.886
-0.8855
-0.8945
-0.9055
-0.9
-0.8965
-0.909
-0.925
-0.931
-0.9155
-0.913
-0.9175
-0.8895
-0.872
-0.863
-0.8445
-0.8365
-0.8365
-0.8395
-0.845
-0.8445
-0.833
-0.8345
-0.8345
-0.8285
-0.819
-0.8075
-0.804
-0.8
-0.792
-0.786
-0.7945
-0.7875
-0.7765
-0.775
-0.7635
-0.7545
-0.7505
-0.739
-0.712
-0.716
-0.726
-0.717
-0.7175
-0.7155
-0.7165
-0.7075
-0.6945
-0.6955
-0.6905
-0.6845
-0.6705
-0.6545
-0.654
-0.6385
-0.632
-0.6375
-0.636
-0.6345
-0.627
-0.6185
-0.615
-0.6145
-0.6105
-0.612
-0.6125
-0.6105
-0.6095
-0.602
-0.5945
-0.5915
-0.588
-0.5865
-0.5835
-0.578
-0.5735
-0.565
-0.5655
-0.574
-0.5745
-0.5755
-0.5885
-0.579
-0.563
-0.5625
-0.5545
-0.5475
-0.5415
-0.5365
-0.545
-0.555
-0.5545
-0.549
-0.5505
-0.556
-0.5525
-0.542
-0.535
-0.5405
-0.5435
-0.5345
-0.529
-0.5255
-0.523
-0.5305
-0.535
-0.5415
-0.5395
-0.5275
-0.5215
-0.525
-0.5425
-0.5455
-0.5365
-0.53
-0.527
-0.54
-0.5395
-0.519
-0.5225
-0.538
-0.54
-0.5305
-0.5205
-0.5165
-0.521
-0.5295
-0.5225
-0.513
-0.5105
-0.5075
-0.502
-0.5
-0.503
-0.5135
-0.5275
-0.5285
-0.5315
-0.523
-0.509
-0.509
-0.4985
-0.48
-0.4855
-0.502
-0.5045
-0.501
-0.5135
-0.53
-0.5195
-0.51
-0.5065
-0.4955
-0.5005
-0.5015
-0.4895
-0.482
-0.463
-0.4635
-0.4725
-0.4615
-0.4715
-0.4885
-0.4995
-0.5085
-0.514
-0.502
-0.476
-0.455
-0.4475
-0.4575
-0.4555
-0.442
-0.4365
-0.44
-0.4405
-0.4455
-0.452
-0.444
-0.4425
-0.454
-0.451
-0.449
-0.4565
-0.446
-0.4435
-0.4555
-0.464
-0.45
-0.436
-0.4265
-0.4255
-0.437
-0.439
-0.4355
-0.419
-0.4245
-0.431
-0.4245
-0.428
-0.4215
-0.3985
-0.3835
-0.412
-0.4385
-0.438
-0.443
-0.4535
-0.457
-0.46
-0.46
-0.456
-0.477
-0.493
-0.4845
-0.4805
-0.492
-0.504
-0.515
-0.518
-0.5135
-0.515
-0.5175
-0.528
-0.538
-0.5455
-0.5525
-0.548
-0.5455
-0.553
-0.577
-0.5825
-0.565
-0.558
-0.549
-0.551
-0.5555
-0.558
-0.551
-0.5435
-0.5625
-0.5785
-0.584
-0.581
-0.5825
-0.5825
-0.579
-0.5785
-0.571
-0.568
-0.57
-0.564
-0.5755
-0.587
-0.5825
-0.5805
-0.582
-0.5805
-0.565
-0.5805
-0.592
-0.583
-0.583
-0.5885
-0.589
-0.5765
-0.5735
-0.5745
-0.5865
-0.5885
-0.5755
-0.563
-0.559
-0.567
-0.571
-0.575
-0.5745
-0.5755
-0.576
-0.5685
-0.572
-0.5725
-0.576
-0.587
-0.586
-0.591
-0.594
-0.587
-0.5865
-0.5915
-0.589
-0.586
-0.5925
-0.586
-0.577
-0.576
-0.5715
-0.574
-0.5905
-0.5975
-0.6005
-0.6115
-0.602
-0.591
-0.5835
-0.572
-0.569
-0.576
-0.5895
-0.605
-0.619
-0.633
-0.6495
-0.6615
-0.6775
-0.679
-0.6735
-0.6765
-0.6695
-0.6695
-0.649
-0.637
-0.6095
-0.611
-0.5785
-0.578
-0.5465
-0.524
-0.4955
-0.42
-0.437
0.254
0.7215
0.6435
0.763
0.7635
0.839
0.891
0.9395
0.9675
0.9705
0.9875
0.973
0.9515
0.931
0.906
0.8505
0.8125
0.7825
0.755
0.7455
0.7505
0.768
0.7855
0.7625
0.758
0.7775
0.786
0.767
0.7355
0.7625
0.714
0.715
0.6395
0.6925
0.5965
0.683
0.5765
0.6125
0.615
0.4415
1.359
0.4885
-0.0645
-0.1055
-0.522
-0.278
-0.4685
-0.3765
-0.4635
-0.4715
-0.4875
-0.5135
-0.509
-0.5405
-0.5425
-0.5815
-0.578
-0.581
-0.5665
-0.5635
-0.5585
-0.577
-0.6015
-0.6075
-0.6105
-0.626
-0.627
-0.621
-0.619
-0.61
-0.606
-0.598
-0.5905
-0.59
-0.5975
-0.6025
-0.596
-0.593
-0.5925
-0.5985
-0.608
-0.6155
-0.618
-0.61
-0.597
-0.5935
-0.5975
-0.5905
-0.5915
-0.596
-0.607
-0.625
-0.621
-0.6035
-0.599
-0.6035
-0.606
-0.6085
-0.599
-0.601
-0.6055
-0.6035
-0.5925
-0.579
-0.596
-0.6055
-0.6135
-0.622
-0.6015
-0.601
-0.604
-0.585
-0.59
-0.606
-0.605
-0.6105
-0.616
-0.6125
-0.6225
-0.6355
-0.629
-0.6125
-0.616
-0.6195
-0.6115
-0.6095
-0.614
-0.6155
-0.6085
-0.611
-0.6055
-0.615
-0.6345
-0.639
-0.637
-0.615
-0.6025
-0.596
-0.5845
-0.592
-0.5995
-0.599
-0.584
-0.5705
-0.594
-0.6195
-0.624
-0.6285
-0.6265
-0.615
-0.621
-0.622
-0.623
-0.6415
-0.645
-0.6405
-0.641
-0.6445
-0.6445
-0.6365
-0.6285
-0.6275
-0.633
-0.6415
-0.655
-0.651
-0.645
-0.663
-0.659
-0.6725
-0.679
-0.661
-0.683
-0.685
-0.666
-0.659
-0.646
-0.6285
-0.6245
-0.6385
-0.6515
-0.663
-0.6705
-0.677
-0.695
-0.706
-0.718
-0.728
-0.7345
-0.7335
-0.7265
-0.72
-0.6945
-0.697
-0.721
-0.7275
-0.741
-0.749
-0.743
-0.7485
-0.752
-0.75
-0.755
-0.7645
-0.763
-0.767
-0.787
-0.7915
-0.799
-0.8065
-0.8055
-0.8
-0.8035
-0.8205
-0.828
-0.8285
-0.825
-0.834
-0.845
-0.846
-0.8555
-0.853
-0.841
-0.843
-0.8475
-0.8615
-0.88
-0.895
-0.893
-0.8735
-0.8705
-0.871
-0.864
-0.866
-0.8825
-0.8925
-0.8975
-0.8985
-0.8895
-0.8845
-0.8915
-0.9025
-0.9045
-0.911
-0.9095
-0.9045
-0.9115
-0.915
-0.905
-0.891
-0.901
-0.9215
-0.937
-0.925
-0.904
-0.9035
-0.8995
-0.8905
-0.8805
-0.8715
-0.8625
-0.874
-0.882
-0.8555
-0.844
-0.842
-0.838
-0.8385
-0.8275
-0.8225
-0.819
-0.814
-0.815
-0.8075
-0.7985
-0.7915
-0.7705
-0.773
-0.78
-0.7715
-0.7735
-0.7665
-0.751
-0.755
-0.7645
-0.7585
-0.7535
-0.743
-0.7355
-0.7285
-0.724
-0.7185
-0.699
-0.6855
-0.6795
-0.679
-0.678
-0.67
-0.675
-0.6865
-0.68
-0.659
-0.64
-0.639
-0.638
-0.6165
-0.602
-0.6105
-0.6095
-0.6085
-0.6115
-0.607
-0.612
-0.6175
-0.6215
-0.6145
-0.612
-0.6125
-0.6095
-0.6135
-0.6125
-0.6125
-0.598
-0.585
-0.5865
-0.5725
-0.559
-0.555
-0.5685
-0.5795
-0.562
-0.5615
-0.5735
-0.556
-0.5495
-0.5735
-0.5805
-0.57
-0.566
-0.565
-0.5555
-0.56
-0.576
-0.5805
-0.579
-0.57
-0.5695
-0.5715
-0.565
-0.557
-0.5525
-0.5575
-0.5555
-0.5585
-0.5605
-0.5515
-0.555
-0.559
-0.556
-0.544
-0.5385
-0.5465
-0.5515
-0.5535
-0.54
-0.5375
-0.5395
-0.542
-0.55
-0.5395
-0.555
-0.5335
-0.5285
-0.5715
-0.5465
-0.526
-0.5135
-0.5085
-0.5085
-0.498
-0.517
-0.5245
-0.5175
-0.521
-0.52
-0.535
-0.561
-0.5535
-0.533
-0.5295
-0.5455
-0.5495
-0.541
-0.536
-0.5305
-0.534
-0.543
-0.5425
-0.5405
-0.5585
-0.569
-0.557
-0.527
-0.5015
-0.4875
-0.465
-0.4825
-0.5065
-0.512
-0.5245
-0.5215
-0.535
-0.542
-0.527
-0.5245
-0.513
-0.4815
-0.468
-0.4775
-0.4705
-0.467
-0.4795
-0.471
-0.455
-0.4635
-0.4745
-0.4765
-0.4825
-0.4865
-0.4825
-0.464
-0.452
-0.4565
-0.4625
-0.469
-0.459
-0.457
-0.4885
-0.495
-0.487
-0.51
-0.5125
-0.493
-0.4885
-0.49
-0.497
-0.506
-0.5055
-0.5005
-0.489
-0.4725
-0.4765
-0.479
-0.4685
-0.47
-0.4845
-0.5035
-0.5325
-0.5405
-0.537
-0.5435
-0.553
-0.5665
-0.568
-0.567
-0.566
-0.5695
-0.5875
-0.6015
-0.6055
-0.602
-0.5835
-0.5665
-0.569
-0.5775
-0.594
-0.6075
-0.604
-0.613
-0.6175
-0.606
-0.6165
-0.62
-0.597
-0.5835
-0.5925
-0.602
-0.6075
-0.6215
-0.638
-0.632
-0.613
-0.6005
-0.592
-0.5905
-0.5975
-0.6085
-0.61
-0.6125
-0.6165
-0.6225
-0.6275
-0.615
-0.604
-0.592
-0.5885
-0.612
-0.626
-0.6185
-0.624
-0.6315
-0.627
-0.628
-0.6305
-0.6355
-0.642
-0.6385
-0.6315
-0.631
-0.624
-0.6205
-0.626
-0.6195
-0.6105
-0.6135
-0.622
-0.6145
-0.6205
-0.638
-0.645
-0.644
-0.6425
-0.6445
-0.643
-0.6415
-0.639
-0.6395
-0.631
-0.6255
-0.6385
-0.6535
-0.6555
-0.644
-0.63
-0.63
-0.64
-0.647
-0.6445
-0.645
-0.642
-0.637
-0.666
-0.6895
-0.6865
-0.6855
-0.693
-0.7125
-0.704
-0.7025
-0.713
-0.731
-0.719
-0.726
-0.6925
-0.709
-0.6885
-0.678
-0.662
-0.6005
-0.639
-0.4945
-0.6495
-0.3325
-0.685
0.1825
1.4645
0.547
0.7235
0.7815
0.7605
0.871
0.8255
0.947
0.916
0.9545
0.8705
0.8825
0.8045
0.775
0.7325
0.674
0.6235
0.6
0.579
0.606
0.5975
0.649
0.627
0.6205
0.655
0.588
0.6605
0.493
0.746
0.3725
1.0285
1.1315
-0.512
-0.3075
-0.362
-0.4125
-0.3355
-0.416
-0.356
-0.445
-0.374
-0.438
-0.4475
-0.4965
-0.5165
-0.541
-0.5425
-0.5675
-0.595
-0.598
-0.606
-0.6025
-0.616
-0.634
-0.643
-0.6525
-0.6595
-0.653
-0.644
-0.6575
-0.669
-0.6645
-0.661
-0.666
-0.6615
-0.667
-0.6855
-0.681
-0.6675
-0.6655
-0.6635
-0.668
-0.686
-0.682
-0.6835
-0.702
-0.71
-0.6885
-0.677
-0.702
-0.7185
-0.7245
-0.7185
-0.7025
-0.6995
-0.703
-0.678
-0.687
-0.7145
-0.699
-0.6825
-0.663
-0.661
-0.6715
-0.663
-0.6475
-0.658
-0.667
-0.665
-0.672
-0.6755
-0.6785
-0.6825
-0.705
-0.71
-0.685
-0.684
-0.696
-0.696
-0.691
-0.678
-0.6595
-0.67
-0.67
-0.651
-0.6545
-0.666
-0.6865
-0.6975
-0.697
-0.7055
-0.6985
-0.685
-0.673
-0.6615
-0.683
-0.6715
-0.651
-0.678
-0.6825
-0.681
-0.6865
-0.6755
-0.6815
-0.694
-0.697
-0.7055
-0.6895
-0.679
-0.664
-0.6655
-0.6985
-0.6915
-0.693
-0.703
-0.702
-0.697
-0.701
-0.709
-0.7005
-0.712
-0.7115
-0.71
-0.715
-0.707
-0.714
-0.7155
-0.7085
-0.6965
-0.702
-0.73
-0.74
-0.7425
-0.7485
-0.7455
-0.731
-0.706
-0.687
-0.712
-0.726
-0.715
-0.7175
-0.7165
-0.722
-0.741
-0.765
-0.77
-0.7865
-0.8
-0.781
-0.769
-0.78
-0.8005
-0.808
-0.801
-0.799
-0.809
-0.7945
-0.7795
-0.7815
-0.783
-0.7885
-0.7985
-0.8075
-0.8135
-0.8235
-0.8275
-0.821
-0.8125
-0.8375
-0.868
-0.8885
-0.897
-0.886
-0.869
-0.8685
-0.887
-0.905
-0.9095
-0.9
-0.9195
-0.9325
-0.909
-0.9005
-0.904
-0.8865
-0.894
-0.9245
-0.941
-0.964
-0.9695
-0.9575
-0.953
-0.9555
-0.97
-0.974
-0.9795
-1.0015
-1.014
-1.021
-1.0105
-0.999
-1.007
-1.016
-1.0165
-1.009
-1.016
-1.007
-0.999
-1.0265
-1.024
-1.005
-1.009
-0.9965
-0.988
-0.987
-0.986
-1.0005
-0.992
-0.9805
-0.978
-0.9705
-0.98
-0.9955
-0.9885
-0.9685
-0.969
-0.985
-0.9975
-0.9895
-0.9675
-0.9565
-0.9105
-0.902
-0.9465
-0.9475
-0.9515
-0.9365
-0.907
-0.9075
-0.9135
-0.8995
-0.886
-0.884
-0.8735
-0.875
-0.8725
-0.849
-0.8405
-0.874
-0.896
-0.89
-0.877
-0.8545
-0.8395
-0.8425
-0.825
-0.799
-0.779
-0.75
-0.741
-0.759
-0.7735
-0.78
-0.802
-0.804
-0.779
-0.7545
-0.7415
-0.718
-0.7035
-0.712
-0.7115
-0.7115
-0.689
-0.6935
-0.714
-0.697
-0.6875
-0.6875
-0.684
-0.6865
-0.6955
-0.6905
-0.6895
-0.6845
-0.677
-0.681
-0.671
-0.674
-0.6765
-0.6805
-0.6995
-0.703
-0.7
-0.6825
-0.6635
-0.671
-0.6795
-0.683
-0.69
-0.685
-0.6725
-0.6565
-0.6465
-0.644
-0.6435
-0.6435
-0.6375
-0.63
-0.6295
-0.6385
-0.651
-0.656
-0.6755
-0.6745
-0.659
-0.672
-0.6935
-0.696
-0.6805
-0.6835
-0.6555
-0.644
-0.653
-0.639
-0.646
-0.645
-0.652
-0.665
-0.667
-0.6555
-0.6445
-0.641
-0.6245
-0.627
-0.631
-0.627
-0.648
-0.652
-0.637
-0.645
-0.6535
-0.659
-0.624
-0.607
-0.6475
-0.6515
-0.6185
-0.5715
-0.5845
-0.612
-0.602
-0.6035
-0.603
-0.6165
-0.615
-0.6095
-0.6245
-0.6175
-0.6185
-0.633
-0.6355
-0.6195
-0.598
-0.5905
-0.6045
-0.6265
-0.6355
-0.646
-0.6465
-0.6465
-0.6385
-0.6175
-0.616
-0.613
-0.6115
-0.626
-0.644
-0.645
-0.643
-0.6235
-0.6005
-0.6045
-0.607
-0.6095
-0.5935
-0.581
-0.5815
-0.5735
-0.575
-0.5845
-0.5905
-0.582
-0.5875
-0.58
-0.555
-0.5845
-0.618
-0.629
-0.648
-0.6355
-0.599
-0.5785
-0.588
-0.5945
-0.5935
-0.587
-0.5645
-0.5625
-0.578
-0.574
-0.5685
-0.577
-0.5725
-0.573
-0.5935
-0.6095
-0.6205
-0.622
-0.6065
-0.606
-0.5985
-0.591
-0.6165
-0.623
-0.6175
-0.628
-0.631
-0.6345
-0.633
-0.6315
-0.6365
-0.622
-0.627
-0.642
-0.642
-0.6685
-0.6985
-0.696
-0.6845
-0.6725
-0.6605
-0.6475
-0.6515
-0.6665
-0.665
-0.6665
-0.6625
-0.6745
-0.6795
-0.685
-0.7
-0.697
-0.6985
-0.6835
-0.68
-0.6995
-0.695
-0.6855
-0.6975
-0.696
-0.7085
-0.7295
-0.7235
-0.726
-0.731
-0.7255
-0.706
-0.7045
-0.7255
-0.7415
-0.742
-0.7165
-0.7065
-0.7145
-0.7285
-0.7295
-0.729
-0.7255
-0.7175
-0.709
-0.7055
-0.745
-0.75
-0.743
-0.7565
-0.747
-0.7305
-0.717
-0.712
-0.7145
-0.717
-0.7155
-0.715
-0.7265
-0.714
-0.6895
-0.7115
-0.7425
-0.7565
-0.754
-0.736
-0.711
-0.701
-0.695
-0.7005
-0.736
-0.739
-0.7495
-0.7585
-0.7405
-0.728
-0.72
-0.7205
-0.723
-0.7345
-0.725
-0.7365
-0.767
-0.7635
-0.7655
-0.774
-0.756
-0.757
-0.7805
-0.789
-0.818
-0.8275
-0.823
-0.804
-0.774
-0.7655
-0.7695
-0.7555
-0.7415
-0.7105
-0.69
-0.68
-0.6535
-0.628
-0.5525
-0.5535
-0.4205
-0.4655
-0.0885
0.6265
0.6085
0.6515
0.7025
0.6865
0.7315
0.7065
0.7505
0.693
0.735
0.6455
0.6705
0.538
-0.225
-0.4155
-0.3705
-0.415
-0.363
-0.384
-0.347
-0.3555
-0.3505
-0.37
-0.3805
-0.383
-0.3885
-0.399
-0.436
-0.4675
-0.4785
-0.5095
-0.529
-0.5275
-0.525
-0.5085
-0.5055
-0.511
-0.499
-0.4885
-0.5085
-0.5595
-0.597
-0.6185
-0.6375
-0.6305
-0.637
-0.669
-0.6895
-0.6665
-0.668
-0.691
-0.676
-0.7005
-0.7
-0.6715
-0.6955
-0.698
-0.698
-0.711
-0.6975
-0.676
-0.6975
-0.735
-0.7035
-0.7075
-0.7425
-0.721
-0.7035
-0.706
-0.7195
-0.7315
-0.751
-0.759
-0.757
-0.7635
-0.7525
-0.739
-0.741
-0.7555
-0.738
-0.72
-0.7315
-0.732
-0.7245
-0.727
-0.7265
-0.706
-0.6985
-0.7025
-0.7045
-0.721
-0.739
-0.7295
-0.7255
-0.7445
-0.7575
-0.7365
-0.731
-0.757
-0.7355
-0.7375
-0.7485
-0.718
-0.7245
-0.748
-0.775
-0.7845
-0.781
-0.778
-0.7605
-0.7555
-0.7255
-0.7055
-0.72
-0.735
-0.76
-0.7715
-0.7705
-0.773
-0.764
-0.74
-0.718
-0.7225
-0.722
-0.7155
-0.744
-0.758
-0.7685
-0.781
-0.768
-0.7535
-0.744
-0.75
-0.7595
-0.748
-0.734
-0.7365
-0.7315
-0.716
-0.7105
-0.7335
-0.7595
-0.757
-0.7545
-0.7605
-0.7705
-0.758
-0.742
-0.7605
-0.7685
-0.76
-0.768
-0.7605
-0.771
-0.784
-0.783
-0.7875
-0.764
-0.759
-0.7765
-0.7645
-0.7515
-0.7615
-0.7595
-0.77
-0.7815
-0.7865
-0.7945
-0.794
-0.795
-0.802
-0.8285
-0.843
-0.833
-0.82
-0.7935
-0.766
-0.761
-0.7825
-0.8025
-0.8115
-0.8205
-0.8195
-0.833
-0.8495
-0.8455
-0.841
-0.8465
-0.874
-0.889
-0.871
-0.8615
-0.869
-0.879
-0.877
-0.8825
-0.9105
-0.9165
-0.887
-0.9025
-0.9265
-0.917
-0.935
-0.943
-0.9465
-0.9335
-0.907
-0.9065
-0.919
-0.939
-0.9425
-0.947
-0.9495
-0.96
-0.994
-1.0025
-0.983
-0.993
-1.0305
-1.0385
-1.0405
-1.043
-1.0355
-1.045
-1.032
-1.01
-1.0355
-1.041
-1.04
-1.0365
-1.0315
-1.0445
-1.0295
-1.021
-1.026
-1.0295
-1.047
-1.072
-1.068
-1.0695
-1.0645
-1.048
-1.038
-1.0285
-1.061
-1.08
-1.0625
-1.0685
-1.0675
-1.0315
-1.007
-1.003
-1.009
-1.031
-1.0505
-1.038
-1.0285
-1.031
-1.0275
-1.0245
-1.036
-1.0435
-1.0215
-0.9985
-0.986
-0.9755
-0.9675
-0.9775
-0.97
-0.937
-0.934
-0.937
-0.9425
-0.959
-0.9595
-0.951
-0.9465
-0.93
-0.9055
-0.8895
-0.8885
-0.8935
-0.8635
-0.841
-0.8515
-0.858
-0.8575
-0.87
-0.8625
-0.843
-0.8415
-0.827
-0.8355
-0.836
-0.8475
-0.84
-0.8215
-0.843
-0.826
-0.82
-0.8035
-0.792
-0.8025
-0.803
-0.823
-0.807
-0.791
-0.8065
-0.7885
-0.753
-0.753
-0.7475
-0.7385
-0.7515
-0.7705
-0.7875
-0.7575
-0.733
-0.731
-0.733
-0.7565
-0.7535
-0.748
-0.7605
-0.759
-0.7575
-0.76
-0.7535
-0.748
-0.7385
-0.7555
-0.7815
-0.776
-0.747
-0.741
-0.7655
-0.773
-0.7675
-0.748
-0.7395
-0.723
-0.7095
-0.7305
-0.729
-0.726
-0.7365
-0.757
-0.779
-0.7825
-0.778
-0.7545
-0.745
-0.745
-0.7565
-0.766
-0.755
-0.7555
-0.7625
-0.7675
-0.7585
-0.7465
-0.7195
-0.702
-0.7105
-0.7065
-0.701
-0.7075
-0.7135
-0.7055
-0.7225
-0.739
-0.742
-0.765
-0.752
-0.7355
-0.7365
-0.7365
-0.7385
-0.7255
-0.713
-0.6845
-0.671
-0.6835
-0.698
-0.714
-0.7095
-0.7105
-0.71
-0.7025
-0.7215
-0.718
-0.7205
-0.7325
-0.7085
-0.72
-0.7295
-0.7075
-0.7025
-0.7175
-0.7225
-0.7035
-0.6965
-0.687
-0.6825
-0.701
-0.696
-0.688
-0.691
-0.702
-0.7085
-0.695
-0.6945
-0.6915
-0.689
-0.7065
-0.715
-0.716
-0.716
-0.705
-0.6915
-0.6795
-0.673
-0.6635
-0.638
-0.6385
-0.661
-0.675
-0.686
-0.703
-0.726
-0.7365
-0.722
-0.696
-0.691
-0.6785
-0.65
-0.634
-0.651
-0.655
-0.642
-0.6565
-0.675
-0.695
-0.687
-0.684
-0.6945
-0.698
-0.698
-0.681
-0.696
-0.729
-0.733
-0.729
-0.729
-0.724
-0.72
-0.7075
-0.6985
-0.7015
-0.712
-0.713
-0.7215
-0.7375
-0.7265
-0.735
-0.744
-0.7425
-0.7495
-0.734
-0.7535
-0.788
-0.7945
-0.786
-0.77
-0.7755
-0.782
-0.776
-0.7655
-0.7625
-0.7575
-0.772
-0.794
-0.8025
-0.812
-0.816
-0.83
-0.8305
-0.817
-0.802
-0.7835
-0.774
-0.7535
-0.7495
-0.753
-0.754
-0.77
-0.7665
-0.774
-0.795
-0.785
-0.7605
-0.748
-0.754
-0.751
-0.7605
-0.777
-0.776
-0.7695
-0.755
-0.756
-0.7625
-0.782
-0.7955
-0.7935
-0.8005
-0.813
-0.8185
-0.804
-0.788
-0.757
-0.746
-0.756
-0.7585
-0.77
-0.7875
-0.8135
-0.809
-0.806
-0.8195
-0.8005
-0.7875
-0.785
-0.7885
-0.7915
-0.765
-0.747
-0.748
-0.75
-0.761
-0.7815
-0.7945
-0.7845
-0.772
-0.778
-0.781
-0.7845
-0.7795
-0.7965
-0.837
-0.837
-0.831
-0.846
-0.8425
-0.842
-0.875
-0.8985
-0.8945
-0.8865
-0.893
-0.8845
-0.8615
-0.86
-0.844
-0.815
-0.7725
-0.7725
-0.752
-0.73
-0.677
-0.619
-0.5655
-0.5185
-0.4845
-0.4045
-0.433
0.164
0.7125
0.6265
0.682
0.6615
0.6515
0.686
0.617
0.7165
0.245
-0.4005
-0.341
-0.3705
-0.4125
-0.425
-0.454
-0.4355
-0.4395
-0.4465
-0.4585
-0.435
-0.429
-0.424
-0.446
-0.45
-0.466
-0.5055
-0.5355
-0.553
-0.5505
-0.554
-0.5795
-0.592
-0.605
-0.619
-0.6005
-0.594
-0.594
-0.5985
-0.641
-0.676
-0.696
-0.704
-0.6965
-0.714
-0.7575
-0.7685
-0.753
-0.762
-0.7715
-0.774
-0.774
-0.7815
-0.792
-0.783
-0.785
-0.7915
-0.7985
-0.811
-0.819
-0.8055
-0.796
-0.8035
-0.7895
-0.7785
-0.7755
-0.7835
-0.783
-0.777
-0.785
-0.781
-0.7965
-0.8005
-0.7975
-0.793
-0.7745
-0.7855
-0.8
-0.7965
-0.7915
-0.7965
-0.815
-0.8235
-0.8225
-0.8275
-0.8215
-0.7955
-0.7835
-0.7955
-0.7965
-0.7985
-0.7985
-0.8045
-0.8015
-0.7835
-0.792
-0.7935
-0.787
-0.7855
-0.7825
-0.788
-0.8105
-0.814
-0.8065
-0.821
-0.8155
-0.806
-0.8085
-0.8105
-0.8025
-0.7885
-0.785
-0.7945
-0.816
-0.829
-0.826
-0.843
-0.849
-0.828
-0.8345
-0.8345
-0.8225
-0.814
-0.804
-0.799
-0.819
-0.833
-0.8195
-0.829
-0.84
-0.8435
-0.8345
-0.82
-0.815
-0.816
-0.81
-0.7915
-0.7965
-0.7975
-0.8
-0.8165
-0.824
-0.828
-0.832
-0.834
-0.8375
-0.843
-0.824
-0.8065
-0.818
-0.8375
-0.855
-0.8595
-0.8715
-0.8665
-0.85
-0.872
-0.8655
-0.8585
-0.874
-0.8435
-0.82
-0.816
-0.816
-0.81
-0.8045
-0.819
-0.828
-0.841
-0.85
-0.8455
-0.848
-0.857
-0.8565
-0.853
-0.856
-0.8375
-0.844
-0.8935
-0.9125
-0.9295
-0.9105
-0.881
-0.887
-0.8925
-0.9115
-0.9095
-0.902
-0.9
-0.911
-0.9245
-0.92
-0.934
-0.946
-0.95
-0.947
-0.939
-0.952
-0.9765
-0.99
-0.9975
-0.9985
-0.999
-1.0015
-0.9885
-0.9935
-1.013
-1.0245
-1.0355
-1.0515
-1.0595
-1.0555
-1.065
-1.0675
-1.06
-1.064
-1.0765
-1.072
-1.059
-1.0715
-1.081
-1.081
-1.0745
-1.067
-1.064
-1.0545
-1.051
-1.065
-1.073
-1.0705
-1.0815
-1.0905
-1.0775
-1.0915
-1.1125
-1.105
-1.1135
-1.116
-1.116
-1.129
-1.147
-1.1545
-1.1305
-1.1005
-1.118
-1.1355
-1.106
-1.103
-1.0975
-1.0805
-1.0735
-1.0665
-1.0735
-1.075
-1.069
-1.0585
-1.048
-1.044
-1.051
-1.0575
-1.061
-1.075
-1.064
-1.0515
-1.0425
-1.0415
-1.043
-1.03
-1.005
-0.99
-1.0195
-1.01
-0.997
-1.008
-0.994
-0.989
-0.973
-0.971
-0.986
-0.9745
-0.9785
-0.9705
-0.933
-0.8955
-0.8925
-0.9035
-0.887
-0.8895
-0.886
-0.8675
-0.8695
-0.8805
-0.8835
-0.8755
-0.872
-0.8695
-0.8595
-0.8585
-0.843
-0.8275
-0.855
-0.8775
-0.8745
-0.8615
-0.8635
-0.87
-0.864
-0.8545
-0.8455
-0.842
-0.828
-0.82
-0.8315
-0.8345
-0.8265
-0.826
-0.8275
-0.8335
-0.8245
-0.8025
-0.7885
-0.7845
-0.7875
-0.7865
-0.808
-0.815
-0.8165
-0.823
-0.82
-0.829
-0.8225
-0.818
-0.816
-0.801
-0.784
-0.7905
-0.804
-0.806
-0.812
-0.814
-0.8105
-0.805
-0.804
-0.796
-0.783
-0.793
-0.7895
-0.7825
-0.797
-0.7885
-0.78
-0.781
-0.756
-0.7495
-0.7915
-0.813
-0.807
-0.813
-0.823
-0.834
-0.832
-0.8185
-0.8275
-0.8155
-0.7715
-0.767
-0.7795
-0.7805
-0.775
-0.778
-0.787
-0.799
-0.803
-0.7885
-0.8025
-0.8135
-0.804
-0.797
-0.7745
-0.761
-0.767
-0.7625
-0.755
-0.762
-0.768
-0.761
-0.7575
-0.7555
-0.7505
-0.747
-0.754
-0.7685
-0.78
-0.789
-0.7785
-0.7625
-0.75
-0.749
-0.7425
-0.7415
-0.7705
-0.7685
-0.7555
-0.7545
-0.7485
-0.7395
-0.726
-0.7115
-0.7095
-0.706
-0.7055
-0.7225
-0.733
-0.7455
-0.742
-0.7285
-0.727
-0.7245
-0.7175
-0.7145
-0.711
-0.714
-0.722
-0.7145
-0.71
-0.711
-0.7075
-0.717
-0.716
-0.693
-0.7035
-0.72
-0.712
-0.7095
-0.704
-0.696
-0.702
-0.7045
-0.713
-0.7285
-0.744
-0.7635
-0.774
-0.7625
-0.7465
-0.75
-0.7615
-0.774
-0.7765
-0.7865
-0.8035
-0.815
-0.839
-0.848
-0.8205
-0.805
-0.805
-0.814
-0.8155
-0.799
-0.8015
-0.802
-0.7965
-0.802
-0.8025
-0.797
-0.799
-0.801
-0.809
-0.816
-0.8225
-0.831
-0.8295
-0.828
-0.8225
-0.82
-0.8225
-0.8255
-0.8335
-0.8295
-0.8195
-0.826
-0.827
-0.827
-0.8285
-0.83
-0.8415
-0.8505
-0.8595
-0.8605
-0.853
-0.85
-0.8415
-0.8295
-0.829
-0.819
-0.818
-0.83
-0.8315
-0.84
-0.8405
-0.831
-0.83
-0.828
-0.837
-0.853
-0.8545
-0.8575
-0.853
-0.839
-0.837
-0.8505
-0.854
-0.85
-0.838
-0.8485
-0.843
-0.8125
-0.8265
-0.833
-0.8325
-0.8405
-0.8595
-0.865
-0.857
-0.8675
-0.8695
-0.8595
-0.8425
-0.8225
-0.8085
-0.813
-0.832
-0.8415
-0.844
-0.833
-0.8295
-0.836
-0.827
-0.8225
-0.8215
-0.8265
-0.8395
-0.847
-0.8675
-0.8805
-0.8855
-0.9255
-0.944
-0.9455
-0.952
-0.9375
-0.9295
-0.908
-0.899
-0.866
-0.8425
-0.8345
-0.8085
-0.78
-0.767
-0.721
-0.678
-0.6205
-0.532
-0.498
-0.3775
-0.438
0.083
0.677
0.6265
0.7075
0.686
0.7205
0.6925
0.7015
0.6165
0.654
0.3995
-0.3255
-0.3665
-0.3705
-0.439
-0.437
-0.461
-0.4205
-0.446
-0.433
-0.4165
-0.416
-0.4135
-0.42
-0.4385
-0.43
-0.45
-0.475
-0.481
-0.5035
-0.5295
-0.5405
-0.5485
-0.552
-0.555
-0.5785
-0.5975
-0.603
-0.6135
-0.6335
-0.664
-0.6885
-0.7045
-0.725
-0.729
-0.734
-0.7475
-0.7455
-0.7475
-0.761
-0.7765
-0.7885
-0.802
-0.81
-0.814
-0.8315
-0.8435
-0.8335
-0.8135
-0.814
-0.817
-0.8205
-0.845
-0.8445
-0.8195
-0.8215
-0.836
-0.831
-0.835
-0.8515
-0.846
-0.833
-0.815
-0.808
-0.8215
-0.8145
-0.833
-0.845
-0.831
-0.8375
-0.833
-0.8375
-0.8405
-0.8375
-0.845
-0.847
-0.852
-0.8565
-0.8475
-0.839
-0.8315
-0.8335
-0.838
-0.8445
-0.8545
-0.8535
-0.859
-0.8595
-0.8545
-0.856
-0.8665
-0.8595
-0.8385
-0.8255
-0.825
-0.8425
-0.8495
-0.844
-0.8385
-0.8445
-0.8415
-0.8255
-0.8205
-0.831
-0.8395
-0.843
-0.8315
-0.826
-0.851
-0.8625
-0.8715
-0.8665
-0.8515
-0.855
-0.8625
-0.846
-0.8325
-0.84
-0.8455
-0.8545
-0.8605
-0.865
-0.8685
-0.8685
-0.8575
-0.8465
-0.853
-0.863
-0.8635
-0.864
-0.853
-0.8545
-0.875
-0.8755
-0.87
-0.868
-0.862
-0.857
-0.8615
-0.855
-0.8745
-0.8855
-0.872
-0.8885
-0.885
-0.872
-0.863
-0.8715
-0.872
-0.8675
-0.881
-0.8805
-0.88
-0.88
-0.8715
-0.8565
-0.862
-0.874
-0.892
-0.906
-0.897
-0.904
-0.91
-0.921
-0.928
-0.9255
-0.9335
-0.937
-0.94
-0.934
-0.9255
-0.928
-0.9255
-0.908
-0.914
-0.95
-0.9685
-0.9765
-0.9825
-0.9765
-0.966
-0.962
-0.961
-0.964
-0.945
-0.9505
-0.992
-0.994
-0.9925
-1.007
-1.02
-1.0295
-1.0345
-1.025
-1.028
-1.045
-1.0475
-1.051
-1.0495
-1.0545
-1.0585
-1.053
-1.0615
-1.0695
-1.0715
-1.0685
-1.0635
-1.0785
-1.0935
-1.097
-1.104
-1.1075
-1.1125
-1.122
-1.134
-1.139
-1.13
-1.143
-1.16
-1.1445
-1.133
-1.136
-1.143
-1.1485
-1.147
-1.149
-1.16
-1.163
-1.16
-1.168
-1.1565
-1.1585
-1.167
-1.143
-1.1305
-1.125
-1.113
-1.1265
-1.14
-1.1335
-1.1355
-1.1415
-1.1355
-1.1255
-1.117
-1.1085
-1.1085
-1.117
-1.1135
-1.111
-1.099
-1.0745
-1.0825
-1.088
-1.071
-1.0625
-1.0645
-1.0655
-1.0605
-1.063
-1.067
-1.052
-1.0485
-1.049
-1.032
-1.025
-1.003
-0.9955
-1.0075
-0.9965
-0.993
-0.992
-0.9855
-0.99
-1.002
-1.01
-1.0055
-0.9965
-0.984
-0.962
-0.946
-0.9455
-0.949
-0.936
-0.928
-0.9455
-0.9415
-0.9295
-0.92
-0.905
-0.9065
-0.912
-0.9055
-0.893
-0.9005
-0.908
-0.913
-0.9075
-0.896
-0.9035
-0.8925
-0.8695
-0.865
-0.8735
-0.8745
-0.882
-0.8965
-0.9025
-0.9075
-0.9055
-0.896
-0.8905
-0.8735
-0.844
-0.84
-0.86
-0.8645
-0.857
-0.8585
-0.845
-0.8205
-0.804
-0.7955
-0.776
-0.7755
-0.794
-0.7855
-0.7815
-0.782
-0.7725
-0.7585
-0.747
-0.741
-0.7375
-0.731
-0.7285
-0.737
-0.7515
-0.767
-0.789
-0.7945
-0.7885
-0.7875
-0.785
-0.789
-0.781
-0.782
-0.7775
-0.7705
-0.778
-0.776
-0.782
-0.7765
-0.786
-0.8125
-0.811
-0.815
-0.8235
-0.833
-0.8415
-0.833
-0.8105
-0.793
-0.794
-0.793
-0.7955
-0.803
-0.812
-0.821
-0.829
-0.8335
-0.831
-0.835
-0.824
-0.805
-0.8
-0.792
-0.792
-0.7985
-0.8095
-0.822
-0.825
-0.8235
-0.821
-0.814
-0.79
-0.806
-0.8385
-0.831
-0.8195
-0.829
-0.844
-0.8415
-0.8265
-0.823
-0.8265
-0.8255
-0.8295
-0.83
-0.831
-0.824
-0.8245
-0.8185
-0.8065
-0.811
-0.798
-0.7945
-0.809
-0.833
-0.855
-0.851
-0.837
-0.826
-0.8085
-0.796
-0.813
-0.813
-0.7935
-0.8
-0.8085
-0.813
-0.8165
-0.8065
-0.8065
-0.8225
-0.832
-0.8265
-0.823
-0.834
-0.847
-0.8585
-0.868
-0.872
-0.884
-0.904
-0.915
-0.922
-0.921
-0.9115
-0.905
-0.898
-0.8925
-0.874
-0.833
-0.831
-0.8135
-0.797
-0.7685
-0.744
-0.6845
-0.624
-0.581
-0.5315
-0.4985
-0.3755
-0.461
0.083
0.6865
0.6275
0.6665
0.6825
0.673
0.6675
0.601
0.585
0.6015
-0.075
-0.4475
-0.3555
-0.4405
-0.391
-0.408
-0.3705
-0.396
-0.4065
-0.388
-0.399
-0.3895
-0.3795
-0.379
-0.3965
-0.4315
-0.4675
-0.482
-0.4945
-0.488
-0.5015
-0.5255
-0.5405
-0.559
-0.5615
-0.5665
-0.574
-0.5885
-0.6255
-0.656
-0.6755
-0.695
-0.708
-0.7215
-0.738
-0.7415
-0.7505
-0.772
-0.7885
-0.7945
-0.7925
-0.81
-0.8205
-0.823
-0.8045
-0.7905
-0.805
-0.8195
-0.853
-0.8615
-0.8495
-0.8395
-0.826
-0.8225
-0.825
-0.8345
-0.841
-0.844
-0.839
-0.838
-0.8465
-0.8445
-0.847
-0.859
-0.876
-0.878
-0.8725
-0.8655
-0.865
-0.874
-0.857
-0.8445
-0.852
-0.85
-0.8505
-0.8565
-0.8725
-0.8765
-0.875
-0.8825
-0.87
-0.865
-0.8685
-0.863
-0.864
-0.8715
-0.8665
-0.8715
-0.8835
-0.869
-0.854
-0.859
-0.883
-0.8825
-0.869
-0.869
-0.8555
-0.8515
-0.858
-0.8635
-0.8655
-0.8595
-0.8575
-0.8605
-0.8735
-0.8835
-0.8795
-0.8805
-0.8855
-0.8725
-0.8595
-0.8825
-0.911
-0.9175
-0.911
-0.8985
-0.8975
-0.89
-0.872
-0.8605
-0.888
-0.912
-0.897
-0.9
-0.9085
-0.903
-0.8965
-0.8975
-0.908
-0.9245
-0.914
-0.9035
-0.919
-0.921
-0.9295
-0.921
-0.9015
-0.9245
-0.929
-0.9195
-0.927
-0.927
-0.9205
-0.9155
-0.908
-0.9015
-0.914
-0.914
-0.9095
-0.9145
-0.9135
-0.9145
-0.9135
-0.9165
-0.915
-0.917
-0.9265
-0.912
-0.8945
-0.891
-0.881
-0.8785
-0.8935
-0.9105
-0.906
-0.8765
-0.865
-0.888
-0.9185
-0.934
-0.923
-0.9215
-0.949
-0.9595
-0.957
-0.962
-0.9675
-0.9765
-0.995
-1.0045
-1.007
-1.026
-1.0325
-1.02
-1.025
-1.025
-1.0255
-1.0415
-1.0555
-1.068
-1.061
-1.062
-1.0785
-1.0725
-1.0665
-1.0735
-1.075
-1.0775
-1.088
-1.0925
-1.098
-1.1045
-1.109
-1.112
-1.1115
-1.116
-1.129
-1.144
-1.15
-1.151
-1.156
-1.1595
-1.1515
-1.1435
-1.1305
-1.127
-1.133
-1.1405
-1.135
-1.132
-1.1525
-1.1415
-1.1215
-1.1245
-1.1365
-1.132
-1.1215
-1.127
-1.128
-1.1245
-1.128
-1.1335
-1.1305
-1.1185
-1.0975
-1.068
-1.0295
-1.0305
-1.057
-1.0655
-1.053
-1.0575
-1.0675
-1.0575
-1.0545
-1.048
-1.0355
-1.025
-1.015
-1.007
-1.018
-1.0215
-1.0015
-0.99
-0.983
-0.9895
-0.9935
-0.9825
-0.9805
-0.9665
-0.9435
-0.9235
-0.922
-0.9155
-0.9075
-0.918
-0.92
-0.914
-0.9065
-0.909
-0.8975
-0.8805
-0.878
-0.8865
-0.887
-0.874
-0.864
-0.873
-0.8825
-0.883
-0.8875
-0.8815
-0.866
-0.854
-0.8555
-0.8655
-0.876
-0.8825
-0.881
-0.8595
-0.849
-0.852
-0.839
-0.8445
-0.8545
-0.8435
-0.8515
-0.84
-0.8165
-0.8325
-0.833
-0.8205
-0.831
-0.8425
-0.846
-0.8435
-0.8435
-0.8605
-0.8665
-0.857
-0.847
-0.8375
-0.834
-0.8355
-0.838
-0.835
-0.8295
-0.829
-0.834
-0.8365
-0.8405
-0.848
-0.85
-0.8435
-0.848
-0.846
-0.831
-0.827
-0.8265
-0.83
-0.8295
-0.838
-0.848
-0.8325
-0.8295
-0.8375
-0.839
-0.8375
-0.8295
-0.821
-0.8255
-0.82
-0.8215
-0.847
-0.8455
-0.8335
-0.8295
-0.831
-0.8335
-0.824
-0.81
-0.806
-0.827
-0.8675
-0.8675
-0.8425
-0.842
-0.84
-0.8405
-0.836
-0.831
-0.8295
-0.829
-0.8265
-0.823
-0.8235
-0.8175
-0.824
-0.845
-0.8535
-0.849
-0.838
-0.8395
-0.8495
-0.859
-0.869
-0.869
-0.8855
-0.8825
-0.861
-0.8465
-0.822
-0.8235
-0.8415
-0.848
-0.848
-0.8445
-0.847
-0.8325
-0.8185
-0.8405
-0.8565
-0.845
-0.8275
-0.8235
-0.8285
-0.8325
-0.823
-0.815
-0.8265
-0.8395
-0.8455
-0.8515
-0.8515
-0.848
-0.8435
-0.842
-0.841
-0.8415
-0.857
-0.8465
-0.843
-0.8625
-0.848
-0.8245
-0.8175
-0.8115
-0.8145
-0.8345
-0.847
-0.838
-0.8325
-0.846
-0.8455
-0.8425
-0.858
-0.872
-0.864
-0.8455
-0.841
-0.834
-0.8335
-0.832
-0.8285
-0.846
-0.8305
-0.8175
-0.837
-0.8475
-0.8505
-0.8465
-0.8525
-0.87
-0.87
-0.891
-0.9225
-0.9075
-0.896
-0.903
-0.901
-0.8925
-0.8895
-0.876
-0.8675
-0.8275
-0.795
-0.762
-0.749
-0.711
-0.6585
-0.6085
-0.5415
-0.507
-0.3835
-0.4375
0.083
0.6805
0.626
0.7165
0.7205
0.7765
0.773
0.771
0.7065
0.6845
0.6585
0.59
0.6245
0.0035
-0.407
-0.3005
0.263
0.575
0.542
0.611
0.5425
0.64
-0.0055
-0.419
-0.2915
-0.3685
-0.3425
-0.3635
-0.37
-0.3955
-0.409
-0.427
-0.462
-0.4975
-0.504
-0.495
-0.5055
-0.5105
-0.512
-0.5345
-0.602
-0.6475
-0.673
-0.6915
-0.7
-0.7255
-0.7355
-0.72
-0.7385
-0.7715
-0.758
-0.749
-0.747
-0.743
-0.7585
-0.756
-0.746
-0.743
-0.751
-0.7695
-0.7835
-0.765
-0.7435
-0.7495
-0.7395
-0.7385
-0.7625
-0.765
-0.754
-0.777
-0.77
-0.7655
-0.785
-0.775
-0.79
-0.7915
-0.8025
-0.8295
-0.829
-0.823
-0.823
-0.8285
-0.8325
-0.8255
-0.8115
-0.823
-0.831
-0.834
-0.8315
-0.833
-0.847
-0.858
-0.862
-0.8605
-0.8645
-0.839
-0.827
-0.841
-0.84
-0.8365
-0.844
-0.849
-0.856
-0.859
-0.8615
-0.8655
-0.8655
-0.8765
-0.865
-0.8625
-0.8845
-0.8945
-0.8735
-0.872
-0.8865
-0.886
-0.89
-0.884
-0.8825
-0.881
-0.898
-0.913
-0.919
-0.9415
-0.942
-0.944
-0.9475
-0.936
-0.9205
-0.9145
-0.9285
-0.935
-0.938
-0.951
-0.9645
-0.968
-0.9505
-0.929
-0.926
-0.9365
-0.953
-0.95
-0.936
-0.9275
-0.926
-0.9435
-0.9335
-0.9325
-0.9415
-0.9305
-0.9595
-0.9605
-0.9365
-0.939
-0.9365
-0.9655
-0.9865
-0.978
-0.967
-0.963
-0.967
-0.9645
-0.965
-0.968
-0.971
-0.9765
-0.986
-0.976
-0.972
-0.987
-0.9855
-0.9905
-0.9975
-1.0055
-1.007
-0.9975
-1.0135
-1.018
-1.021
-1.032
-1.027
-1.046
-1.062
-1.0665
-1.092
-1.1075
-1.101
-1.09
-1.0835
-1.0865
-1.087
-1.0865
-1.0975
-1.099
-1.099
-1.1155
-1.1365
-1.143
-1.1555
-1.1605
-1.1475
-1.1555
-1.1155
-1.161
-1.101
-1.1725
-1.093
-1.171
-1.1305
-1.1745
-1.133
-0.2505
-0.537
0.3545
0.054
-1.539
-0.9185
-0.4525
-0.275
-0.369
-0.331
-0.3345
-0.3685
-0.339
-0.373
-0.334
-0.404
-0.295
-0.616
-1.2565
-1.0515
-0.3875
-0.3175
-0.3695
-0.304
-0.396
-0.2775
-0.5975
-0.7
-0.18
-0.6
-1.1835
-1.164
-1.164
-1.1715
-1.181
-1.1845
-1.173
-1.158
-1.124
-1.135
-1.1335
-1.119
-1.116
-1.104
-1.0985
-1.0845
-1.078
-1.105
-1.124
-1.1245
-1.1055
-1.066
-1.0505
-1.061
-1.0585
-1.063
-1.053
-1.0485
-1.055
-1.0275
-1.0305
-1.0395
-1.0205
-1.0185
-1.021
-1.007
-0.986
-0.9685
-0.9545
-0.9575
-0.9625
-0.964
-0.9695
-0.9705
-0.975
-0.968
-0.954
-0.955
-0.9495
-0.9375
-0.9165
-0.907
-0.9315
-0.9255
-0.917
-0.917
-0.885
-0.869
-0.8825
-0.913
-0.9165
-0.908
-0.9165
-0.904
-0.8935
-0.897
-0.9045
-0.9105
-0.903
-0.8985
-0.895
-0.8855
-0.8975
-0.8935
-0.8785
-0.8885
-0.8735
-0.876
-0.8825
-0.877
-0.892
-0.8855
-0.882
-0.882
-0.868
-0.862
-0.866
-0.8755
-0.8545
-0.8495
-0.882
-0.8765
-0.858
-0.8655
-0.8805
-0.892
-0.8965
-0.874
-0.847
-0.8465
-0.86
-0.8615
-0.854
-0.8795
-0.9015
-0.8995
-0.9055
-0.91
-0.9135
-0.9055
-0.8915
-0.8605
-0.855
-0.8775
-0.8745
-0.8495
-0.8275
-0.8425
-0.8635
-0.8765
-0.8745
-0.8685
-0.874
-0.875
-0.88
-0.891
-0.9055
-0.898
-0.8715
-0.8695
-0.8925
-0.915
-0.908
-0.895
-0.889
-0.8605
-0.8365
-0.806
-0.7995
-0.8315
-0.8435
-0.847
-0.862
-0.8905
-0.894
-0.8975
-0.9105
-0.918
-0.9305
-0.925
-0.911
-0.899
-0.8865
-0.8485
-0.843
-0.842
-0.838
-0.8295
-0.7895
-0.771
-0.735
-0.71
-0.605
-0.5625
-0.431
-0.4635
-0.1595
0.579
0.6565
0.688
0.7065
0.7305
0.732
0.711
0.62
0.6415
0.47
-0.279
-0.382
-0.3515
-0.405
-0.382
-0.434
-0.4095
-0.415
-0.3805
-0.3615
-0.34
-0.3645
-0.3975
-0.398
-0.4135
-0.4295
-0.443
-0.478
-0.513
-0.5325
-0.5405
-0.578
-0.606
-0.604
-0.6135
-0.6295
-0.6565
-0.6805
-0.7195
-0.767
-0.786
-0.7955
-0.7855
-0.784
-0.8025
-0.7945
-0.8115
-0.837
-0.8385
-0.8535
-0.873
-0.868
-0.847
-0.848
-0.8565
-0.861
-0.8635
-0.872
-0.883
-0.876
-0.865
-0.868
-0.8715
-0.864
-0.8665
-0.887
-0.886
-0.8995
-0.927
-0.912
-0.8915
-0.896
-0.9085
-0.9125
-0.903
-0.901
-0.906
-0.904
-0.912
-0.9135
-0.9015
-0.8985
-0.9
-0.895
-0.891
-0.8985
-0.899
-0.881
-0.8945
-0.9125
-0.908
-0.9055
-0.892
-0.8905
-0.8945
-0.8825
-0.8725
-0.8725
-0.8815
-0.8955
-0.886
-0.89
-0.904
-0.906
-0.8995
-0.884
-0.891
-0.9015
-0.9165
-0.9155
-0.9045
-0.9035
-0.897
-0.8995
-0.907
-0.9245
-0.933
-0.9085
-0.913
-0.9285
-0.92
-0.909
-0.905
-0.926
-0.941
-0.936
-0.9185
-0.8945
-0.8825
-0.905
-0.924
-0.9255
-0.921
-0.918
-0.9235
-0.9115
-0.917
-0.935
-0.927
-0.903
-0.909
-0.9285
-0.931
-0.9255
-0.9215
-0.954
-0.965
-0.9505
-0.9505
-0.9465
-0.962
-0.963
-0.95
-0.942
-0.942
-0.9495
-0.956
-0.9585
-0.949
-0.949
-0.9595
-0.98
-0.9945
-0.9955
-1.0025
-0.9915
-0.9675
-0.984
-1.0145
-1.0205
-1.027
-1.021
-1.0135
-1.0185
-1.0205
-1.016
-1.0045
-1.0
-1.007
-1.0105
-1.0095
-1.0315
-1.0435
-1.0235
-1.0265
-1.0395
-1.046
-1.057
-1.054
-1.0725
-1.0945
-1.116
-1.13
-1.1225
-1.1195
-1.0975
-1.095
-1.1075
-1.1185
-1.116
-1.118
-1.13
-1.131
-1.1495
-1.165
-1.164
-1.1415
-1.136
-1.133
-1.146
-1.1815
-1.172
-1.1575
-1.165
-1.176
-1.177
-1.172
-1.15
-1.1445
-1.159
-1.1615
-1.173
-1.1785
-1.1705
-1.1615
-1.1725
-1.178
-1.155
-1.1565
-1.1745
-1.1585
-1.147
-1.158
-1.146
-1.1125
-1.086
-1.0925
-1.1075
-1.101
-1.101
-1.102
-1.084
-1.065
-1.0595
-1.084
-1.105
-1.0975
-1.0745
-1.07
-1.0645
-1.0425
-1.036
-1.0165
-1.0245
-1.0455
-1.0215
-0.999
-0.978
-0.975
-0.993
-0.985
-0.9875
-0.9915
-0.976
-0.963
-0.9515
-0.9595
-0.9575
-0.9475
-0.947
-0.9345
-0.9075
-0.904
-0.914
-0.888
-0.898
-0.9255
-0.923
-0.918
-0.9025
-0.896
-0.869
-0.8405
-0.8195
-0.8135
-0.838
-0.838
-0.835
-0.8315
-0.835
-0.843
-0.849
-0.8385
-0.8075
-0.7965
-0.7945
-0.786
-0.7765
-0.776
-0.7745
-0.7805
-0.796
-0.7925
-0.7915
-0.8055
-0.814
-0.8155
-0.81
-0.81
-0.822
-0.8335
-0.8335
-0.8235
-0.823
-0.837
-0.853
-0.836
-0.7755
-0.77
-0.79
-0.7925
-0.802
-0.811
-0.828
-0.836
-0.837
-0.8165
-0.7965
-0.807
-0.8285
-0.8355
-0.8305
-0.815
-0.818
-0.842
-0.842
-0.856
-0.8885
-0.881
-0.8595
-0.859
-0.8565
-0.873
-0.8855
-0.8765
-0.8665
-0.8715
-0.887
-0.8905
-0.884
-0.877
-0.901
-0.914
-0.887
-0.8765
-0.8955
-0.9075
-0.9055
-0.8795
-0.861
-0.869
-0.871
-0.876
-0.874
-0.8695
-0.8665
-0.857
-0.8575
-0.85
-0.85
-0.86
-0.858
-0.874
-0.88
-0.883
-0.886
-0.858
-0.817
-0.83
-0.8835
-0.8945
-0.9005
-0.903
-0.907
-0.914
-0.905
-0.9145
-0.9165
-0.911
-0.925
-0.9275
-0.9155
-0.9025
-0.8825
-0.8565
-0.8375
-0.8565
-0.883
-0.8745
-0.8825
-0.902
-0.916
-0.919
-0.905
-0.895
-0.8945
-0.892
-0.881
-0.884
-0.896
-0.901
-0.8975
-0.901
-0.8955
-0.902
-0.9065
-0.8935
-0.8895
-0.8745
-0.877
-0.875
-0.8745
-0.9005
-0.916
-0.925
-0.9175
-0.883
-0.863
-0.889
-0.891
-0.8635
-0.8615
-0.8625
-0.866
-0.875
-0.8855
-0.8995
-0.905
-0.9035
-0.9035
-0.891
-0.893
-0.8945
-0.8955
-0.8855
-0.86
-0.869
-0.881
-0.911
-0.9205
-0.886
-0.866
-0.8635
-0.8795
-0.884
-0.875
-0.8875
-0.91
-0.909
-0.897
-0.904
-0.918
-0.939
-0.9655
-0.953
-0.9245
-0.9075
-0.9075
-0.9115
-0.894
-0.892
-0.8865
-0.869
-0.843
-0.8405
-0.819
-0.799
-0.762
-0.709
-0.665
-0.6315
-0.5655
-0.519
-0.5025
-0.398
-0.4565
0.17
0.6905
0.6055
0.676
0.5975
0.692
0.084
-0.4315
-0.35
-0.4555
-0.4295
-0.477
-0.5085
-0.5265
-0.537
-0.5195
-0.536
-0.548
-0.5495
-0.5665
-0.572
-0.5715
-0.578
-0.5675
-0.577
-0.5935
-0.615
-0.6305
-0.643
-0.6455
-0.6515
-0.6575
-0.659
-0.677
-0.694
-0.715
-0.715
-0.7105
-0.7285
-0.747
-0.782
-0.7985
-0.786
-0.7995
-0.8015
-0.774
-0.7725
-0.794
-0.8
-0.797
-0.8365
-0.8495
-0.8295
-0.8445
-0.8615
-0.885
-0.8795
-0.8655
-0.8735
-0.8675
-0.854
-0.845
-0.854
-0.863
-0.8545
-0.848
-0.863
-0.867
-0.861
-0.8705
-0.871
-0.878
-0.878
-0.8795
-0.8835
-0.868
-0.8875
-0.915
-0.8905
-0.861
-0.8515
-0.858
-0.8745
-0.8715
-0.857
-0.8165
-0.812
-0.8505
-0.85
-0.839
-0.825
-0.8495
-0.881
-0.8745
-0.88
-0.876
-0.874
-0.861
-0.8445
-0.86
-0.8725
-0.8665
-0.8645
-0.877
-0.878
-0.8825
-0.885
-0.87
-0.8665
-0.853
-0.8495
-0.8595
-0.8595
-0.8605
-0.8525
-0.8555
-0.8625
-0.844
-0.8215
-0.8275
-0.8365
-0.8415
-0.858
-0.8645
-0.859
-0.8775
-0.8895
-0.872
-0.85
-0.849
-0.867
-0.8485
-0.854
-0.8745
-0.853
-0.8435
-0.8585
-0.8725
-0.8685
-0.8655
-0.856
-0.8335
-0.842
-0.86
-0.868
-0.886
-0.8925
-0.8945
-0.8885
-0.891
-0.899
-0.899
-0.8865
-0.8745
-0.886
-0.8655
-0.839
-0.8455
-0.864
-0.848
-0.8235
-0.837
-0.845
-0.8635
-0.8885
-0.9
-0.921
-0.932
-0.9125
-0.8985
-0.8965
-0.8905
-0.8775
-0.865
-0.8655
-0.874
-0.8955
-0.8975
-0.8985
-0.9195
-0.942
-0.952
-0.937
-0.9225
-0.915
-0.9385
-0.9545
-0.94
-0.9425
-0.9375
-0.931
-0.944
-0.954
-0.954
-0.9745
-1.0085
-1.0125
-0.9985
-0.982
-0.9805
-0.9955
-1.005
-1.014
-1.0135
-1.0075
-1.0105
-1.0205
-1.019
-1.0155
-1.0215
-1.0305
-1.06
-1.0775
-1.0775
-1.077
-1.067
-1.0495
-1.0285
-1.0375
-1.0465
-1.0435
-1.062
-1.089
-1.076
-1.0585
-1.093
-1.091
-1.0675
-1.0585
-1.0565
-1.0625
-1.0585
-1.0735
-1.0795
-1.0725
-1.0645
-1.0815
-1.0915
-1.069
-1.081
-1.08
-1.0345
-1.011
-1.0195
-1.0335
-1.039
-1.034
-1.029
-1.027
-1.036
-1.0395
-1.0255
-1.0095
-0.9975
-0.9995
-1.01
-1.029
-1.0265
-1.007
-1.0105
-0.995
-0.9745
-0.9785
-0.976
-0.9685
-0.965
-0.9685
-0.958
-0.9465
-0.945
-0.948
-0.937
-0.905
-0.899
-0.8965
-0.873
-0.865
-0.887
-0.8985
-0.887
-0.875
-0.869
-0.8925
-0.914
-0.8915
-0.88
-0.883
-0.882
-0.8715
-0.836
-0.834
-0.832
-0.816
-0.8245
-0.831
-0.837
-0.825
-0.8015
-0.806
-0.8285
-0.8335
-0.8225
-0.8255
-0.8125
-0.7805
-0.784
-0.79
-0.7685
-0.775
-0.7985
-0.7995
-0.806
-0.811
-0.8025
-0.785
-0.769
-0.769
-0.781
-0.779
-0.767
-0.7845
-0.795
-0.783
-0.777
-0.776
-0.7785
-0.774
-0.7735
-0.782
-0.785
-0.7925
-0.799
-0.798
-0.793
-0.776
-0.7565
-0.728
-0.7385
-0.776
-0.7615
-0.745
-0.75
-0.7605
-0.7595
-0.7565
-0.763
-0.754
-0.7545
-0.762
-0.757
-0.7505
-0.74
-0.7415
-0.7505
-0.7525
-0.7555
-0.7585
-0.772
-0.787
-0.786
-0.7895
-0.7745
-0.7405
-0.758
-0.7585
-0.737
-0.752
-0.747
-0.7415
-0.7535
-0.7585
-0.741
-0.712
-0.7085
-0.7245
-0.7335
-0.7305
-0.7315
-0.749
-0.757
-0.76
-0.7405
-0.7345
-0.7615
-0.771
-0.7695
-0.7545
-0.7515
-0.7435
-0.7315
-0.7395
-0.743
-0.7495
-0.7605
-0.779
-0.778
-0.765
-0.766
-0.766
-0.7735
-0.764
-0.7475
-0.725
-0.7115
-0.706
-0.714
-0.765
-0.7775
-0.7815
-0.7815
-0.765
-0.7415
-0.7395
-0.7785
-0.7715
-0.7575
-0.769
-0.7575
-0.736
-0.7435
-0.755
-0.762
-0.7675
-0.775
-0.7805
-0.7775
-0.7735
-0.7785
-0.769
-0.734
-0.729
-0.71
-0.7085
-0.755
-0.756
-0.7495
-0.7665
-0.76
-0.76
-0.779
-0.788
-0.776
-0.7505
-0.7395
-0.7415
-0.7415
-0.7205
-0.7145
-0.7315
-0.713
-0.7225
-0.751
-0.7565
-0.774
-0.7675
-0.7445
-0.7255
-0.716
-0.7205
-0.729
-0.74
-0.738
-0.728
-0.7295
-0.7325
-0.7255
-0.7175
-0.7245
-0.738
-0.733
-0.7255
-0.733
-0.751
-0.7645
-0.757
-0.729
-0.7135
-0.7205
-0.718
-0.7335
-0.7635
-0.754
-0.7435
-0.738
-0.723
-0.7315
-0.7365
-0.722
-0.7165
-0.7155
-0.697
-0.6875
-0.6825
-0.683
-0.692
-0.6955
-0.7025
-0.711
-0.7345
-0.7285
-0.711
-0.7055
-0.7
-0.7015
-0.6885
-0.688
-0.708
-0.711
-0.6995
-0.6895
-0.672
-0.6665
-0.672
-0.68
-0.6845
-0.6805
-0.6825
-0.682
-0.682
-0.687
-0.68
-0.655
-0.6535
-0.653
-0.644
-0.6415
-0.6305
-0.6255
-0.633
-0.6555
-0.671
-0.673
-0.6705
-0.669
-0.6825
-0.684
-0.671
-0.661
-0.6475
-0.645
-0.6575
-0.6695
-0.673
-0.682
-0.6785
-0.6705
-0.676
-0.662
-0.6505
-0.644
-0.65
-0.654
-0.644
-0.651
-0.661
-0.686
-0.701
-0.6985
-0.7085
-0.719
-0.7215
-0.723
-0.7335
-0.74
-0.744
-0.7415
-0.717
-0.6885
-0.686
-0.7
-0.724
-0.729
-0.713
-0.705
-0.7165
-0.7095
-0.689
-0.7135
-0.719
-0.7165
-0.7325
-0.736
-0.7225
-0.6965
-0.696
-0.7095
-0.7075
-0.716
-0.7395
-0.7485
-0.747
-0.7315
-0.715
-0.7125
-0.725
-0.744
-0.7445
-0.741
-0.7335
-0.7375
-0.745
-0.7405
-0.7465
-0.751
-0.742
-0.724
-0.7205
-0.714
-0.7015
-0.714
-0.715
-0.719
-0.735
-0.723
-0.713
-0.7175
-0.7185
-0.722
-0.727
-0.7355
-0.7375
-0.7205
-0.721
-0.7285
-0.717
-0.717
-0.728
-0.747
-0.7545
-0.7485
-0.7395
-0.718
-0.717
-0.7395
-0.7665
-0.7815
-0.788
-0.7975
-0.8185
-0.837
-0.8285
-0.82
-0.8225
-0.8015
-0.7725
-0.7515
-0.7295
-0.713
-0.687
-0.682
-0.6365
-0.6435
-0.582
-0.555
-0.4585
-0.4135
-0.345
0.4115
0.71
0.6545
0.7355
0.7265
0.7675
0.752
0.775
0.758
0.769
0.718
0.7305
0.6255
0.682
0.33
-0.3695
-0.3635
-0.3705
-0.3485
-0.3205
-0.3625
-0.3425
-0.3625
-0.349
-0.3715
-0.375
-0.371
-0.3755
-0.421
-0.4475
-0.464
-0.486
-0.468
-0.468
-0.4735
-0.4685
-0.484
-0.5015
-0.5095
-0.502
-0.5095
-0.539
-0.5695
-0.599
-0.6135
-0.606
-0.6075
-0.6385
-0.653
-0.658
-0.653
-0.6375
-0.6625
-0.6885
-0.696
-0.6935
-0.687
-0.702
-0.711
-0.7175
-0.73
-0.7175
-0.7
-0.6785
-0.6625
-0.672
-0.679
-0.6865
-0.6865
-0.686
-0.6915
-0.6955
-0.7015
-0.7105
-0.716
-0.717
-0.7155
-0.707
-0.705
-0.7005
-0.6955
-0.7015
-0.708
-0.7135
-0.7195
-0.7215
-0.706
-0.6865
-0.685
-0.6905
-0.6785
-0.6705
-0.6665
-0.661
-0.688
-0.706
-0.7015
-0.697
-0.6975
-0.697
-0.6925
-0.708
-0.721
-0.712
-0.701
-0.6915
-0.69
-0.694
-0.686
-0.6795
-0.675
-0.671
-0.675
-0.6855
-0.6885
-0.687
-0.6835
-0.682
-0.683
-0.687
-0.6955
-0.712
-0.719
-0.701
-0.6935
-0.681
-0.667
-0.6695
-0.6815
-0.681
-0.6735
-0.6775
-0.6515
-0.663
-0.703
-0.7
-0.7035
-0.7145
-0.7055
-0.6925
-0.692
-0.6895
-0.6855
-0.693
-0.7
-0.693
-0.673
-0.6755
-0.6925
-0.6905
-0.6935
-0.697
-0.6895
-0.677
-0.687
-0.694
-0.684
-0.6845
-0.6905
-0.697
-0.7
-0.7205
-0.725
-0.7155
-0.6995
-0.686
-0.7085
-0.716
-0.7055
-0.6995
-0.702
-0.704
-0.705
-0.6995
-0.692
-0.7055
-0.72
-0.7275
-0.7305
-0.7465
-0.759
-0.7415
-0.735
-0.74
-0.742
-0.7465
-0.7545
-0.761
-0.7685
-0.7755
-0.768
-0.754
-0.752
-0.765
-0.7715
-0.771
-0.779
-0.788
-0.7945
-0.802
-0.808
-0.8065
-0.802
-0.804
-0.8035
-0.811
-0.8295
-0.8305
-0.815
-0.8275
-0.8705
-0.894
-0.8915
-0.883
-0.8845
-0.896
-0.884
-0.875
-0.881
-0.863
-0.8595
-0.8695
-0.8685
-0.8835
-0.8905
-0.8875
-0.89
-0.8935
-0.895
-0.9045
-0.912
-0.9075
-0.912
-0.8965
-0.8935
-0.9155
-0.916
-0.9225
-0.92
-0.9165
-0.923
-0.9285
-0.9355
-0.9285
-0.921
-0.9255
-0.921
-0.937
-0.946
-0.929
-0.937
-0.9365
-0.929
-0.9245
-0.92
-0.929
-0.931
-0.927
-0.9275
-0.915
-0.9055
-0.9075
-0.9015
-0.8965
-0.898
-0.9075
-0.9025
-0.8925
-0.8825
-0.871
-0.871
-0.859
-0.84
-0.8255
-0.817
-0.8185
-0.8255
-0.8215
-0.81
-0.806
-0.796
-0.797
-0.794
-0.7865
-0.784
-0.7815
-0.781
-0.7775
-0.7815
-0.7725
-0.7745
-0.768
-0.759
-0.7615
-0.7425
-0.7295
-0.7115
-0.6995
-0.7075
-0.692
-0.672
-0.677
-0.6705
-0.6695
-0.6655
-0.658
-0.646
-0.637
-0.676
-0.6785
-0.645
-0.6255
-0.628
-0.656
-0.657
-0.645
-0.625
-0.6105
-0.5985
-0.5765
-0.592
-0.6145
-0.6165
-0.6175
-0.6095
-0.602
-0.581
-0.575
-0.61
-0.6255
-0.6225
-0.61
-0.607
-0.6035
-0.588
-0.5925
-0.6005
-0.5965
-0.585
-0.586
-0.5935
-0.5915
-0.5955
-0.5985
-0.5905
-0.59
-0.5955
-0.583
-0.5685
-0.57
-0.571
-0.5795
-0.583
-0.559
-0.5515
-0.575
-0.587
-0.5795
-0.5735
-0.57
-0.5565
-0.5535
-0.5585
-0.558
-0.575
-0.593
-0.599
-0.607
-0.598
-0.583
-0.576
-0.5585
-0.5535
-0.5665
-0.572
-0.571
-0.5775
-0.582
-0.58
-0.583
-0.5845
-0.5855
-0.5885
-0.575
-0.5575
-0.548
-0.5455
-0.5555
-0.556
-0.5415
-0.533
-0.5285
-0.5295
-0.5415
-0.5475
-0.5475
-0.562
-0.5675
-0.5525
-0.544
-0.542
-0.5395
-0.5365
-0.544
-0.543
-0.5445
-0.562
-0.536
-0.5095
-0.5285
-0.5355
-0.5255
-0.5285
-0.537
-0.534
-0.524
-0.5075
-0.506
-0.539
-0.5585
-0.548
-0.543
-0.545
-0.5475
-0.545
-0.542
-0.546
-0.526
-0.5115
-0.531
-0.538
-0.5225
-0.496
-0.485
-0.484
-0.4765
-0.4795
-0.483
-0.4835
-0.4865
-0.492
-0.496
-0.494
-0.499
-0.4925
-0.4775
-0.477
-0.4725
-0.4785
-0.4805
-0.4825
-0.4755
-0.463
-0.4745
-0.483
-0.4895
-0.493
-0.5005
-0.502
-0.5075
-0.503
-0.4935
-0.497
-0.4965
-0.5165
-0.519
-0.53
-0.548
-0.5455
-0.5445
-0.548
-0.5535
-0.545
-0.554
-0.563
-0.567
-0.5755
-0.569
-0.5825
-0.6085
-0.6105
-0.599
-0.5985
-0.5975
-0.584
-0.5615
-0.5485
-0.5595
-0.567
-0.577
-0.5975
-0.5995
-0.59
-0.591
-0.5915
-0.575
-0.57
-0.577
-0.583
-0.598
-0.5995
-0.6
-0.6065
-0.6025
-0.5885
-0.589
-0.607
-0.61
-0.608
-0.593
-0.5905
-0.6255
-0.636
-0.6075
-0.582
-0.5785
-0.5895
-0.595
-0.602
-0.613
-0.6025
-0.587
-0.5865
-0.5885
-0.592
-0.6025
-0.6275
-0.634
-0.616
-0.6235
-0.6285
-0.6005
-0.5985
-0.6225
-0.615
-0.6045
-0.6125
-0.6265
-0.6275
-0.607
-0.593
-0.591
-0.58
-0.577
-0.603
-0.601
-0.5935
-0.602
-0.6
-0.596
-0.5895
-0.587
-0.584
-0.58
-0.586
-0.5985
-0.6075
-0.618
-0.623
-0.631
-0.6555
-0.676
-0.687
-0.698
-0.6975
-0.695
-0.7095
-0.7055
-0.7015
-0.685
-0.6705
-0.6605
-0.651
-0.6375
-0.583
-0.5965
-0.5335
-0.5405
-0.455
-0.48
-0.245
0.5455
0.675
0.69
0.8125
0.813
0.8785
0.893
0.932
0.96
0.976
0.9305
0.893
0.8705
0.8425
0.796
0.762
0.736
0.693
0.66
0.6505
0.669
0.6865
0.6815
0.6645
0.6785
0.6955
0.6915
0.6685
0.6465
0.6825
0.632
0.636
0.5635
0.651
0.3985
-0.3225
-0.3635
-0.345
-0.388
-0.3675
-0.4035
-0.377
-0.3975
-0.4035
-0.4205
-0.43
-0.4525
-0.464
-0.4785
-0.4875
-0.501
-0.5215
-0.5295
-0.538
-0.5395
-0.5585
-0.574
-0.5855
-0.6005
-0.593
-0.6055
-0.613
-0.607
-0.6055
-0.5855
-0.5675
-0.576
-0.5885
-0.5875
-0.589
-0.594
-0.586
-0.582
-0.5935
-0.5965
-0.5955
-0.598
-0.601
-0.597
-0.595
-0.595
-0.5865
-0.5795
-0.5765
-0.5755
-0.582
-0.599
-0.6125
-0.6045
-0.605
-0.61
-0.5985
-0.6115
-0.6205
-0.614
-0.6145
-0.6095
-0.5945
-0.576
-0.5755
-0.5785
-0.577
-0.5805
-0.581
-0.5835
-0.581
-0.574
-0.5895
-0.5915
-0.575
-0.584
-0.5935
-0.5955
-0.605
-0.6105
-0.6075
-0.607
-0.5985
-0.6
-0.609
-0.607
-0.6035
-0.604
-0.6135
-0.6255
-0.6295
-0.618
-0.6175
-0.6095
-0.5995
-0.595
-0.5935
-0.6015
-0.596
-0.597
-0.597
-0.5955
-0.599
-0.608
-0.618
-0.6195
-0.6215
-0.605
-0.5865
-0.5975
-0.615
-0.624
-0.638
-0.629
-0.6135
-0.6285
-0.6415
-0.6445
-0.6465
-0.6465
-0.6295
-0.611
-0.598
-0.606
-0.621
-0.608
-0.6215
-0.629
-0.6205
-0.6285
-0.628
-0.6265
-0.6335
-0.6435
-0.6415
-0.631
-0.625
-0.624
-0.633
-0.644
-0.6495
-0.657
-0.6705
-0.679
-0.6735
-0.672
-0.6795
-0.6885
-0.6865
-0.677
-0.6775
-0.6835
-0.679
-0.673
-0.685
-0.704
-0.715
-0.713
-0.705
-0.7025
-0.716
-0.7345
-0.7435
-0.74
-0.731
-0.7385
-0.753
-0.7585
-0.7675
-0.777
-0.7875
-0.7995
-0.807
-0.795
-0.7845
-0.8045
-0.818
-0.822
-0.819
-0.8205
-0.835
-0.8365
-0.8385
-0.8425
-0.8505
-0.861
-0.8585
-0.852
-0.848
-0.847
-0.8485
-0.8475
-0.8535
-0.8595
-0.862
-0.877
-0.8865
-0.883
-0.8855
-0.8925
-0.894
-0.8875
-0.885
-0.8855
-0.888
-0.892
-0.8945
-0.8975
-0.9
-0.9005
-0.889
-0.8885
-0.8805
-0.8705
-0.8745
-0.8765
-0.9035
-0.9135
-0.899
-0.887
-0.882
-0.8835
-0.888
-0.8705
-0.8465
-0.8495
-0.836
-0.8265
-0.8305
-0.828
-0.8275
-0.8235
-0.8145
-0.812
-0.802
-0.7915
-0.7975
-0.7905
-0.778
-0.768
-0.7645
-0.766
-0.7625
-0.7545
-0.745
-0.732
-0.732
-0.7375
-0.728
-0.7165
-0.7035
-0.6975
-0.6915
-0.674
-0.657
-0.655
-0.664
-0.659
-0.642
-0.637
-0.639
-0.628
-0.6205
-0.6245
-0.63
-0.632
-0.6295
-0.628
-0.6205
-0.62
-0.613
-0.602
-0.5985
-0.588
-0.5965
-0.608
-0.609
-0.608
-0.5975
-0.5895
-0.5725
-0.5625
-0.5725
-0.5485
-0.547
-0.5725
-0.5555
-0.5465
-0.554
-0.5435
-0.5095
-0.5025
-0.52
-0.5295
-0.5375
-0.535
-0.5295
-0.531
-0.5325
-0.5265
-0.512
-0.51
-0.5285
-0.534
-0.53
-0.533
-0.5365
-0.5265
-0.524
-0.5145
-0.515
-0.547
-0.541
-0.539
-0.543
-0.539
-0.536
-0.5165
-0.5185
-0.522
-0.523
-0.5295
-0.5245
-0.5245
-0.5215
-0.5185
-0.524
-0.5295
-0.54
-0.544
-0.5375
-0.526
-0.5255
-0.5265
-0.514
-0.5045
-0.4995
-0.4925
-0.4915
-0.5
-0.496
-0.4945
-0.4915
-0.4735
-0.471
-0.477
-0.4775
-0.4835
-0.4825
-0.4865
-0.501
-0.493
-0.487
-0.497
-0.5005
-0.497
-0.4815
-0.4665
-0.455
-0.449
-0.4575
-0.4625
-0.4705
-0.47
-0.469
-0.4815
-0.487
-0.4765
-0.4635
-0.465
-0.4675
-0.476
-0.483
-0.47
-0.465
-0.475
-0.483
-0.482
-0.4755
-0.4545
-0.433
-0.43
-0.4185
-0.427
-0.4515
-0.4385
-0.414
-0.413
-0.414
-0.4025
-0.405
-0.4095
-0.4105
-0.4155
-0.4105
-0.42
-0.4285
-0.416
-0.429
-0.442
-0.4315
-0.427
-0.4175
-0.412
-0.405
-0.398
-0.402
-0.4055
-0.407
-0.4075
-0.4205
-0.4355
-0.441
-0.434
-0.428
-0.43
-0.435
-0.436
-0.4345
-0.433
-0.434
-0.4505
-0.4495
-0.446
-0.4625
-0.467
-0.4735
-0.49
-0.4975
-0.4955
-0.487
-0.4865
-0.486
-0.496
-0.5165
-0.5215
-0.5275
-0.54
-0.548
-0.5565
-0.555
-0.54
-0.544
-0.5535
-0.5385
-0.523
-0.5155
-0.5055
-0.5145
-0.5195
-0.52
-0.5155
-0.5055
-0.5175
-0.53
-0.541
-0.542
-0.5345
-0.5305
-0.529
-0.5365
-0.5445
-0.5455
-0.546
-0.542
-0.542
-0.5475
-0.533
-0.5265
-0.5285
-0.5445
-0.5635
-0.544
-0.5345
-0.548
-0.5415
-0.529
-0.536
-0.5365
-0.5205
-0.5175
-0.5265
-0.522
-0.5245
-0.544
-0.5575
-0.5635
-0.564
-0.568
-0.5655
-0.548
-0.5405
-0.5485
-0.5655
-0.571
-0.567
-0.5635
-0.548
-0.5505
-0.565
-0.5725
-0.571
-0.5635
-0.557
-0.5625
-0.549
-0.532
-0.547
-0.548
-0.547
-0.554
-0.5635
-0.5645
-0.5625
-0.576
-0.591
-0.6115
-0.627
-0.6345
-0.6455
-0.656
-0.6645
-0.67
-0.6815
-0.651
-0.621
-0.6225
-0.625
-0.598
-0.5915
-0.5635
-0.566
-0.546
-0.468
-0.4515
-0.36
-0.44
0.08
0.6985
0.6595
0.768
0.8305
0.89
0.9315
0.9545
0.991
0.9995
1.033
1.034
1.026
0.9955
0.939
0.8895
0.8615
0.822
0.8025
0.765
0.75
0.78
0.8165
0.8265
0.8165
0.8235
0.8375
0.8415
0.812
0.804
0.7865
0.773
0.734
0.718
0.677
0.652
0.643
0.6005
0.621
0.5585
0.671
0.2215
0.2515
0.721
-0.0425
-0.3955
-0.3385
-0.4055
-0.38
-0.4445
-0.4625
-0.4825
-0.4725
-0.481
-0.4885
-0.5
-0.513
-0.5325
-0.543
-0.5355
-0.512
-0.5115
-0.5095
-0.496
-0.524
-0.539
-0.5485
-0.566
-0.567
-0.5705
-0.5755
-0.56
-0.5635
-0.5785
-0.5715
-0.579
-0.582
-0.5775
-0.567
-0.556
-0.5525
-0.5445
-0.545
-0.555
-0.56
-0.5605
-0.561
-0.5645
-0.575
-0.5835
-0.584
-0.57
-0.5725
-0.582
-0.5755
-0.573
-0.572
-0.5725
-0.5735
-0.565
-0.555
-0.5715
-0.5825
-0.5865
-0.6045
-0.596
-0.591
-0.592
-0.578
-0.5785
-0.5735
-0.556
-0.5545
-0.5645
-0.551
-0.5415
-0.5555
-0.5455
-0.544
-0.5475
-0.545
-0.5645
-0.559
-0.536
-0.5515
-0.5675
-0.5615
-0.567
-0.565
-0.569
-0.57
-0.5705
-0.585
-0.5875
-0.5825
-0.576
-0.5855
-0.59
-0.5845
-0.58
-0.573
-0.567
-0.5615
-0.5725
-0.57
-0.578
-0.5935
-0.5905
-0.583
-0.577
-0.573
-0.5695
-0.572
-0.5835
-0.5865
-0.5745
-0.575
-0.5785
-0.5925
-0.594
-0.5755
-0.583
-0.585
-0.5865
-0.5895
-0.593
-0.603
-0.6025
-0.6125
-0.621
-0.6225
-0.634
-0.6395
-0.6335
-0.6155
-0.6005
-0.603
-0.604
-0.612
-0.6205
-0.618
-0.6285
-0.627
-0.636
-0.6695
-0.682
-0.6865
-0.6815
-0.668
-0.6735
-0.682
-0.692
-0.709
-0.7145
-0.714
-0.697
-0.6925
-0.7
-0.7105
-0.731
-0.7355
-0.729
-0.73
-0.735
-0.7425
-0.7575
-0.763
-0.769
-0.767
-0.7575
-0.7665
-0.771
-0.7695
-0.7755
-0.795
-0.808
-0.7895
-0.797
-0.834
-0.8455
-0.842
-0.829
-0.8195
-0.8095
-0.8105
-0.818
-0.8215
-0.8245
-0.83
-0.844
-0.8445
-0.851
-0.8575
-0.858
-0.846
-0.8585
-0.898
-0.8955
-0.8915
-0.8915
-0.8735
-0.856
-0.8485
-0.8615
-0.865
-0.8635
-0.8755
-0.888
-0.866
-0.8345
-0.846
-0.8455
-0.8425
-0.8445
-0.847
-0.8465
-0.836
-0.841
-0.835
-0.825
-0.826
-0.838
-0.8435
-0.8345
-0.8265
-0.821
-0.805
-0.8035
-0.803
-0.7945
-0.81
-0.811
-0.786
-0.7535
-0.758
-0.7685
-0.764
-0.764
-0.7575
-0.758
-0.736
-0.7145
-0.7195
-0.7135
-0.7045
-0.7
-0.6745
-0.661
-0.675
-0.6805
-0.6755
-0.671
-0.6635
-0.639
-0.633
-0.6355
-0.6045
-0.5995
-0.6085
-0.5945
-0.5915
-0.583
-0.583
-0.599
-0.6055
-0.605
-0.5875
-0.5755
-0.5775
-0.573
-0.546
-0.532
-0.557
-0.564
-0.5705
-0.5695
-0.5615
-0.567
-0.5465
-0.522
-0.517
-0.535
-0.5665
-0.569
-0.5485
-0.5365
-0.525
-0.533
-0.538
-0.512
-0.5145
-0.534
-0.5335
-0.528
-0.5245
-0.5395
-0.56
-0.553
-0.539
-0.5295
-0.525
-0.5065
-0.505
-0.5195
-0.5045
-0.509
-0.5145
-0.502
-0.508
-0.536
-0.5285
-0.5025
-0.518
-0.5225
-0.517
-0.5145
-0.5095
-0.502
-0.487
-0.467
-0.459
-0.4715
-0.478
-0.481
-0.471
-0.457
-0.4735
-0.495
-0.509
-0.4985
-0.5005
-0.507
-0.4915
-0.488
-0.483
-0.471
-0.4635
-0.481
-0.49
-0.4825
-0.4745
-0.455
-0.4345
-0.435
-0.443
-0.4365
-0.426
-0.4295
-0.4385
-0.432
-0.4325
-0.45
-0.4575
-0.464
-0.478
-0.4535
-0.445
-0.4585
-0.4445
-0.4405
-0.446
-0.4555
-0.449
-0.46
-0.477
-0.4785
-0.46
-0.438
-0.46
-0.4735
-0.4775
-0.481
-0.4735
-0.4495
-0.4185
-0.4035
-0.398
-0.405
-0.406
-0.4125
-0.4075
-0.404
-0.4335
-0.431
-0.409
-0.389
-0.3975
-0.419
-0.4025
-0.4105
-0.4105
-0.4
-0.416
-0.418
-0.417
-0.4115
-0.403
-0.4105
-0.4175
-0.4225
-0.4365
-0.4355
-0.4195
-0.412
-0.4045
-0.404
-0.435
-0.4505
-0.4435
-0.4425
-0.431
-0.439
-0.4405
-0.4395
-0.466
-0.493
-0.4855
-0.4965
-0.5305
-0.515
-0.495
-0.478
-0.4965
-0.538
-0.5425
-0.5125
-0.4955
-0.4955
-0.4985
-0.5075
-0.5125
-0.529
-0.523
-0.5195
-0.5205
-0.531
-0.537
-0.524
-0.536
-0.5405
-0.5295
-0.5225
-0.512
-0.5105
-0.5055
-0.4975
-0.5185
-0.532
-0.5395
-0.5515
-0.5575
-0.5575
-0.5555
-0.5485
-0.5345
-0.534
-0.5375
-0.5265
-0.5125
-0.514
-0.5125
-0.516
-0.5385
-0.5535
-0.5555
-0.556
-0.566
-0.581
-0.5725
-0.558
-0.537
-0.5295
-0.5335
-0.5265
-0.5185
-0.5175
-0.542
-0.545
-0.537
-0.53
-0.53
-0.5475
-0.5385
-0.526
-0.5225
-0.538
-0.542
-0.539
-0.537
-0.5045
-0.5135
-0.5225
-0.523
-0.5535
-0.5625
-0.564
-0.553
-0.5425
-0.5515
-0.558
-0.5665
-0.573
-0.57
-0.562
-0.5715
-0.612
-0.641
-0.638
-0.6255
-0.616
-0.619
-0.6245
-0.634
-0.6235
-0.598
-0.582
-0.551
-0.5565
-0.533
-0.559
-0.507
-0.491
-0.4405
-0.425
-0.35
0.4215
0.737
0.6825
0.801
0.818
0.886
0.8955
0.9605
1.007
1.0095
0.9975
0.9825
0.9435
0.904
0.8725
0.844
0.826
0.7795
0.7435
0.7195
0.7245
0.74
0.7545
0.7465
0.723
0.729
0.7365
0.7335
0.7105
0.6795
0.6935
0.6735
0.6495
0.642
0.583
0.587
0.555
0.5995
0.5415
0.638
0.3945
-0.3235
-0.3485
-0.332
-0.389
-0.373
-0.4065
-0.41
-0.4595
-0.466
-0.4785
-0.479
-0.489
-0.4895
-0.5025
-0.5135
-0.525
-0.539
-0.543
-0.544
-0.547
-0.55
-0.552
-0.549
-0.544
-0.5545
-0.5725
-0.5785
-0.575
-0.576
-0.572
-0.5685
-0.5705
-0.588
-0.586
-0.568
-0.5745
-0.5875
-0.5965
-0.587
-0.587
-0.573
-0.548
-0.5395
-0.5195
-0.525
-0.531
-0.546
-0.5745
-0.576
-0.5925
-0.587
-0.5895
-0.581
-0.5635
-0.585
-0.5925
-0.582
-0.588
-0.599
-0.5825
-0.5785
-0.5775
-0.578
-0.5625
-0.55
-0.555
-0.555
-0.569
-0.5645
-0.553
-0.5645
-0.5805
-0.5745
-0.5755
-0.593
-0.589
-0.576
-0.574
-0.5895
-0.588
-0.5725
-0.5645
-0.577
-0.61
-0.599
-0.583
-0.5785
-0.5805
-0.584
-0.5625
-0.564
-0.5535
-0.532
-0.5535
-0.5725
-0.5725
-0.58
-0.573
-0.5675
-0.591
-0.5925
-0.58
-0.5795
-0.579
-0.5745
-0.5725
-0.576
-0.5745
-0.567
-0.5675
-0.597
-0.5835
-0.5835
-0.613
-0.6125
-0.615
-0.6005
-0.617
-0.6305
-0.6155
-0.6145
-0.622
-0.6175
-0.61
-0.606
-0.6045
-0.6185
-0.6155
-0.6155
-0.618
-0.6245
-0.624
-0.6065
-0.619
-0.625
-0.624
-0.635
-0.6305
-0.6305
-0.614
-0.6055
-0.636
-0.652
-0.6515
-0.6625
-0.684
-0.6845
-0.676
-0.6815
-0.697
-0.7105
-0.7125
-0.7
-0.6885
-0.6865
-0.67
-0.6815
-0.711
-0.7115
-0.7185
-0.7395
-0.7555
-0.766
-0.7765
-0.7545
-0.7275
-0.745
-0.7715
-0.7815
-0.7855
-0.7835
-0.781
-0.786
-0.799
-0.81
-0.8115
-0.8255
-0.8365
-0.819
-0.8195
-0.839
-0.83
-0.817
-0.8205
-0.8335
-0.852
-0.8495
-0.8475
-0.853
-0.8515
-0.8665
-0.8685
-0.851
-0.8405
-0.8475
-0.8645
-0.8765
-0.876
-0.8575
-0.8545
-0.862
-0.864
-0.866
-0.8755
-0.878
-0.86
-0.852
-0.849
-0.8395
-0.8605
-0.8745
-0.867
-0.88
-0.887
-0.8745
-0.875
-0.879
-0.8635
-0.856
-0.8455
-0.857
-0.8485
-0.8185
-0.8035
-0.788
-0.7705
-0.745
-0.74
-0.7335
-0.7425
-0.747
-0.722
-0.721
-0.732
-0.732
-0.7265
-0.692
-0.6735
-0.6925
-0.686
-0.6975
-0.72
-0.7125
-0.708
-0.704
-0.703
-0.6945
-0.6785
-0.671
-0.661
-0.6565
-0.6405
-0.634
-0.639
-0.6385
-0.6525
-0.6325
-0.625
-0.6525
-0.6565
-0.632
-0.593
-0.5895
-0.5865
-0.5615
-0.567
-0.591
-0.585
-0.562
-0.556
-0.55
-0.5685
-0.588
-0.576
-0.5745
-0.5775
-0.576
-0.57
-0.583
-0.5795
-0.5515
-0.549
-0.56
-0.56
-0.548
-0.5475
-0.555
-0.5555
-0.545
-0.537
-0.535
-0.551
-0.5495
-0.5535
-0.576
-0.566
-0.55
-0.5325
-0.526
-0.539
-0.552
-0.546
-0.545
-0.5305
-0.5045
-0.5085
-0.514
-0.518
-0.525
-0.5305
-0.533
-0.54
-0.541
-0.536
-0.534
-0.527
-0.515
-0.5195
-0.526
-0.5185
-0.518
-0.516
-0.5075
-0.494
-0.484
-0.4945
-0.513
-0.5215
-0.5345
-0.5345
-0.5385
-0.542
-0.5255
-0.521
-0.529
-0.5285
-0.5175
-0.5095
-0.4705
-0.439
-0.475
-0.5095
-0.518
-0.5175
-0.5005
-0.488
-0.475
-0.465
-0.481
-0.4975
-0.4835
-0.479
-0.496
-0.502
-0.4905
-0.477
-0.5025
-0.525
-0.5005
-0.4785
-0.481
-0.492
-0.4995
-0.515
-0.5305
-0.524
-0.513
-0.514
-0.5235
-0.525
-0.5295
-0.528
-0.537
-0.5255
-0.4825
-0.482
-0.4705
-0.4505
-0.4425
-0.4405
-0.4365
-0.433
-0.456
-0.45
-0.431
-0.445
-0.48
-0.4665
-0.448
-0.454
-0.4415
-0.4605
-0.4685
-0.4375
-0.421
-0.429
-0.4105
-0.4145
-0.4295
-0.415
-0.4285
-0.443
-0.4555
-0.461
-0.4575
-0.4695
-0.4845
-0.483
-0.4805
-0.482
-0.478
-0.4765
-0.451
-0.429
-0.4305
-0.444
-0.4735
-0.498
-0.5045
-0.5115
-0.508
-0.504
-0.5225
-0.536
-0.5345
-0.528
-0.527
-0.5425
-0.543
-0.521
-0.52
-0.53
-0.532
-0.535
-0.5455
-0.5495
-0.547
-0.55
-0.5515
-0.553
-0.552
-0.551
-0.542
-0.536
-0.532
-0.517
-0.513
-0.502
-0.495
-0.5235
-0.5415
-0.5515
-0.555
-0.541
-0.535
-0.5275
-0.535
-0.561
-0.5585
-0.5565
-0.568
-0.5535
-0.5335
-0.5285
-0.526
-0.5295
-0.55
-0.5715
-0.5475
-0.534
-0.587
-0.595
-0.5775
-0.593
-0.592
-0.5725
-0.5695
-0.567
-0.578
-0.5895
-0.577
-0.576
-0.5655
-0.56
-0.553
-0.542
-0.544
-0.5315
-0.528
-0.543
-0.548
-0.5495
-0.547
-0.5525
-0.553
-0.5505
-0.554
-0.5515
-0.5575
-0.5635
-0.571
-0.57
-0.59
-0.5825
-0.5615
-0.584
-0.5705
-0.575
-0.606
-0.5935
-0.5805
-0.597
-0.614
-0.6235
-0.635
-0.6175
-0.6015
-0.624
-0.6355
-0.6405
-0.642
-0.6445
-0.6295
-0.6315
-0.5605
-0.527
-0.4665
-0.443
-0.396
-0.352
-0.3695
0.3305
0.6915
0.628
0.774
0.7655
0.8605
0.8895
0.9115
0.943
0.9495
0.9275
0.886
0.884
0.8405
0.8095
0.771
0.741
0.725
0.696
0.667
0.676
0.709
0.694
0.639
0.62
0.6045
0.592
0.6395
0.639
0.7355
0.627
0.695
0.325
0.1545
0.692
-0.0215
-0.4115
-0.2795
-0.3865
-0.334
-0.376
-0.356
-0.3655
-0.376
-0.417
-0.4485
-0.4635
-0.4605
-0.4785
-0.514
-0.503
-0.4895
-0.5085
-0.528
-0.5095
-0.509
-0.526
-0.5355
-0.5605
-0.578
-0.5845
-0.5675
-0.517
-0.484
-0.4965
-0.5285
-0.5355
-0.5255
-0.53
-0.527
-0.5115
-0.521
-0.5285
-0.541
-0.531
-0.524
-0.5625
-0.5755
-0.5765
-0.5715
-0.561
-0.567
-0.586
-0.597
-0.597
-0.602
-0.603
-0.595
-0.583
-0.5715
-0.5555
-0.564
-0.5785
-0.5665
-0.571
-0.541
-0.5135
-0.5385
-0.5405
-0.536
-0.5605
-0.568
-0.55
-0.549
-0.5495
-0.5745
-0.615
-0.623
-0.6075
-0.606
-0.5965
-0.5815
-0.578
-0.5785
-0.564
-0.532
-0.5565
-0.576
-0.565
-0.5735
-0.556
-0.526
-0.5245
-0.552
-0.565
-0.565
-0.5785
-0.5735
-0.578
-0.577
-0.5725
-0.588
-0.5725
-0.559
-0.5605
-0.579
-0.6035
-0.6
-0.5945
-0.595
-0.6125
-0.624
-0.621
-0.62
-0.614
-0.6115
-0.612
-0.6105
-0.604
-0.5965
-0.5765
-0.549
-0.5555
-0.5675
-0.5485
-0.5665
-0.591
-0.582
-0.5955
-0.6015
-0.59
-0.5975
-0.6165
-0.611
-0.58
-0.609
-0.6425
-0.641
-0.638
-0.622
-0.6225
-0.62
-0.6135
-0.612
-0.6195
-0.629
-0.6425
-0.636
-0.6365
-0.6635
-0.6495
-0.635
-0.6495
-0.6455
-0.631
-0.6495
-0.66
-0.6565
-0.661
-0.657
-0.6415
-0.632
-0.6535
-0.6685
-0.69
-0.7195
-0.7155
-0.7105
-0.7165
-0.7495
-0.762
-0.7455
-0.75
-0.7435
-0.7295
-0.7185
-0.723
-0.742
-0.7425
-0.748
-0.7585
-0.755
-0.7475
-0.764
-0.786
-0.7855
-0.799
-0.81
-0.8165
-0.82
-0.812
-0.8195
-0.8195
-0.806
-0.811
-0.837
-0.8675
-0.8755
-0.8565
-0.838
-0.8515
-0.868
-0.866
-0.864
-0.8525
-0.8565
-0.828
-0.813
-0.8325
-0.812
-0.835
-0.8645
-0.866
-0.8595
-0.8565
-0.8645
-0.8675
-0.877
-0.8745
-0.8765
-0.883
-0.863
-0.833
-0.8315
-0.817
-0.803
-0.7885
-0.78
-0.798
-0.7945
-0.8155
-0.8475
-0.8525
-0.8425
-0.819
-0.8125
-0.8055
-0.7905
-0.7885
-0.7845
-0.784
-0.7735
-0.7595
-0.7525
-0.7425
-0.7165
-0.729
-0.772
-0.7555
-0.7385
-0.7215
-0.706
-0.7095
-0.7205
-0.7335
-0.703
-0.684
-0.7005
-0.677
-0.649
-0.644
-0.651
-0.6655
-0.6635
-0.663
-0.665
-0.663
-0.663
-0.657
-0.647
-0.6505
-0.6385
-0.593
-0.583
-0.598
-0.604
-0.608
-0.601
-0.618
-0.6055
-0.5915
-0.608
-0.601
-0.598
-0.6005
-0.6125
-0.608
-0.6115
-0.6365
-0.628
-0.622
-0.625
-0.6135
-0.5995
-0.582
-0.5535
-0.5345
-0.555
-0.5565
-0.5445
-0.5495
-0.56
-0.571
-0.5835
-0.604
-0.594
-0.581
-0.5705
-0.5605
-0.5535
-0.556
-0.5745
-0.5805
-0.5955
-0.587
-0.582
-0.5895
-0.5685
-0.565
-0.5565
-0.545
-0.5575
-0.5785
-0.5895
-0.5505
-0.5265
-0.5545
-0.559
-0.548
-0.5285
-0.5035
-0.5125
-0.5425
-0.553
-0.5335
-0.5335
-0.541
-0.5305
-0.514
-0.494
-0.4895
-0.5065
-0.5165
-0.4995
-0.4945
-0.5085
-0.5175
-0.528
-0.5325
-0.5325
-0.5345
-0.535
-0.541
-0.5605
-0.5735
-0.5515
-0.526
-0.5005
-0.4745
-0.461
-0.466
-0.4835
-0.4945
-0.5205
-0.5275
-0.532
-0.542
-0.533
-0.5135
-0.518
-0.5275
-0.5225
-0.526
-0.4945
-0.4765
-0.511
-0.516
-0.486
-0.4795
-0.462
-0.4565
-0.4865
-0.4855
-0.4975
-0.518
-0.5235
-0.527
-0.5135
-0.4985
-0.4845
-0.457
-0.4355
-0.448
-0.464
-0.459
-0.4505
-0.4575
-0.4665
-0.477
-0.4815
-0.4835
-0.497
-0.502
-0.479
-0.459
-0.4635
-0.471
-0.4895
-0.4915
-0.4875
-0.477
-0.4365
-0.441
-0.4615
-0.466
-0.4845
-0.479
-0.474
-0.4915
-0.5235
-0.5545
-0.5395
-0.5245
-0.5295
-0.511
-0.495
-0.514
-0.54
-0.536
-0.5335
-0.5375
-0.537
-0.542
-0.5505
-0.5555
-0.5405
-0.534
-0.5435
-0.5555
-0.5525
-0.554
-0.564
-0.557
-0.561
-0.5635
-0.5685
-0.57
-0.5745
-0.577
-0.564
-0.5555
-0.53
-0.529
-0.5275
-0.5275
-0.5445
-0.5505
-0.567
-0.584
-0.5935
-0.5935
-0.598
-0.601
-0.601
-0.595
-0.59
-0.577
-0.5725
-0.583
-0.577
-0.5715
-0.5675
-0.5885
-0.61
-0.582
-0.5595
-0.556
-0.557
-0.559
-0.557
-0.5545
-0.5525
-0.5605
-0.5635
-0.554
-0.543
-0.549
-0.567
-0.579
-0.5655
-0.564
-0.566
-0.5385
-0.5405
-0.545
-0.5435
-0.5545
-0.5735
-0.5945
-0.5985
-0.5965
-0.585
-0.5795
-0.562
-0.5455
-0.5475
-0.5715
-0.592
-0.5765
-0.593
-0.6
-0.5915
-0.604
-0.614
-0.6225
-0.636
-0.6585
-0.658
-0.634
-0.6145
-0.593
-0.5875
-0.577
-0.559
-0.569
-0.526
-0.5455
-0.505
-0.5105
-0.42
-0.411
-0.2815
0.474
0.661
0.6175
0.7285
0.7425
0.827
0.8565
0.8895
0.872
0.8805
0.8655
0.849
0.8265
0.816
0.794
0.7375
0.715
0.662
0.636
0.6555
0.679
0.699
0.675
0.703
0.6745
0.673
0.6595
0.673
0.6595
0.665
0.6335
0.567
0.646
0.0685
-0.363
-0.349
0.36
0.4745
-0.3645
-0.3275
-0.352
-0.372
-0.3615
-0.4155
-0.415
-0.458
-0.4715
-0.5095
-0.495
-0.5055
-0.5005
-0.5345
-0.569
-0.567
-0.565
-0.544
-0.5215
-0.525
-0.544
-0.5645
-0.575
-0.573
-0.5615
-0.5595
-0.5605
-0.5475
-0.545
-0.557
-0.5575
-0.5665
-0.5725
-0.5715
-0.573
-0.579
-0.5855
-0.577
-0.567
-0.561
-0.564
-0.5735
-0.5865
-0.5735
-0.549
-0.548
-0.554
-0.5655
-0.5725
-0.5825
-0.5905
-0.5935
-0.596
-0.5885
-0.591
-0.6125
-0.61
-0.6005
-0.6105
-0.6015
-0.5875
-0.576
-0.5735
-0.5735
-0.5745
-0.587
-0.5795
-0.5775
-0.583
-0.5875
-0.6045
-0.6025
-0.5965
-0.5935
-0.583
-0.5865
-0.591
-0.5755
-0.5565
-0.562
-0.5675
-0.5775
-0.581
-0.572
-0.5615
-0.557
-0.5815
-0.5805
-0.562
-0.576
-0.594
-0.5885
-0.5845
-0.6005
-0.6135
-0.596
-0.579
-0.5675
-0.558
-0.5595
-0.5515
-0.5555
-0.571
-0.584
-0.587
-0.585
-0.5945
-0.5895
-0.577
-0.592
-0.6125
-0.6155
-0.615
-0.607
-0.601
-0.6065
-0.6025
-0.5975
-0.5985
-0.59
-0.5875
-0.589
-0.587
-0.586
-0.5795
-0.575
-0.571
-0.575
-0.5835
-0.595
-0.6045
-0.6015
-0.598
-0.601
-0.6085
-0.6165
-0.6125
-0.615
-0.6315
-0.6305
-0.629
-0.628
-0.6395
-0.6565
-0.6455
-0.641
-0.6515
-0.6425
-0.636
-0.664
-0.6865
-0.69
-0.6965
-0.701
-0.6925
-0.6935
-0.6995
-0.696
-0.701
-0.706
-0.714
-0.7185
-0.722
-0.728
-0.731
-0.7395
-0.7375
-0.7495
-0.7515
-0.723
-0.7175
-0.734
-0.7475
-0.758
-0.768
-0.7815
-0.8035
-0.8225
-0.825
-0.811
-0.7905
-0.78
-0.787
-0.794
-0.799
-0.8185
-0.826
-0.832
-0.8355
-0.834
-0.833
-0.797
-0.772
-0.7895
-0.806
-0.8095
-0.8125
-0.805
-0.8045
-0.8395
-0.8595
-0.854
-0.8515
-0.8495
-0.8455
-0.8365
-0.8295
-0.829
-0.8245
-0.8265
-0.8355
-0.844
-0.8355
-0.8245
-0.8265
-0.823
-0.814
-0.808
-0.81
-0.804
-0.8085
-0.8165
-0.8195
-0.815
-0.798
-0.787
-0.777
-0.764
-0.7595
-0.7465
-0.7315
-0.7285
-0.719
-0.706
-0.6905
-0.702
-0.701
-0.6955
-0.703
-0.694
-0.6875
-0.672
-0.6715
-0.67
-0.6505
-0.631
-0.637
-0.6485
-0.648
-0.647
-0.627
-0.624
-0.634
-0.6335
-0.6335
-0.612
-0.601
-0.6155
-0.6075
-0.597
-0.599
-0.5895
-0.5885
-0.59
-0.5895
-0.5965
-0.584
-0.572
-0.553
-0.5425
-0.528
-0.5025
-0.517
-0.5245
-0.5185
-0.521
-0.52
-0.5265
-0.5295
-0.54
-0.554
-0.544
-0.526
-0.52
-0.5175
-0.505
-0.515
-0.5255
-0.505
-0.5085
-0.5195
-0.52
-0.515
-0.502
-0.5095
-0.5145
-0.5175
-0.5245
-0.5165
-0.513
-0.5015
-0.4835
-0.489
-0.5035
-0.517
-0.517
-0.51
-0.5105
-0.5135
-0.513
-0.5025
-0.5055
-0.507
-0.4885
-0.482
-0.4975
-0.5155
-0.528
-0.5395
-0.55
-0.5465
-0.5315
-0.512
-0.4975
-0.49
-0.4855
-0.495
-0.503
-0.492
-0.4835
-0.473
-0.4595
-0.467
-0.4835
-0.4935
-0.488
-0.4805
-0.4835
-0.4835
-0.47
-0.443
-0.4305
-0.4305
-0.442
-0.463
-0.4805
-0.491
-0.4995
-0.5055
-0.495
-0.4865
-0.4805
-0.4745
-0.478
-0.485
-0.479
-0.469
-0.472
-0.47
-0.47
-0.4695
-0.4575
-0.4715
-0.4935
-0.492
-0.4755
-0.4605
-0.467
-0.4605
-0.441
-0.4255
-0.412
-0.4095
-0.4075
-0.406
-0.414
-0.417
-0.4145
-0.4015
-0.3865
-0.3845
-0.3885
-0.3985
-0.399
-0.394
-0.387
-0.3785
-0.3855
-0.3995
-0.4175
-0.4265
-0.4255
-0.435
-0.42
-0.3995
-0.3945
-0.3965
-0.401
-0.394
-0.3925
-0.396
-0.387
-0.386
-0.404
-0.4095
-0.4135
-0.425
-0.433
-0.4435
-0.446
-0.4435
-0.438
-0.433
-0.441
-0.4455
-0.436
-0.449
-0.463
-0.4655
-0.477
-0.477
-0.485
-0.4885
-0.4735
-0.4815
-0.5085
-0.524
-0.527
-0.526
-0.5175
-0.5135
-0.5165
-0.503
-0.487
-0.478
-0.4755
-0.493
-0.506
-0.4995
-0.4865
-0.5
-0.5335
-0.536
-0.5145
-0.4895
-0.499
-0.502
-0.482
-0.4905
-0.499
-0.513
-0.5335
-0.525
-0.521
-0.531
-0.525
-0.5225
-0.5295
-0.5315
-0.5235
-0.5175
-0.5135
-0.518
-0.526
-0.5235
-0.531
-0.53
-0.5175
-0.5195
-0.521
-0.52
-0.5275
-0.5275
-0.5215
-0.5205
-0.509
-0.5065
-0.5125
-0.504
-0.4985
-0.5015
-0.514
-0.524
-0.531
-0.514
-0.4965
-0.5035
-0.503
-0.5025
-0.5015
-0.5185
-0.517
-0.5055
-0.507
-0.513
-0.523
-0.5165
-0.5095
-0.495
-0.4935
-0.4885
-0.4885
-0.4985
-0.4965
-0.5115
-0.518
-0.519
-0.539
-0.5655
-0.5945
-0.6015
-0.6075
-0.6085
-0.5925
-0.5775
-0.571
-0.558
-0.551
-0.521
-0.487
-0.5125
-0.4505
-0.4605
-0.38
-0.441
-0.1565
0.5985
0.694
0.7345
0.824
0.8445
0.9125
0.9285
0.984
0.988
0.9925
0.994
0.9855
0.967
0.955
0.9255
0.8945
0.8665
0.8365
0.789
0.7605
0.7735
0.797
0.8085
0.793
0.8015
0.824
0.8165
0.79
0.7755
0.7735
0.7585
0.7315
0.7165
0.6985
0.682
0.6715
0.655
0.6685
0.6455
0.66
0.6135
0.6355
0.5935
0.6345
0.5215
-0.214
-0.398
-0.349
-0.4265
-0.3975
-0.4315
-0.4145
-0.4385
-0.438
-0.452
-0.469
-0.4765
-0.477
-0.487
-0.4945
-0.499
-0.495
-0.4875
-0.4815
-0.4905
-0.503
-0.493
-0.4855
-0.4845
-0.487
-0.48
-0.472
-0.4635
-0.465
-0.476
-0.4875
-0.501
-0.514
-0.5065
-0.498
-0.4965
-0.493
-0.495
-0.494
-0.5095
-0.5195
-0.515
-0.502
-0.494
-0.497
-0.492
-0.498
-0.4975
-0.493
-0.4945
-0.496
-0.504
-0.5095
-0.5175
-0.526
-0.53
-0.5265
-0.5235
-0.528
-0.525
-0.5245
-0.5175
-0.5135
-0.5075
-0.501
-0.4935
-0.4725
-0.489
-0.4925
-0.4905
-0.495
-0.487
-0.492
-0.495
-0.5165
-0.5205
-0.5115
-0.517
-0.5175
-0.518
-0.512
-0.5185
-0.5135
-0.496
-0.5025
-0.502
-0.4925
-0.4855
-0.4955
-0.513
-0.5295
-0.5465
-0.542
-0.525
-0.501
-0.496
-0.509
-0.5265
-0.538
-0.534
-0.526
-0.517
-0.5145
-0.513
-0.518
-0.5295
-0.5255
-0.524
-0.5255
-0.5185
-0.5185
-0.527
-0.5375
-0.536
-0.524
-0.5255
-0.5495
-0.558
-0.5525
-0.557
-0.549
-0.539
-0.536
-0.5445
-0.559
-0.5495
-0.523
-0.524
-0.5435
-0.551
-0.557
-0.5595
-0.561
-0.5575
-0.5475
-0.535
-0.5405
-0.5535
-0.561
-0.573
-0.5645
-0.55
-0.5615
-0.5855
-0.5835
-0.589
-0.6025
-0.6115
-0.617
-0.61
-0.6125
-0.6105
-0.62
-0.6275
-0.6335
-0.6375
-0.643
-0.644
-0.6365
-0.645
-0.6615
-0.6865
-0.692
-0.6765
-0.6775
-0.6835
-0.672
-0.674
-0.6785
-0.6765
-0.7
-0.7225
-0.7245
-0.726
-0.7175
-0.711
-0.7205
-0.7165
-0.718
-0.73
-0.7415
-0.749
-0.748
-0.755
-0.772
-0.786
-0.777
-0.7615
-0.7505
-0.75
-0.759
-0.7605
-0.7685
-0.7715
-0.761
-0.754
-0.7575
-0.7585
-0.7595
-0.7635
-0.755
-0.756
-0.772
-0.7745
-0.7755
-0.793
-0.801
-0.7915
-0.7785
-0.7665
-0.765
-0.761
-0.7515
-0.743
-0.7225
-0.704
-0.696
-0.6965
-0.698
-0.702
-0.6975
-0.694
-0.709
-0.7035
-0.685
-0.6795
-0.679
-0.67
-0.6605
-0.648
-0.644
-0.6455
-0.637
-0.6285
-0.6185
-0.6195
-0.615
-0.6085
-0.5865
-0.551
-0.543
-0.533
-0.534
-0.544
-0.544
-0.5435
-0.543
-0.538
-0.53
-0.528
-0.52
-0.5125
-0.5045
-0.498
-0.486
-0.479
-0.477
-0.4665
-0.4985
-0.5325
-0.5245
-0.5025
-0.483
-0.4735
-0.473
-0.469
-0.463
-0.476
-0.4905
-0.4755
-0.4505
-0.4515
-0.451
-0.4365
-0.4435
-0.433
-0.4175
-0.4015
-0.395
-0.42
-0.42
-0.4165
-0.421
-0.4285
-0.441
-0.4425
-0.435
-0.424
-0.426
-0.427
-0.4255
-0.4275
-0.4245
-0.4185
-0.4135
-0.4125
-0.4145
-0.42
-0.416
-0.405
-0.3995
-0.391
-0.3895
-0.403
-0.414
-0.4035
-0.389
-0.391
-0.4005
-0.393
-0.3825
-0.3995
-0.412
-0.407
-0.399
-0.3925
-0.3885
-0.396
-0.402
-0.406
-0.414
-0.4075
-0.401
-0.4035
-0.399
-0.3855
-0.3795
-0.385
-0.3855
-0.372
-0.3605
-0.359
-0.356
-0.366
-0.374
-0.3645
-0.3585
-0.35
-0.3595
-0.369
-0.3625
-0.361
-0.357
-0.3585
-0.3615
-0.36
-0.3565
-0.353
-0.351
-0.353
-0.359
-0.3735
-0.3885
-0.392
-0.392
-0.3865
-0.3785
-0.3635
-0.362
-0.3695
-0.3695
-0.372
-0.3545
-0.34
-0.333
-0.346
-0.3285
-0.3365
-0.3315
-0.355
-0.3405
-0.3495
-0.3455
-0.3235
-0.3925
0.1485
0.677
0.527
0.5825
0.599
0.535
0.7125
0.15
0.006
-0.2905
-0.243
-0.4985
0.015
1.466
0.529
0.557
0.6025
0.585
0.3115
-0.439
-0.2775
-0.385
-0.3265
-0.36
-0.352
-0.35
-0.3635
-0.348
-0.3685
-0.3805
-0.4045
-0.3775
-0.3755
-0.384
-0.3905
-0.405
-0.401
-0.393
-0.387
-0.374
-0.388
-0.3985
-0.4085
-0.4295
-0.4425
-0.4415
-0.4255
-0.4205
-0.422
-0.4255
-0.436
-0.4395
-0.4335
-0.441
-0.4385
-0.4285
-0.4225
-0.4155
-0.416
-0.4195
-0.4245
-0.4305
-0.44
-0.434
-0.431
-0.437
-0.4345
-0.427
-0.429
-0.432
-0.4275
-0.4225
-0.4155
-0.4275
-0.4375
-0.434
-0.429
-0.424
-0.4275
-0.4405
-0.45
-0.4485
-0.449
-0.4445
-0.446
-0.453
-0.456
-0.45
-0.44
-0.4395
-0.4485
-0.462
-0.468
-0.469
-0.4615
-0.452
-0.439
-0.4245
-0.42
-0.421
-0.434
-0.44
-0.433
-0.4365
-0.443
-0.4525
-0.4665
-0.466
-0.4725
-0.479
-0.471
-0.459
-0.4495
-0.453
-0.454
-0.442
-0.4235
-0.421
-0.425
-0.4275
-0.44
-0.452
-0.4505
-0.451
-0.473
-0.484
-0.504
-0.5225
-0.5425
-0.5315
-0.5525
-0.5275
-0.5485
-0.4985
-0.5215
-0.4795
-0.4755
-0.472
-0.3965
-0.51
-0.2475
-0.667
0.601
1.3545
0.4115
0.7895
0.7205
0.844
0.9
0.9365
1.0455
1.04
1.125
1.0855
1.1265
1.1005
1.0935
1.053
1.0145
0.9845
0.96
0.92
0.9005
0.888
0.8745
0.8835
0.898
0.9065
0.9065
0.912
0.928
0.9495
0.948
0.9195
0.904
0.8875
0.8435
0.801
0.785
0.776
0.774
0.754
0.748
0.7525
0.725
0.7315
0.709
0.7205
0.66
0.665
0.596
0.623
0.518
-0.213
-0.3855
-0.3325
-0.4025
-0.363
-0.405
-0.3875
-0.4125
-0.4195
-0.423
-0.4235
-0.4325
-0.4195
-0.404
-0.4205
-0.4355
-0.4425
-0.447
-0.4515
-0.4585
-0.449
-0.432
-0.4295
-0.417
-0.4185
-0.43
-0.441
-0.4445
-0.4435
-0.4485
-0.459
-0.469
-0.4665
-0.463
-0.465
-0.467
-0.462
-0.461
-0.4565
-0.453
-0.4555
-0.4455
-0.4325
-0.441
-0.447
-0.442
-0.4575
-0.476
-0.468
-0.4485
-0.432
-0.4315
-0.453
-0.459
-0.456
-0.4775
-0.4875
-0.464
-0.45
-0.4425
-0.4415
-0.4505
-0.443
-0.444
-0.456
-0.453
-0.4535
-0.457
-0.4615
-0.4755
-0.4885
-0.499
-0.497
-0.4965
-0.486
-0.4635
-0.456
-0.4545
-0.453
-0.4475
-0.457
-0.462
-0.45
-0.4545
-0.466
-0.4805
-0.4905
-0.4865
-0.483
-0.4825
-0.4755
-0.4735
-0.479
-0.468
-0.4625
-0.4725
-0.477
-0.4665
-0.476
-0.472
-0.4565
-0.486
-0.4985
-0.496
-0.494
-0.4735
-0.465
-0.4735
-0.4855
-0.487
-0.4865
-0.476
-0.4625
-0.4685
-0.475
-0.481
-0.4795
-0.477
-0.4815
-0.4795
-0.48
-0.478
-0.496
-0.518
-0.5155
-0.512
-0.527
-0.5475
-0.5495
-0.549
-0.545
-0.529
-0.5195
-0.511
-0.5185
-0.534
-0.5405
-0.5485
-0.54
-0.5455
-0.5725
-0.5795
-0.5595
-0.558
-0.573
-0.577
-0.5925
-0.604
-0.6165
-0.631
-0.643
-0.646
-0.6515
-0.6555
-0.649
-0.6605
-0.6485
-0.6325
-0.625
-0.6155
-0.63
-0.655
-0.6715
-0.6745
-0.685
-0.6935
-0.6975
-0.7005
-0.709
-0.7205
-0.711
-0.715
-0.7245
-0.7265
-0.732
-0.741
-0.752
-0.7445
-0.7395
-0.7395
-0.729
-0.7425
-0.769
-0.7705
-0.765
-0.7525
-0.7455
-0.757
-0.765
-0.763
-0.77
-0.781
-0.763
-0.759
-0.7815
-0.7905
-0.7905
-0.781
-0.757
-0.752
-0.779
-0.786
-0.772
-0.756
-0.757
-0.7595
-0.7615
-0.763
-0.7515
-0.738
-0.7095
-0.7125
-0.703
-0.676
-0.691
-0.708
-0.7155
-0.712
-0.699
-0.685
-0.674
-0.671
-0.667
-0.6555
-0.642
-0.6285
-0.642
-0.6505
-0.632
-0.6245
-0.6245
-0.6305
-0.629
-0.6205
-0.6175
-0.601
-0.5915
-0.5885
-0.588
-0.5905
-0.577
-0.574
-0.572
-0.5565
-0.529
-0.511
-0.516
-0.52
-0.5215
-0.5105
-0.5075
-0.5085
-0.5035
-0.51
-0.512
-0.5055
-0.502
-0.4785
-0.455
-0.457
-0.447
-0.4445
-0.454
-0.46
-0.4695
-0.4725
-0.4675
-0.4545
-0.451
-0.462
-0.463
-0.4645
-0.457
-0.4585
-0.469
-0.449
-0.4365
-0.4455
-0.4545
-0.447
-0.4395
-0.4485
-0.453
-0.4525
-0.458
-0.461
-0.453
-0.443
-0.4185
-0.4045
-0.4235
-0.4315
-0.43
-0.433
-0.425
-0.425
-0.424
-0.415
-0.407
-0.404
-0.4135
-0.415
-0.4275
-0.4535
-0.4595
-0.4425
-0.4345
-0.442
-0.4585
-0.4765
-0.473
-0.472
-0.4555
-0.421
-0.403
-0.4135
-0.42
-0.4155
-0.4295
-0.444
-0.438
-0.423
-0.4415
-0.4495
-0.444
-0.449
-0.4195
-0.4065
-0.4055
-0.3965
-0.4065
-0.4085
-0.4045
-0.399
-0.3955
-0.3915
-0.3925
-0.4105
-0.4345
-0.426
-0.4015
-0.393
-0.378
-0.3765
-0.384
-0.374
-0.3895
-0.4265
-0.427
-0.4155
-0.4265
-0.432
-0.4185
-0.4095
-0.403
-0.3855
-0.3685
-0.341
-0.3345
-0.342
-0.357
-0.3615
-0.3415
-0.3575
-0.3345
-0.368
-0.3485
-0.3875
-0.312
-0.376
-0.287
0.0765
-0.288
-0.384
-0.3185
-0.384
-0.3285
-0.358
-0.3425
-0.3705
-0.3415
-0.3535
-0.3595
-0.338
-0.345
-0.365
-0.39
-0.3995
-0.4025
-0.405
-0.3905
-0.3905
-0.3965
-0.383
-0.383
-0.3795
-0.382
-0.4085
-0.432
-0.4525
-0.446
-0.4185
-0.4205
-0.4375
-0.4345
-0.4225
-0.434
-0.4505
-0.4535
-0.4625
-0.4745
-0.476
-0.481
-0.486
-0.474
-0.459
-0.463
-0.4815
-0.4895
-0.4915
-0.484
-0.484
-0.4875
-0.4865
-0.49
-0.478
-0.4795
-0.497
-0.498
-0.4885
-0.47
-0.4615
-0.47
-0.478
-0.5015
-0.517
-0.498
-0.491
-0.4905
-0.4955
-0.5105
-0.485
-0.472
-0.487
-0.481
-0.4725
-0.482
-0.489
-0.4755
-0.4895
-0.5135
-0.521
-0.53
-0.52
-0.5165
-0.509
-0.4935
-0.4955
-0.491
-0.4845
-0.4895
-0.491
-0.487
-0.479
-0.4565
-0.4455
-0.4615
-0.4805
-0.492
-0.4995
-0.502
-0.5055
-0.498
-0.5015
-0.5205
-0.51
-0.494
-0.5025
-0.5115
-0.5085
-0.507
-0.4995
-0.4975
-0.5185
-0.5385
-0.534
-0.5135
-0.512
-0.5245
-0.526
-0.512
-0.491
-0.4865
-0.5055
-0.532
-0.563
-0.5765
-0.5995
-0.6255
-0.631
-0.632
-0.614
-0.602
-0.5785
-0.564
-0.514
-0.518
-0.4755
-0.4845
-0.4155
-0.4305
-0.2915
0.4685
0.67
0.6785
0.794
0.784
0.877
0.915
0.9785
0.9835
1.02
1.045
1.0325
1.013
0.9825
0.969
0.9305
0.8955
0.8675
0.8295
0.819
0.8225
0.8165
0.792
0.79
0.7975
0.784
0.789
0.793
0.775
0.7615
0.7635
0.7775
0.776
0.748
0.713
0.7015
0.6685
0.663
0.652
0.657
0.6155
0.605
0.592
0.563
0.627
0.0015
-0.421
-0.3295
-0.4235
-0.4045
-0.43
-0.428
-0.4395
-0.4335
-0.4085
-0.412
-0.418
-0.4535
-0.472
-0.4865
-0.4925
-0.482
-0.4845
-0.4895
-0.484
-0.4985
-0.5085
-0.518
-0.5285
-0.5265
-0.5115
-0.5055
-0.5125
-0.5195
-0.518
-0.504
-0.509
-0.5
-0.49
-0.502
-0.5115
-0.5165
-0.515
-0.502
-0.486
-0.4835
-0.4905
-0.5065
-0.502
-0.5195
-0.5415
-0.5225
-0.519
-0.523
-0.5285
-0.527
-0.525
-0.544
-0.537
-0.5225
-0.5225
-0.5175
-0.524
-0.5135
-0.521
-0.5375
-0.5295
-0.534
-0.5395
-0.545
-0.538
-0.5365
-0.5425
-0.5305
-0.527
-0.5355
-0.5345
-0.535
-0.5425
-0.5185
-0.514
-0.535
-0.5205
-0.5105
-0.5315
-0.548
-0.5435
-0.5445
-0.5345
-0.504
-0.491
-0.4985
-0.518
-0.518
-0.5085
-0.521
-0.5365
-0.5435
-0.514
-0.513
-0.5345
-0.537
-0.5515
-0.544
-0.53
-0.5125
-0.5095
-0.524
-0.5375
-0.5575
-0.5615
-0.578
-0.585
-0.5775
-0.584
-0.5665
-0.568
-0.5885
-0.581
-0.5745
-0.574
-0.5665
-0.5725
-0.576
-0.574
-0.582
-0.562
-0.5535
-0.564
-0.565
-0.5635
-0.56
-0.576
-0.596
-0.5865
-0.577
-0.584
-0.589
-0.6015
-0.613
-0.6125
-0.6
-0.6035
-0.612
-0.614
-0.635
-0.6365
-0.612
-0.6005
-0.6115
-0.608
-0.621
-0.659
-0.6615
-0.649
-0.6505
-0.676
-0.6925
-0.694
-0.7015
-0.704
-0.7295
-0.7495
-0.75
-0.7335
-0.7265
-0.761
-0.757
-0.742
-0.75
-0.755
-0.746
-0.7215
-0.717
-0.7265
-0.7385
-0.7505
-0.769
-0.78
-0.7735
-0.7745
-0.7935
-0.8165
-0.822
-0.809
-0.8
-0.819
-0.8165
-0.797
-0.8195
-0.8395
-0.8335
-0.839
-0.845
-0.8365
-0.831
-0.8285
-0.8385
-0.822
-0.805
-0.8185
-0.8185
-0.8185
-0.8195
-0.8185
-0.8115
-0.8105
-0.821
-0.827
-0.8195
-0.8115
-0.8045
-0.8025
-0.8205
-0.83
-0.836
-0.8435
-0.8315
-0.8225
-0.8105
-0.7995
-0.7905
-0.761
-0.7475
-0.7475
-0.751
-0.7545
-0.758
-0.7635
-0.7485
-0.703
-0.669
-0.6905
-0.6985
-0.703
-0.722
-0.7415
-0.7515
-0.724
-0.7095
-0.707
-0.694
-0.6775
-0.665
-0.653
-0.633
-0.6465
-0.636
-0.6055
-0.6015
-0.605
-0.6175
-0.592
-0.584
-0.596
-0.6075
-0.6255
-0.613
-0.595
-0.59
-0.5905
-0.573
-0.55
-0.5425
-0.5335
-0.5405
-0.55
-0.548
-0.5425
-0.525
-0.5175
-0.514
-0.5195
-0.541
-0.556
-0.5445
-0.5395
-0.5345
-0.5005
-0.49
-0.4845
-0.481
-0.4905
-0.5015
-0.503
-0.4915
-0.505
-0.5115
-0.502
-0.507
-0.5055
-0.5005
-0.4915
-0.4815
-0.4845
-0.4805
-0.488
-0.5075
-0.514
-0.51
-0.4975
-0.4875
-0.4985
-0.5
-0.4775
-0.4675
-0.4635
-0.484
-0.4975
-0.4965
-0.514
-0.51
-0.4935
-0.491
-0.486
-0.475
-0.484
-0.481
-0.4645
-0.4765
-0.4855
-0.4685
-0.441
-0.422
-0.426
-0.4365
-0.4215
-0.419
-0.4355
-0.439
-0.459
-0.4745
-0.4725
-0.4775
-0.4745
-0.4565
-0.4405
-0.452
-0.4605
-0.457
-0.45
-0.4485
-0.446
-0.441
-0.4525
-0.439
-0.44
-0.453
-0.4455
-0.4505
-0.4635
-0.447
-0.438
-0.4415
-0.4285
-0.443
-0.4365
-0.413
-0.4285
-0.4455
-0.4325
-0.4205
-0.427
-0.4435
-0.4485
-0.436
-0.429
-0.424
-0.423
-0.441
-0.4395
-0.416
-0.412
-0.4255
-0.4425
-0.441
-0.415
-0.405
-0.414
-0.407
-0.397
-0.4
-0.4035
-0.408
-0.391
-0.371
-0.3905
-0.3845
-0.386
-0.3875
-0.373
-0.3975
-0.423
-0.4335
-0.418
-0.405
-0.391
-0.3845
-0.3925
-0.3995
-0.407
-0.4095
-0.4165
-0.4225
-0.439
-0.4325
-0.41
-0.406
-0.404
-0.4075
-0.4175
-0.4255
-0.429
-0.42
-0.4295
-0.457
-0.46
-0.471
-0.4805
-0.4785
-0.4865
-0.4845
-0.485
-0.5015
-0.5155
-0.519
-0.485
-0.4705
-0.4955
-0.49
-0.4845
-0.5005
-0.5075
-0.502
-0.497
-0.4765
-0.478
-0.5
-0.505
-0.5045
-0.495
-0.513
-0.5455
-0.54
-0.507
-0.494
-0.5055
-0.4995
-0.5125
-0.536
-0.5415
-0.5395
-0.524
-0.5215
-0.517
-0.519
-0.5105
-0.516
-0.519
-0.497
-0.5
-0.5075
-0.5165
-0.505
-0.509
-0.513
-0.506
-0.511
-0.5265
-0.5565
-0.5495
-0.5295
-0.5155
-0.5055
-0.513
-0.513
-0.5165
-0.5335
-0.5325
-0.5485
-0.5745
-0.571
-0.569
-0.5625
-0.532
-0.529
-0.5425
-0.54
-0.555
-0.5435
-0.547
-0.5685
-0.5615
-0.558
-0.561
-0.568
-0.5705
-0.571
-0.565
-0.571
-0.554
-0.529
-0.52
-0.517
-0.534
-0.54
-0.56
-0.5855
-0.5915
-0.59
-0.5785
-0.583
-0.593
-0.6105
-0.642
-0.647
-0.649
-0.603
-0.5785
-0.553
-0.532
-0.5195
-0.4675
-0.447
-0.342
-0.4575
-0.0045
0.6705
0.6545
0.7265
0.7645
0.8105
0.872
0.8925
0.9285
0.9235
0.9525
0.928
0.882
0.8445
0.812
0.7865
0.7675
0.7685
0.7475
0.6965
0.6965
0.718
0.748
0.7625
0.719
0.712
0.715
0.7235
0.7035
0.684
0.7
0.637
0.645
0.565
0.6435
0.4
0.1985
0.66
0.56
0.634
0.4675
-0.2835
-0.347
-0.325
-0.383
-0.4115
-0.446
-0.429
-0.4635
-0.4725
-0.502
-0.5075
-0.4885
-0.485
-0.5105
-0.5135
-0.501
-0.515
-0.5145
-0.512
-0.5055
-0.4985
-0.5245
-0.5425
-0.539
-0.544
-0.5495
-0.534
-0.549
-0.5685
-0.548
-0.5345
-0.5315
-0.5455
-0.5405
-0.528
-0.527
-0.551
-0.596
-0.588
-0.5595
-0.5545
-0.5595
-0.5495
-0.5415
-0.5485
-0.554
-0.5575
-0.555
-0.5515
-0.557
-0.562
-0.569
-0.591
-0.593
-0.5715
-0.555
-0.519
-0.4895
-0.513
-0.5405
-0.5525
-0.556
-0.542
-0.548
-0.5455
-0.5385
-0.5575
-0.55
-0.5395
-0.549
-0.553
-0.55
-0.547
-0.546
-0.536
-0.5335
-0.5405
-0.5385
-0.5515
-0.5515
-0.55
-0.5615
-0.5595
-0.5585
-0.5515
-0.564
-0.5655
-0.566
-0.589
-0.594
-0.6025
-0.5625
-0.5355
-0.571
-0.5695
-0.5535
-0.5405
-0.548
-0.567
-0.556
-0.569
-0.5895
-0.5885
-0.5895
-0.5845
-0.582
-0.584
-0.584
-0.565
-0.5755
-0.5835
-0.576
-0.5745
-0.563
-0.582
-0.586
-0.583
-0.5845
-0.591
-0.583
-0.587
-0.6085
-0.59
-0.5955
-0.607
-0.6055
-0.5855
-0.5865
-0.6085
-0.602
-0.5845
-0.565
-0.603
-0.6155
-0.592
-0.6125
-0.639
-0.6405
-0.6275
-0.623
-0.6085
-0.6075
-0.61
-0.6015
-0.6175
-0.6435
-0.6615
-0.663
-0.6645
-0.6655
-0.6705
-0.68
-0.6525
-0.6585
-0.699
-0.719
-0.711
-0.7135
-0.731
-0.706
-0.717
-0.7145
-0.6955
-0.7325
-0.7225
-0.71
-0.718
-0.7185
-0.7355
-0.7475
-0.7465
-0.744
-0.7765
-0.792
-0.7935
-0.798
-0.792
-0.7965
-0.794
-0.782
-0.8015
-0.8225
-0.784
-0.782
-0.811
-0.8185
-0.8345
-0.832
-0.844
-0.856
-0.8265
-0.821
-0.8155
-0.8195
-0.8395
-0.84
-0.849
-0.8365
-0.8245
-0.827
-0.831
-0.8305
-0.825
-0.8375
-0.8385
-0.819
-0.8335
-0.8575
-0.8645
-0.836
-0.813
-0.843
-0.857
-0.843
-0.8175
-0.812
-0.812
-0.8155
-0.815
-0.798
-0.7895
-0.761
-0.778
-0.8095
-0.785
-0.7635
-0.755
-0.7575
-0.755
-0.726
-0.705
-0.707
-0.725
-0.7525
-0.7545
-0.727
-0.7295
-0.732
-0.7085
-0.7115
-0.7135
-0.6865
-0.679
-0.675
-0.654
-0.657
-0.6515
-0.646
-0.6475
-0.633
-0.62
-0.607
-0.606
-0.6125
-0.6125
-0.6075
-0.5985
-0.5955
-0.5905
-0.586
-0.596
-0.5915
-0.578
-0.573
-0.5585
-0.555
-0.5625
-0.557
-0.552
-0.5525
-0.5535
-0.569
-0.58
-0.5655
-0.5515
-0.5405
-0.5365
-0.5285
-0.52
-0.5225
-0.5125
-0.512
-0.5165
-0.515
-0.5225
-0.525
-0.5195
-0.5205
-0.5175
-0.507
-0.51
-0.518
-0.528
-0.5375
-0.523
-0.513
-0.511
-0.509
-0.505
-0.488
-0.5005
-0.5165
-0.5225
-0.5155
-0.4985
-0.494
-0.488
-0.475
-0.464
-0.5025
-0.523
-0.5145
-0.5205
-0.523
-0.5165
-0.4935
-0.49
-0.5115
-0.521
-0.514
-0.5155
-0.5195
-0.528
-0.528
-0.526
-0.535
-0.518
-0.5005
-0.474
-0.461
-0.4775
-0.4795
-0.4875
-0.5
-0.5005
-0.48
-0.4925
-0.503
-0.492
-0.4905
-0.47
-0.4625
-0.453
-0.4655
-0.481
-0.488
-0.482
-0.474
-0.479
-0.447
-0.4615
-0.477
-0.459
-0.4605
-0.4515
-0.443
-0.4385
-0.446
-0.4575
-0.4605
-0.4735
-0.477
-0.464
-0.464
-0.475
-0.4745
-0.484
-0.494
-0.4755
-0.4575
-0.439
-0.428
-0.43
-0.4315
-0.4255
-0.4185
-0.423
-0.4395
-0.4515
-0.457
-0.452
-0.44
-0.4375
-0.425
-0.3905
-0.3815
-0.404
-0.394
-0.3965
-0.412
-0.4115
-0.425
-0.4225
-0.4115
-0.408
-0.3975
-0.407
-0.412
-0.402
-0.398
-0.3975
-0.405
-0.408
-0.414
-0.418
-0.424
-0.4445
-0.459
-0.4575
-0.4595
-0.463
-0.461
-0.4715
-0.472
-0.4735
-0.46
-0.461
-0.4945
-0.4875
-0.501
-0.53
-0.523
-0.515
-0.5165
-0.54
-0.536
-0.5225
-0.5485
-0.5365
-0.5135
-0.5085
-0.4905
-0.486
-0.4945
-0.5135
-0.518
-0.514
-0.5185
-0.509
-0.515
-0.5115
-0.5045
-0.5285
-0.539
-0.5445
-0.565
-0.556
-0.5405
-0.5515
-0.544
-0.533
-0.5415
-0.554
-0.54
-0.517
-0.5175
-0.5275
-0.5315
-0.5305
-0.5395
-0.5485
-0.5305
-0.513
-0.5185
-0.535
-0.5595
-0.5625
-0.5545
-0.5505
-0.542
-0.5285
-0.503
-0.484
-0.4985
-0.514
-0.5175
-0.5215
-0.528
-0.539
-0.531
-0.513
-0.517
-0.5335
-0.5315
-0.5375
-0.54
-0.539
-0.5405
-0.532
-0.5275
-0.502
-0.5005
-0.5195
-0.5165
-0.5095
-0.5065
-0.513
-0.5195
-0.5165
-0.5135
-0.5045
-0.488
-0.5105
-0.5485
-0.567
-0.575
-0.585
-0.5885
-0.594
-0.6025
-0.612
-0.635
-0.637
-0.6235
-0.61
-0.6045
-0.6125
-0.609
-0.58
-0.567
-0.5145
-0.516
-0.4725
-0.4665
-0.404
-0.404
-0.3415
0.4085
0.72
0.6775
0.773
0.774
0.8485
0.872
0.9235
0.9345
0.941
0.9385
0.908
0.896
0.8595
0.813
0.797
0.772
0.731
0.7055
0.711
0.73
0.739
0.7345
0.721
0.7255
0.734
0.7315
0.7085
0.6885
0.689
0.6815
0.6405
0.6115
0.6065
0.6115
0.622
0.611
0.6195
0.5865
0.6325
0.569
0.6535
0.3945
-0.319
-0.397
-0.4
-0.4165
-0.398
-0.438
-0.447
-0.483
-0.464
-0.465
-0.4695
-0.5075
-0.5105
-0.5135
-0.5135
-0.5155
-0.531
-0.5115
-0.511
-0.5385
-0.5285
-0.52
-0.52
-0.518
-0.5295
-0.5175
-0.511
-0.5295
-0.538
-0.5295
-0.549
-0.5635
-0.561
-0.568
-0.556
-0.553
-0.5425
-0.542
-0.5595
-0.551
-0.5405
-0.5335
-0.524
-0.5195
-0.52
-0.52
-0.5115
-0.506
-0.51
-0.518
-0.529
-0.5355
-0.5345
-0.5265
-0.532
-0.5395
-0.536
-0.536
-0.5235
-0.511
-0.52
-0.527
-0.525
-0.5265
-0.519
-0.5235
-0.543
-0.539
-0.5375
-0.548
-0.5495
-0.547
-0.536
-0.542
-0.5425
-0.5365
-0.556
-0.562
-0.5605
-0.5595
-0.555
-0.549
-0.5625
-0.5735
-0.56
-0.562
-0.563
-0.55
-0.5485
-0.5455
-0.5295
-0.5065
-0.511
-0.5365
-0.545
-0.5505
-0.5455
-0.5505
-0.5555
-0.55
-0.556
-0.5615
-0.556
-0.5425
-0.5385
-0.54
-0.545
-0.542
-0.5345
-0.537
-0.544
-0.56
-0.55
-0.545
-0.5665
-0.57
-0.571
-0.574
-0.5885
-0.5855
-0.5755
-0.5715
-0.5675
-0.572
-0.573
-0.5895
-0.5895
-0.588
-0.597
-0.606
-0.6215
-0.6185
-0.6085
-0.593
-0.595
-0.6145
-0.6155
-0.617
-0.6105
-0.5995
-0.5915
-0.5775
-0.5765
-0.59
-0.6055
-0.613
-0.6135
-0.6125
-0.6205
-0.6315
-0.6425
-0.657
-0.6585
-0.6715
-0.6785
-0.688
-0.699
-0.7015
-0.716
-0.715
-0.722
-0.728
-0.7335
-0.7445
-0.7465
-0.748
-0.748
-0.7375
-0.727
-0.745
-0.7615
-0.7575
-0.753
-0.751
-0.7495
-0.759
-0.7715
-0.788
-0.7875
-0.773
-0.7905
-0.798
-0.798
-0.8095
-0.8205
-0.817
-0.801
-0.797
-0.7935
-0.8
-0.815
-0.8195
-0.812
-0.8185
-0.822
-0.8135
-0.8315
-0.844
-0.845
-0.8525
-0.8625
-0.857
-0.8435
-0.841
-0.8405
-0.843
-0.846
-0.841
-0.814
-0.819
-0.835
-0.823
-0.8315
-0.834
-0.8275
-0.8305
-0.8295
-0.817
-0.7945
-0.7755
-0.7705
-0.774
-0.777
-0.781
-0.7845
-0.776
-0.7585
-0.7425
-0.736
-0.7345
-0.724
-0.7245
-0.721
-0.7125
-0.7165
-0.7125
-0.71
-0.6985
-0.678
-0.6695
-0.6675
-0.663
-0.6575
-0.652
-0.6495
-0.6615
-0.66
-0.6515
-0.651
-0.6425
-0.6305
-0.62
-0.6235
-0.6135
-0.599
-0.6
-0.598
-0.5845
-0.569
-0.585
-0.597
-0.591
-0.599
-0.5985
-0.597
-0.5865
-0.564
-0.552
-0.5355
-0.5275
-0.525
-0.535
-0.551
-0.553
-0.552
-0.5545
-0.5435
-0.546
-0.5455
-0.539
-0.555
-0.541
-0.531
-0.529
-0.522
-0.5235
-0.52
-0.511
-0.499
-0.4995
-0.4985
-0.501
-0.5105
-0.5135
-0.514
-0.516
-0.5145
-0.513
-0.5145
-0.5245
-0.534
-0.538
-0.5435
-0.5345
-0.536
-0.5405
-0.531
-0.523
-0.5095
-0.5065
-0.4885
-0.484
-0.504
-0.4975
-0.498
-0.503
-0.499
-0.488
-0.492
-0.4965
-0.479
-0.4805
-0.489
-0.4925
-0.497
-0.4955
-0.494
-0.4985
-0.4975
-0.4885
-0.485
-0.4885
-0.4975
-0.493
-0.49
-0.493
-0.4795
-0.484
-0.4815
-0.465
-0.476
-0.4715
-0.4735
-0.49
-0.4865
-0.491
-0.483
-0.4815
-0.489
-0.499
-0.5065
-0.476
-0.472
-0.474
-0.4645
-0.484
-0.5055
-0.5115
-0.511
-0.499
-0.4885
-0.4835
-0.476
-0.4685
-0.4645
-0.4725
-0.4515
-0.4475
-0.4845
-0.478
-0.4685
-0.4575
-0.4415
-0.447
-0.4365
-0.4215
-0.4165
-0.4405
-0.454
-0.443
-0.4425
-0.4375
-0.431
-0.4215
-0.4265
-0.4495
-0.4435
-0.433
-0.4455
-0.4475
-0.4415
-0.429
-0.422
-0.431
-0.4365
-0.4435
-0.4425
-0.4505
-0.4575
-0.4565
-0.463
-0.454
-0.454
-0.456
-0.453
-0.4585
-0.4575
-0.4705
-0.4815
-0.49
-0.499
-0.497
-0.4955
-0.497
-0.506
-0.5105
-0.505
-0.503
-0.52
-0.5275
-0.5265
-0.5375
-0.5465
-0.548
-0.5445
-0.5325
-0.5105
-0.5245
-0.542
-0.54
-0.513
-0.517
-0.558
-0.549
-0.551
-0.558
-0.5675
-0.588
-0.5875
-0.601
-0.6015
-0.581
-0.5555
-0.5245
-0.5075
-0.5095
-0.53
-0.549
-0.558
-0.5585
-0.556
-0.5465
-0.5305
-0.5365
-0.5495
-0.559
-0.5545
-0.5565
-0.5595
-0.553
-0.557
-0.545
-0.5365
-0.5385
-0.541
-0.5545
-0.572
-0.568
-0.555
-0.566
-0.5775
-0.577
-0.5715
-0.567
-0.553
-0.529
-0.5325
-0.5435
-0.53
-0.527
-0.5405
-0.547
-0.556
-0.5635
-0.567
-0.5665
-0.565
-0.566
-0.5555
-0.557
-0.5655
-0.559
-0.5585
-0.564
-0.555
-0.553
-0.5595
-0.5525
-0.5365
-0.531
-0.555
-0.564
-0.569
-0.5785
-0.5845
-0.596
-0.6015
-0.614
-0.618
-0.6205
-0.634
-0.654
-0.663
-0.653
-0.654
-0.6395
-0.6255
-0.5925
-0.597
-0.5735
-0.561
-0.5245
-0.4925
-0.486
-0.4105
-0.4585
0.1645
0.7165
0.657
0.7685
0.806
0.872
0.9215
0.964
0.9835
0.9875
0.999
0.96
0.924
0.8845
0.8595
0.83
0.804
0.771
0.7265
0.6875
0.6995
0.717
0.72
0.7285
0.727
0.7415
0.736
0.712
0.703
0.729
0.697
0.666
0.63
0.622
0.598
0.578
0.588
0.5505
0.6565
0.0835
-0.4305
-0.326
-0.375
-0.3625
-0.4015
-0.413
-0.4265
-0.449
-0.452
-0.46
-0.453
-0.473
-0.491
-0.521
-0.545
-0.575
-0.5835
-0.587
-0.5925
-0.584
-0.5665
-0.5545
-0.533
-0.5035
-0.5125
-0.534
-0.546
-0.5345
-0.542
-0.564
-0.559
-0.561
-0.5635
-0.569
-0.5655
-0.562
-0.5755
-0.5785
-0.579
-0.5885
-0.5975
-0.5995
-0.587
-0.5755
-0.5805
-0.58
-0.575
-0.581
-0.5825
-0.5765
-0.589
-0.6155
-0.618
-0.5985
-0.583
-0.565
-0.555
-0.562
-0.5625
-0.574
-0.5825
-0.5815
-0.58
-0.5635
-0.5525
-0.554
-0.5555
-0.5505
-0.5595
-0.5715
-0.572
-0.569
-0.5655
-0.5775
-0.5775
-0.571
-0.583
-0.5955
-0.586
-0.572
-0.567
-0.5795
-0.597
-0.595
-0.5985
-0.6035
-0.6065
-0.6
-0.592
-0.587
-0.568
-0.566
-0.5705
-0.5725
-0.5795
-0.5765
-0.5685
-0.573
-0.5885
-0.598
-0.5995
-0.5985
-0.594
-0.5825
-0.5675
-0.5595
-0.5605
-0.557
-0.535
-0.541
-0.567
-0.574
-0.584
-0.5865
-0.596
-0.6095
-0.607
-0.607
-0.6035
-0.5895
-0.5855
-0.5925
-0.6035
-0.6025
-0.603
-0.6145
-0.6195
-0.623
-0.6185
-0.611
-0.6095
-0.6145
-0.6215
-0.6295
-0.6275
-0.6145
-0.63
-0.64
-0.6335
-0.6275
-0.633
-0.648
-0.6285
-0.6355
-0.6615
-0.659
-0.657
-0.669
-0.6985
-0.702
-0.6935
-0.7005
-0.708
-0.7075
-0.704
-0.7095
-0.713
-0.7115
-0.717
-0.7205
-0.72
-0.721
-0.732
-0.76
-0.763
-0.7605
-0.7665
-0.7745
-0.7865
-0.79
-0.7955
-0.799
-0.7955
-0.779
-0.7795
-0.7945
-0.8015
-0.817
-0.8285
-0.831
-0.8475
-0.8415
-0.8215
-0.8375
-0.853
-0.855
-0.858
-0.8625
-0.863
-0.87
-0.867
-0.8595
-0.8795
-0.876
-0.8655
-0.8685
-0.8585
-0.843
-0.842
-0.8545
-0.8625
-0.868
-0.8645
-0.8525
-0.845
-0.855
-0.8575
-0.8625
-0.863
-0.8465
-0.8535
-0.8645
-0.861
-0.8565
-0.86
-0.8595
-0.8575
-0.842
-0.815
-0.8195
-0.83
-0.822
-0.818
-0.8155
-0.8125
-0.816
-0.81
-0.8065
-0.804
-0.786
-0.7795
-0.7755
-0.7765
-0.777
-0.771
-0.768
-0.7515
-0.7335
-0.7305
-0.7405
-0.7265
-0.7135
-0.7065
-0.691
-0.701
-0.7005
-0.6945
-0.697
-0.6925
-0.6895
-0.6815
-0.6645
-0.6575
-0.6505
-0.638
-0.64
-0.646
-0.6405
-0.6385
-0.6275
-0.6095
-0.602
-0.5935
-0.6005
-0.5935
-0.582
-0.5875
-0.596
-0.602
-0.595
-0.5915
-0.579
-0.5525
-0.55
-0.571
-0.577
-0.585
-0.583
-0.568
-0.5885
-0.59
-0.571
-0.566
-0.546
-0.5315
-0.5415
-0.553
-0.5625
-0.5575
-0.5535
-0.5455
-0.5335
-0.532
-0.528
-0.545
-0.5415
-0.536
-0.54
-0.541
-0.552
-0.548
-0.5405
-0.5545
-0.579
-0.576
-0.5625
-0.5525
-0.542
-0.525
-0.515
-0.5115
-0.506
-0.5145
-0.512
-0.5155
-0.5225
-0.5175
-0.514
-0.5075
-0.51
-0.5175
-0.5155
-0.514
-0.5085
-0.499
-0.5125
-0.5205
-0.504
-0.515
-0.5395
-0.543
-0.546
-0.5705
-0.558
-0.539
-0.517
-0.4985
-0.5155
-0.4685
-0.5195
-0.4485
-0.5665
-0.455
-0.579
-0.4345
-0.5705
-0.5295
0.741
-0.2655
-0.702
-0.375
-0.6165
-0.4385
-0.557
-0.4625
-0.521
-0.488
-0.5005
-0.4985
-0.488
-0.5
-0.496
-0.5075
-0.4935
-0.5015
-0.495
-0.4975
-0.484
-0.473
-0.461
-0.464
-0.4685
-0.476
-0.4865
-0.488
-0.491
-0.482
-0.469
-0.4745
-0.4825
-0.466
-0.4575
-0.456
-0.4565
-0.4725
-0.4665
-0.4765
-0.473
-0.439
-0.439
-0.4455
-0.4535
-0.458
-0.4475
-0.439
-0.4285
-0.422
-0.4485
-0.466
-0.464
-0.478
-0.4805
-0.451
-0.4445
-0.473
-0.4835
-0.4925
-0.5055
-0.512
-0.525
-0.53
-0.525
-0.515
-0.5165
-0.523
-0.522
-0.5245
-0.514
-0.51
-0.524
-0.538
-0.551
-0.563
-0.57
-0.569
-0.568
-0.5665
-0.553
-0.542
-0.5425
-0.5415
-0.5455
-0.561
-0.566
-0.564
-0.5755
-0.58
-0.572
-0.5605
-0.549
-0.5465
-0.566
-0.5805
-0.581
-0.587
-0.5825
-0.5865
-0.5905
-0.5785
-0.5785
-0.584
-0.578
-0.5765
-0.589
-0.5865
-0.5795
-0.58
-0.578
-0.5785
-0.591
-0.6035
-0.61
-0.6135
-0.605
-0.5965
-0.5905
-0.577
-0.5715
-0.5805
-0.5875
-0.596
-0.5945
-0.5895
-0.591
-0.5845
-0.572
-0.572
-0.581
-0.574
-0.574
-0.5905
-0.6205
-0.6195
-0.6055
-0.6095
-0.574
-0.5675
-0.6055
-0.61
-0.609
-0.621
-0.624
-0.6325
-0.6275
-0.607
-0.5935
-0.5695
-0.556
-0.5495
-0.562
-0.582
-0.593
-0.6
-0.599
-0.606
-0.601
-0.598
-0.6195
-0.654
-0.6595
-0.652
-0.661
-0.6635
-0.6725
-0.6835
-0.671
-0.6715
-0.656
-0.646
-0.627
-0.5925
-0.5935
-0.557
-0.5655
-0.5075
-0.518
-0.4245
-0.446
-0.2315
0.541
0.664
0.671
0.7795
0.8035
0.8945
0.9145
0.9655
0.964
0.9825
0.976
0.948
0.911
0.857
0.8225
0.8015
0.781
0.7765
0.766
0.757
0.7695
0.771
0.7575
0.7465
0.7595
0.7765
0.778
0.761
0.7595
0.7465
0.7185
0.6685
0.655
0.624
0.6245
0.6365
0.6055
0.6225
0.556
0.656
0.164
-0.4045
-0.3215
-0.3885
-0.3995
-0.4305
-0.4445
-0.4375
-0.4655
-0.48
-0.5055
-0.5015
-0.513
-0.497
-0.495
-0.5065
-0.516
-0.519
-0.538
-0.5565
-0.5555
-0.5655
-0.591
-0.606
-0.622
-0.633
-0.6275
-0.6295
-0.617
-0.583
-0.5655
-0.554
-0.5495
-0.5595
-0.576
-0.5805
-0.572
-0.5725
-0.5765
-0.575
-0.5785
-0.5815
-0.585
-0.601
-0.6105
-0.6065
-0.6015
-0.5905
-0.567
-0.559
-0.577
-0.592
-0.5955
-0.5955
-0.6055
-0.616
-0.6045
-0.592
-0.5775
-0.561
-0.569
-0.589
-0.601
-0.6035
-0.607
-0.598
-0.5815
-0.584
-0.586
-0.589
-0.584
-0.585
-0.6015
-0.605
-0.607
-0.5995
-0.5935
-0.594
-0.5845
-0.581
-0.5855
-0.5925
-0.596
-0.598
-0.598
-0.598
-0.5995
-0.5965
-0.597
-0.5935
-0.577
-0.5695
-0.587
-0.589
-0.5855
-0.5965
-0.592
-0.595
-0.598
-0.5895
-0.602
-0.61
-0.5985
-0.589
-0.5855
-0.575
-0.579
-0.5945
-0.6
-0.598
-0.586
-0.5835
-0.587
-0.592
-0.5905
-0.5905
-0.5955
-0.6
-0.598
-0.5885
-0.578
-0.582
-0.589
-0.5745
-0.5945
-0.604
-0.5955
-0.5925
-0.5925
-0.62
-0.622
-0.6195
-0.622
-0.621
-0.6235
-0.629
-0.643
-0.6425
-0.644
-0.6525
-0.655
-0.659
-0.65
-0.637
-0.641
-0.648
-0.651
-0.665
-0.672
-0.675
-0.682
-0.689
-0.703
-0.708
-0.709
-0.713
-0.723
-0.7365
-0.7525
-0.7475
-0.743
-0.759
-0.7545
-0.7415
-0.7565
-0.764
-0.7535
-0.7725
-0.7895
-0.7895
-0.7935
-0.8015
-0.8085
-0.811
-0.8125
-0.813
-0.8125
-0.8155
-0.8255
-0.831
-0.828
-0.8315
-0.8495
-0.858
-0.867
-0.8795
-0.889
-0.89
-0.882
-0.881
-0.8765
-0.876
-0.889
-0.898
-0.9055
-0.908
-0.9005
-0.9
-0.91
-0.9145
-0.9025
-0.896
-0.892
-0.8775
-0.8755
-0.885
-0.886
-0.892
-0.882
-0.87
-0.8785
-0.8845
-0.8885
-0.8845
-0.8905
-0.908
-0.8965
-0.876
-0.8745
-0.8665
-0.861
-0.8705
-0.874
-0.8645
-0.8395
-0.831
-0.83
-0.811
-0.8065
-0.8155
-0.8215
-0.8205
-0.7975
-0.776
-0.7665
-0.762
-0.762
-0.753
-0.742
-0.7375
-0.75
-0.7425
-0.7095
-0.7075
-0.7085
-0.709
-0.718
-0.7285
-0.7375
-0.74
-0.7385
-0.7285
-0.7155
-0.7035
-0.6935
-0.665
-0.6365
-0.6215
-0.618
-0.6025
-0.595
-0.612
-0.6335
-0.6385
-0.618
-0.6235
-0.625
-0.6045
-0.6
-0.5975
-0.5955
-0.6035
-0.601
-0.5875
-0.5815
-0.591
-0.5965
-0.5675
-0.568
-0.573
-0.5595
-0.556
-0.543
-0.5485
-0.561
-0.5765
-0.5815
-0.5735
-0.5605
-0.5655
-0.5905
-0.5855
-0.57
-0.57
-0.5655
-0.562
-0.5525
-0.536
-0.55
-0.5535
-0.554
-0.5595
-0.5595
-0.5555
-0.536
-0.5555
-0.564
-0.5505
-0.547
-0.5475
-0.5465
-0.5385
-0.54
-0.55
-0.5645
-0.5645
-0.562
-0.5675
-0.5665
-0.5545
-0.552
-0.561
-0.553
-0.545
-0.557
-0.555
-0.5385
-0.55
-0.552
-0.526
-0.5285
-0.534
-0.5225
-0.529
-0.5395
-0.5385
-0.5325
-0.532
-0.5325
-0.527
-0.518
-0.51
-0.5095
-0.51
-0.508
-0.518
-0.531
-0.5305
-0.52
-0.5205
-0.54
-0.5355
-0.5275
-0.5255
-0.508
-0.5045
-0.52
-0.526
-0.522
-0.524
-0.517
-0.5195
-0.526
-0.518
-0.5245
-0.5175
-0.5195
-0.5065
-0.4915
-0.515
-0.5035
-0.488
-0.4785
-0.467
-0.466
-0.4765
-0.485
-0.4665
-0.464
-0.476
-0.478
-0.4795
-0.459
-0.446
-0.4535
-0.4515
-0.455
-0.459
-0.4605
-0.457
-0.449
-0.455
-0.458
-0.4555
-0.4635
-0.469
-0.4705
-0.4775
-0.482
-0.475
-0.477
-0.486
-0.4905
-0.504
-0.512
-0.4975
-0.473
-0.4615
-0.457
-0.461
-0.468
-0.468
-0.4725
-0.4975
-0.517
-0.515
-0.5185
-0.5175
-0.526
-0.5325
-0.539
-0.559
-0.571
-0.5615
-0.5545
-0.566
-0.5635
-0.5655
-0.5775
-0.585
-0.5875
-0.58
-0.5765
-0.578
-0.5825
-0.594
-0.598
-0.604
-0.6115
-0.617
-0.615
-0.6095
-0.591
-0.57
-0.5875
-0.5975
-0.5975
-0.605
-0.61
-0.6095
-0.5965
-0.5955
-0.6145
-0.624
-0.6105
-0.618
-0.6345
-0.633
-0.6365
-0.6215
-0.6105
-0.615
-0.6135
-0.6055
-0.5995
-0.608
-0.602
-0.6075
-0.622
-0.612
-0.611
-0.6195
-0.6125
-0.625
-0.6445
-0.628
-0.62
-0.6155
-0.6065
-0.6275
-0.629
-0.633
-0.655
-0.6585
-0.6585
-0.652
-0.6395
-0.61
-0.6005
-0.608
-0.594
-0.603
-0.626
-0.639
-0.642
-0.6435
-0.628
-0.6045
-0.603
-0.616
-0.653
-0.6665
-0.652
-0.6375
-0.637
-0.634
-0.6205
-0.6185
-0.6145
-0.6105
-0.6135
-0.625
-0.6305
-0.6425
-0.6645
-0.69
-0.706
-0.7065
-0.7125
-0.7295
-0.7195
-0.715
-0.706
-0.6915
-0.6625
-0.6465
-0.6275
-0.602
-0.5765
-0.5205
-0.5225
-0.403
-0.461
-0.002
0.6805
0.6585
0.7375
0.7905
0.8195
0.872
0.8935
0.938
0.9315
0.934
0.922
0.9175
0.868
0.8075
0.756
0.7135
0.689
0.671
0.6835
0.7005
0.713
0.6825
0.6475
0.668
0.708
0.7
0.632
0.6475
0.61
0.6535
0.571
0.6485
0.484
-0.284
-0.3705
-0.3255
-0.3835
-0.361
-0.4075
-0.391
-0.4185
-0.4055
-0.4215
-0.4385
-0.449
-0.469
-0.503
-0.5325
-0.552
-0.5505
-0.5375
-0.5525
-0.6005
-0.6115
-0.592
-0.609
-0.6085
-0.6005
-0.601
-0.598
-0.6045
-0.6105
-0.6115
-0.5995
-0.5915
-0.612
-0.6385
-0.6325
-0.622
-0.624
-0.6335
-0.654
-0.6595
-0.6575
-0.6485
-0.6495
-0.6555
-0.647
-0.641
-0.6365
-0.645
-0.6475
-0.6345
-0.626
-0.633
-0.6365
-0.6345
-0.627
-0.6245
-0.636
-0.64
-0.638
-0.631
-0.6385
-0.6445
-0.642
-0.6345
-0.625
-0.6335
-0.63
-0.6085
-0.6045
-0.6095
-0.614
-0.6215
-0.6285
-0.6225
-0.6165
-0.631
-0.6435
-0.637
-0.6225
-0.625
-0.6375
-0.654
-0.6535
-0.6525
-0.6635
-0.6695
-0.644
-0.6295
-0.667
-0.6745
-0.6725
-0.665
-0.643
-0.6455
-0.658
-0.645
-0.6365
-0.616
-0.617
-0.6635
-0.6625
-0.656
-0.657
-0.647
-0.619
-0.6265
-0.666
-0.6535
-0.644
-0.6375
-0.625
-0.6355
-0.6515
-0.661
-0.6525
-0.652
-0.6565
-0.6525
-0.6575
-0.657
-0.66
-0.66
-0.6595
-0.6595
-0.676
-0.692
-0.687
-0.6875
-0.6865
-0.6765
-0.6865
-0.7
-0.694
-0.6945
-0.6895
-0.6885
-0.699
-0.712
-0.7115
-0.7165
-0.731
-0.7285
-0.742
-0.7555
-0.7575
-0.75
-0.7345
-0.7345
-0.731
-0.7235
-0.7335
-0.744
-0.7275
-0.725
-0.7505
-0.756
-0.7545
-0.752
-0.759
-0.768
-0.7795
-0.7825
-0.773
-0.801
-0.828
-0.83
-0.8355
-0.8605
-0.867
-0.8315
-0.8115
-0.821
-0.838
-0.85
-0.844
-0.857
-0.886
-0.885
-0.87
-0.8775
-0.8895
-0.8975
-0.8965
-0.8825
-0.884
-0.911
-0.9285
-0.9195
-0.9345
-0.9535
-0.9445
-0.949
-0.965
-0.954
-0.944
-0.954
-0.961
-0.9525
-0.943
-0.9535
-0.97
-1.0
-1.0005
-0.9775
-0.97
-0.951
-0.9535
-0.965
-0.959
-0.9725
-0.9765
-0.9745
-0.975
-0.97
-0.9895
-0.9975
-1.0005
-0.994
-0.9845
-1.0
-1.002
-0.9975
-0.98
-0.976
-0.9775
-0.976
-0.9775
-0.956
-0.964
-0.9715
-0.9705
-0.957
-0.9325
-0.9465
-0.954
-0.955
-0.9425
-0.916
-0.9145
-0.9145
-0.901
-0.889
-0.879
-0.8545
-0.842
-0.843
-0.84
-0.8315
-0.812
-0.8055
-0.787
-0.7605
-0.7415
-0.7105
-0.7185
-0.731
-0.7075
-0.708
-0.7135
-0.6885
-0.659
-0.654
-0.6425
-0.627
-0.649
-0.654
-0.656
-0.6575
-0.628
-0.6605
-0.6925
-0.6885
-0.6995
-0.7125
-0.697
-0.66
-0.6425
-0.632
-0.6255
-0.642
-0.6635
-0.6575
-0.65
-0.6505
-0.67
-0.6775
-0.671
-0.6555
-0.6325
-0.655
-0.669
-0.665
-0.6655
-0.6395
-0.6095
-0.625
-0.6465
-0.6355
-0.634
-0.6265
-0.621
-0.627
-0.628
-0.645
-0.6505
-0.6495
-0.6395
-0.627
-0.6205
-0.607
-0.6255
-0.6495
-0.649
-0.633
-0.6185
-0.6185
-0.64
-0.6495
-0.646
-0.647
-0.6365
-0.6345
-0.659
-0.677
-0.681
-0.6525
-0.5965
-0.5835
-0.5825
-0.594
-0.623
-0.6445
-0.6545
-0.645
-0.6465
-0.647
-0.656
-0.668
-0.6535
-0.639
-0.623
-0.6055
-0.617
-0.619
-0.6215
-0.6435
-0.633
-0.6145
-0.605
-0.629
-0.6545
-0.6405
-0.651
-0.646
-0.627
-0.606
-0.5585
-0.576
-0.609
-0.611
-0.6255
-0.654
-0.672
-0.6445
-0.646
-0.6575
-0.6515
-0.669
-0.6645
-0.656
-0.6425
-0.612
-0.607
-0.606
-0.6155
-0.6415
-0.6615
-0.6595
-0.6395
-0.625
-0.6295
-0.6315
-0.6265
-0.609
-0.602
-0.6285
-0.6485
-0.651
-0.6475
-0.6425
-0.6145
-0.5955
-0.6045
-0.6085
-0.6195
-0.6455
-0.668
-0.694
-0.708
-0.7165
-0.7215
-0.712
-0.685
-0.671
-0.653
-0.641
-0.6315
-0.6175
-0.592
-0.568
-0.5585
-0.5375
-0.534
-0.3935
-0.465
-0.007
0.6845
0.64
0.6935
0.7355
0.778
0.848
0.8665
0.86
0.847
0.81
0.771
0.748
0.6825
0.666
0.5915
0.663
0.324
-0.332
-0.384
0.2555
0.629
0.558
0.5505
0.6375
-0.017
-0.3325
0.633
0.25
-0.4
-0.3085
-0.377
-0.345
-0.4085
-0.4075
-0.4035
-0.3875
-0.3675
-0.384
-0.416
-0.4355
-0.434
-0.4665
-0.49
-0.5065
-0.5175
-0.5315
-0.5575
-0.5725
-0.5705
-0.5845
-0.5945
-0.5975
-0.6025
-0.6025
-0.6075
-0.5705
-0.578
-0.632
-0.6465
-0.6205
-0.593
-0.6055
-0.6055
-0.622
-0.6445
-0.647
-0.6385
-0.639
-0.653
-0.6565
-0.6745
-0.672
-0.662
-0.6525
-0.633
-0.6375
-0.6425
-0.6645
-0.666
-0.642
-0.644
-0.6625
-0.671
-0.651
-0.642
-0.6655
-0.6735
-0.674
-0.681
-0.6665
-0.6825
-0.6685
-0.64
-0.65
-0.6585
-0.6605
-0.6585
-0.6765
-0.6785
-0.666
-0.6675
-0.66
-0.643
-0.6365
-0.656
-0.662
-0.6595
-0.668
-0.643
-0.634
-0.6585
-0.653
-0.6255
-0.664
-0.689
-0.6795
-0.6905
-0.674
-0.676
-0.6655
-0.6645
-0.6825
-0.684
-0.6935
-0.691
-0.6925
-0.6925
-0.6935
-0.6855
-0.6675
-0.6715
-0.689
-0.694
-0.6805
-0.67
-0.669
-0.6765
-0.6795
-0.6645
-0.672
-0.6855
-0.69
-0.71
-0.7185
-0.708
-0.6825
-0.6685
-0.6675
-0.67
-0.6805
-0.698
-0.691
-0.6865
-0.713
-0.7125
-0.7055
-0.6975
-0.6825
-0.7005
-0.731
-0.733
-0.7225
-0.7285
-0.736
-0.7175
-0.7135
-0.732
-0.741
-0.7335
-0.713
-0.6795
-0.6875
-0.7425
-0.7535
-0.7555
-0.765
-0.76
-0.7515
-0.7475
-0.744
-0.7355
-0.763
-0.787
-0.7965
-0.8105
-0.8055
-0.7995
-0.7845
-0.789
-0.8115
-0.8025
-0.801
-0.817
-0.849
-0.8785
-0.892
-0.886
-0.8885
-0.9055
-0.892
-0.9115
-0.9145
-0.8755
-0.8675
-0.9
-0.924
-0.9075
-0.917
-0.931
-0.931
-0.9425
-0.9355
-0.949
-0.9645
-0.9525
-0.9615
-0.9745
-0.993
-1.009
-1.008
-0.9875
-0.9705
-0.96
-0.9695
-0.983
-0.9735
-0.983
-0.988
-0.965
-0.9415
-0.9545
-0.994
-0.9955
-0.9675
-0.955
-0.9405
-0.941
-0.9445
-0.941
-0.9445
-0.9305
-0.9275
-0.9345
-0.9115
-0.8945
-0.902
-0.91
-0.914
-0.892
-0.86
-0.848
-0.841
-0.8275
-0.8115
-0.7995
-0.793
-0.7835
-0.8035
-0.828
-0.818
-0.822
-0.83
-0.8275
-0.831
-0.8245
-0.807
-0.7945
-0.7955
-0.7945
-0.769
-0.762
-0.7805
-0.778
-0.7545
-0.7385
-0.723
-0.688
-0.704
-0.7495
-0.749
-0.739
-0.7345
-0.7255
-0.7055
-0.6935
-0.706
-0.6915
-0.69
-0.733
-0.735
-0.722
-0.7235
-0.7225
-0.713
-0.691
-0.694
-0.709
-0.7325
-0.7435
-0.7515
-0.769
-0.7285
-0.681
-0.666
-0.6525
-0.6415
-0.634
-0.6415
-0.665
-0.66
-0.641
-0.6405
-0.626
-0.624
-0.65
-0.67
-0.67
-0.658
-0.648
-0.6515
-0.668
-0.6685
-0.6555
-0.6635
-0.6745
-0.669
-0.641
-0.6355
-0.657
-0.6425
-0.6295
-0.6225
-0.6285
-0.644
-0.6195
-0.6105
-0.607
-0.6325
-0.671
-0.652
-0.6565
-0.68
-0.665
-0.632
-0.615
-0.6165
-0.6215
-0.6105
-0.5935
-0.6065
-0.632
-0.6075
-0.5895
-0.622
-0.621
-0.625
-0.65
-0.637
-0.6205
-0.613
-0.63
-0.6375
-0.626
-0.65
-0.6685
-0.672
-0.645
-0.603
-0.5905
-0.5905
-0.5885
-0.589
-0.606
-0.635
-0.6345
-0.6265
-0.641
-0.6325
-0.63
-0.626
-0.6095
-0.627
-0.625
-0.6175
-0.622
-0.6195
-0.625
-0.603
-0.6165
-0.6725
-0.6745
-0.664
-0.6715
-0.6855
-0.7015
-0.7075
-0.707
-0.6875
-0.6765
-0.6635
-0.621
-0.6215
-0.608
-0.627
-0.603
-0.572
-0.5515
-0.5215
-0.4885
-0.374
-0.427
0.1635
0.6955
0.602
0.7035
0.716
0.7705
0.82
0.84
0.852
0.8325
0.804
0.7405
0.696
0.6645
0.669
0.6365
0.6125
0.5985
0.565
0.5655
0.6145
0.6405
0.6335
0.6025
0.648
0.621
0.6205
0.6015
0.602
0.6135
-0.079
-0.406
-0.2945
-0.363
-0.334
-0.375
-0.358
-0.3655
-0.3755
-0.392
-0.4045
-0.4185
-0.4465
-0.458
-0.4835
-0.4975
-0.5015
-0.5185
-0.5425
-0.5435
-0.5635
-0.5775
-0.583
-0.6085
-0.607
-0.6125
-0.6275
-0.63
-0.6385
-0.645
-0.64
-0.6425
-0.634
-0.6185
-0.624
-0.623
-0.6285
-0.613
-0.585
-0.607
-0.625
-0.612
-0.6135
-0.6395
-0.6415
-0.6205
-0.6185
-0.6085
-0.6265
-0.6605
-0.664
-0.6715
-0.6745
-0.6795
-0.6885
-0.6815
-0.661
-0.6435
-0.633
-0.642
-0.667
-0.6555
-0.641
-0.647
-0.6545
-0.656
-0.638
-0.628
-0.6345
-0.6485
-0.651
-0.6545
-0.6615
-0.661
-0.658
-0.667
-0.648
-0.6375
-0.6815
-0.697
-0.6835
-0.687
-0.697
-0.6755
-0.6685
-0.6735
-0.667
-0.666
-0.66
-0.6715
-0.6475
-0.6215
-0.6325
-0.624
-0.635
-0.651
-0.656
-0.66
-0.666
-0.6745
-0.679
-0.6835
-0.677
-0.68
-0.673
-0.666
-0.677
-0.67
-0.6775
-0.684
-0.6915
-0.7
-0.6825
-0.696
-0.7075
-0.703
-0.698
-0.6845
-0.677
-0.6775
-0.683
-0.6855
-0.6905
-0.7135
-0.7385
-0.7255
-0.706
-0.709
-0.696
-0.691
-0.716
-0.713
-0.7085
-0.708
-0.689
-0.6685
-0.663
-0.6925
-0.7135
-0.715
-0.7225
-0.734
-0.7275
-0.7195
-0.737
-0.7575
-0.784
-0.779
-0.7585
-0.778
-0.7805
-0.778
-0.763
-0.7465
-0.7625
-0.756
-0.765
-0.7795
-0.783
-0.7875
-0.788
-0.83
-0.86
-0.8585
-0.871
-0.8775
-0.8725
-0.867
-0.8615
-0.8585
-0.8505
-0.8175
-0.8255
-0.862
-0.874
-0.885
-0.888
-0.916
-0.9285
-0.909
-0.8865
-0.8775
-0.8905
-0.9005
-0.8985
-0.8915
-0.907
-0.9275
-0.9295
-0.9145
-0.897
-0.8975
-0.896
-0.8975
-0.9205
-0.935
-0.946
-0.948
-0.938
-0.94
-0.9385
-0.9205
-0.9215
-0.9405
-0.932
-0.914
-0.926
-0.9405
-0.919
-0.8995
-0.9065
-0.913
-0.896
-0.882
-0.9005
-0.8975
-0.8805
-0.8815
-0.872
-0.869
-0.8745
-0.874
-0.8535
-0.825
-0.821
-0.83
-0.839
-0.832
-0.827
-0.836
-0.83
-0.816
-0.807
-0.8035
-0.781
-0.772
-0.7825
-0.7775
-0.7885
-0.788
-0.7715
-0.762
-0.741
-0.7405
-0.7415
-0.74
-0.7515
-0.7475
-0.707
-0.6755
-0.6965
-0.694
-0.6875
-0.6935
-0.6925
-0.687
-0.682
-0.6845
-0.6955
-0.6975
-0.6465
-0.624
-0.6335
-0.637
-0.6425
-0.65
-0.6615
-0.6455
-0.6325
-0.6355
-0.638
-0.639
-0.634
-0.629
-0.632
-0.625
-0.6195
-0.636
-0.635
-0.6335
-0.6355
-0.628
-0.6245
-0.636
-0.637
-0.6145
-0.6025
-0.5945
-0.585
-0.5945
-0.6155
-0.626
-0.624
-0.6205
-0.609
-0.6065
-0.6085
-0.6025
-0.6275
-0.644
-0.6495
-0.6525
-0.6445
-0.6295
-0.617
-0.6075
-0.583
-0.5995
-0.6285
-0.6465
-0.6615
-0.6565
-0.6465
-0.6225
-0.6125
-0.6105
-0.5995
-0.594
-0.586
-0.6055
-0.6235
-0.627
-0.6265
-0.6185
-0.614
-0.6135
-0.6435
-0.6555
-0.6585
-0.652
-0.6265
-0.642
-0.6555
-0.6455
-0.636
-0.6395
-0.645
-0.627
-0.619
-0.618
-0.6065
-0.6005
-0.611
-0.6305
-0.6285
-0.602
-0.5825
-0.5925
-0.6145
-0.6275
-0.635
-0.6355
-0.636
-0.635
-0.63
-0.6355
-0.6275
-0.609
-0.61
-0.6175
-0.633
-0.6355
-0.6165
-0.607
-0.5915
-0.5785
-0.5785
-0.5775
-0.593
-0.6065
-0.6095
-0.628
-0.649
-0.6435
-0.6315
-0.6365
-0.625
-0.608
-0.603
-0.581
-0.601
-0.6355
-0.626
-0.6255
-0.6235
-0.626
-0.6215
-0.617
-0.6185
-0.609
-0.609
-0.6005
-0.608
-0.598
-0.5925
-0.62
-0.6275
-0.6245
-0.62
-0.6185
-0.614
-0.627
-0.624
-0.6185
-0.62
-0.6145
-0.608
-0.594
-0.591
-0.599
-0.598
-0.581
-0.606
-0.615
-0.6165
-0.652
-0.658
-0.642
-0.625
-0.614
-0.602
-0.612
-0.624
-0.614
-0.6055
-0.59
-0.591
-0.625
-0.6315
-0.6215
-0.6185
-0.614
-0.6255
-0.628
-0.619
-0.618
-0.612
-0.601
-0.6115
-0.632
-0.6335
-0.623
-0.612
-0.6245
-0.638
-0.625
-0.617
-0.6005
-0.6025
-0.6245
-0.6185
-0.616
-0.623
-0.629
-0.628
-0.6255
-0.637
-0.64
-0.631
-0.628
-0.619
-0.605
-0.6155
-0.6225
-0.626
-0.6475
-0.658
-0.6435
-0.641
-0.65
-0.645
-0.625
-0.599
-0.5965
-0.604
-0.6235
-0.6325
-0.623
-0.631
-0.625
-0.622
-0.6185
-0.6025
-0.6055
-0.601
-0.6055
-0.616
-0.6295
-0.6355
-0.628
-0.64
-0.6275
-0.6115
-0.607
-0.604
-0.6075
-0.593
-0.611
-0.6415
-0.6375
-0.6385
-0.638
-0.6265
-0.615
-0.616
-0.6355
-0.6465
-0.639
-0.627
-0.6035
-0.5895
-0.6145
-0.63
-0.619
-0.6155
-0.6155
-0.618
-0.6145
-0.6065
-0.5965
-0.5985
-0.618
-0.621
-0.6235
-0.6305
-0.6365
-0.6305
-0.606
-0.5925
-0.5625
-0.5595
-0.591
-0.6005
-0.6075
-0.6145
-0.6225
-0.6145
-0.6025
-0.6185
-0.625
-0.6175
-0.614
-0.611
-0.629
-0.631
-0.6195
-0.627
-0.631
-0.634
-0.6385
-0.6335
-0.6275
-0.6205
-0.613
-0.615
-0.6115
-0.6115
-0.612
-0.618
-0.6325
-0.6375
-0.622
-0.5965
-0.609
-0.616
-0.6065
-0.609
-0.607
-0.603
-0.5915
-0.5805
-0.575
-0.5805
-0.586
-0.597
-0.599
-0.587
-0.592
-0.6035
-0.6005
-0.5995
-0.612
-0.6095
-0.609
-0.599
-0.5865
-0.586
-0.592
-0.607
-0.611
-0.6025
-0.591
-0.586
-0.5645
-0.564
-0.592
-0.597
-0.5925
-0.597
-0.607
-0.607
-0.6095
-0.617
-0.6065
-0.5855
-0.569
-0.569
-0.5645
-0.5585
-0.5505
-0.53
-0.5535
-0.566
-0.558
-0.5665
-0.562
-0.555
-0.5485
-0.5465
-0.533
-0.533
-0.5465
-0.55
-0.5575
-0.556
-0.548
-0.5515
-0.561
-0.572
-0.5555
-0.5475
-0.561
-0.5535
-0.569
-0.563
-0.533
-0.5175
-0.5335
-0.5575
-0.5505
-0.557
-0.5675
-0.571
-0.556
-0.555
-0.563
-0.553
-0.5755
-0.6015
-0.596
-0.596
-0.598
-0.6015
-0.62
-0.617
-0.621
-0.625
-0.5945
-0.594
-0.617
-0.641
-0.6535
-0.6445
-0.6345
-0.6295
-0.627
-0.6215
-0.6215
-0.619
-0.6015
-0.592
-0.607
-0.6275
-0.6505
-0.6655
-0.6605
-0.654
-0.6485
-0.654
-0.6595
-0.651
-0.639
-0.6325
-0.6425
-0.6575
-0.6785
-0.6875
-0.6775
-0.6665
-0.6485
-0.6525
-0.6485
-0.634
-0.6595
-0.684
-0.698
-0.691
-0.6655
-0.649
-0.6515
-0.673
-0.686
-0.6845
-0.681
-0.6725
-0.653
-0.65
-0.664
-0.6815
-0.683
-0.661
-0.653
-0.65
-0.656
-0.658
-0.6645
-0.6695
-0.6295
-0.6175
-0.6215
-0.636
-0.661
-0.656
-0.6545
-0.6465
-0.6265
-0.637
-0.6755
-0.7065
-0.7185
-0.731
-0.749
-0.765
-0.765
-0.733
-0.7275
-0.73
-0.709
-0.71
-0.6995
-0.6515
-0.649
-0.6055
-0.591
-0.524
-0.501
-0.428
-0.413
-0.3455
0.408
0.6905
0.638
0.7585
0.753
0.814
0.831
0.8655
0.8415
0.8345
0.822
0.797
0.7855
0.735
0.7145
0.691
0.6405
0.6085
0.5755
0.58
0.595
0.6
0.574
0.58
0.5745
0.5625
0.5945
0.5305
0.649
0.1635
-0.418
-0.348
-0.4145
-0.415
-0.4225
-0.425
-0.402
-0.404
-0.406
-0.436
-0.4305
-0.4415
-0.4505
-0.489
-0.5205
-0.5305
-0.5375
-0.545
-0.5625
-0.5755
-0.583
-0.588
-0.597
-0.614
-0.6325
-0.624
-0.614
-0.6425
-0.652
-0.6485
-0.6545
-0.6605
-0.661
-0.655
-0.6465
-0.6505
-0.6505
-0.6435
-0.6715
-0.687
-0.6945
-0.697
-0.6795
-0.6605
-0.646
-0.6295
-0.6275
-0.657
-0.66
-0.659
-0.6695
-0.6715
-0.68
-0.688
-0.698
-0.699
-0.6845
-0.686
-0.6845
-0.6615
-0.657
-0.6605
-0.655
-0.6445
-0.6375
-0.629
-0.638
-0.6695
-0.6605
-0.6615
-0.6815
-0.6775
-0.6795
-0.6945
-0.702
-0.6925
-0.6755
-0.65
-0.652
-0.6545
-0.6475
-0.6485
-0.638
-0.653
-0.675
-0.699
-0.719
-0.71
-0.6905
-0.6725
-0.666
-0.671
-0.67
-0.6735
-0.6835
-0.6805
-0.6825
-0.6745
-0.673
-0.7005
-0.709
-0.7035
-0.694
-0.69
-0.6845
-0.663
-0.662
-0.67
-0.6545
-0.6535
-0.673
-0.6975
-0.7125
-0.6945
-0.684
-0.6915
-0.693
-0.6935
-0.7015
-0.708
-0.705
-0.6945
-0.695
-0.698
-0.6835
-0.6635
-0.652
-0.67
-0.6765
-0.6585
-0.641
-0.6505
-0.689
-0.7075
-0.7095
-0.6985
-0.692
-0.701
-0.716
-0.727
-0.7195
-0.7065
-0.7065
-0.6995
-0.711
-0.734
-0.7305
-0.7305
-0.7015
-0.7
-0.722
-0.7245
-0.729
-0.7145
-0.7085
-0.71
-0.7225
-0.726
-0.723
-0.7455
-0.7455
-0.739
-0.7505
-0.741
-0.7335
-0.7555
-0.766
-0.768
-0.779
-0.7775
-0.7795
-0.7825
-0.78
-0.791
-0.7965
-0.8035
-0.8115
-0.805
-0.8215
-0.841
-0.8445
-0.838
-0.8395
-0.8535
-0.8555
-0.8555
-0.845
-0.833
-0.829
-0.833
-0.8285
-0.8385
-0.857
-0.855
-0.863
-0.87
-0.881
-0.9
-0.913
-0.922
-0.9195
-0.9235
-0.9325
-0.898
-0.885
-0.912
-0.919
-0.9235
-0.925
-0.9265
-0.9175
-0.911
-0.92
-0.9255
-0.929
-0.933
-0.9405
-0.952
-0.951
-0.93
-0.9165
-0.899
-0.892
-0.9105
-0.9185
-0.918
-0.916
-0.917
-0.9145
-0.915
-0.923
-0.9315
-0.9265
-0.9125
-0.9095
-0.915
-0.9245
-0.9275
-0.9265
-0.9175
-0.9035
-0.896
-0.8895
-0.8915
-0.89
-0.874
-0.861
-0.8625
-0.8665
-0.8625
-0.8505
-0.8555
-0.8635
-0.848
-0.8285
-0.8095
-0.8065
-0.819
-0.819
-0.8025
-0.8025
-0.808
-0.7995
-0.7895
-0.7835
-0.779
-0.774
-0.779
-0.7585
-0.7415
-0.7495
-0.747
-0.7495
-0.739
-0.722
-0.7155
-0.71
-0.717
-0.7265
-0.7205
-0.7285
-0.7445
-0.7425
-0.734
-0.7025
-0.687
-0.684
-0.6755
-0.6745
-0.6715
-0.6705
-0.679
-0.6635
-0.6465
-0.654
-0.646
-0.646
-0.651
-0.649
-0.656
-0.655
-0.653
-0.664
-0.653
-0.646
-0.6415
-0.6395
-0.6605
-0.6655
-0.6565
-0.6375
-0.6355
-0.6355
-0.632
-0.634
-0.629
-0.6065
-0.6125
-0.6375
-0.627
-0.637
-0.65
-0.649
-0.6385
-0.6235
-0.6175
-0.6225
-0.6405
-0.636
-0.618
-0.6065
-0.6135
-0.632
-0.638
-0.6425
-0.6365
-0.629
-0.638
-0.645
-0.652
-0.652
-0.643
-0.6355
-0.629
-0.6245
-0.614
-0.62
-0.6105
-0.5935
-0.6055
-0.6155
-0.626
-0.6275
-0.6255
-0.622
-0.623
-0.6225
-0.6145
-0.6155
-0.612
-0.6145
-0.6025
-0.5815
-0.589
-0.593
-0.599
-0.604
-0.6055
-0.5965
-0.589
-0.605
-0.6095
-0.6095
-0.607
-0.605
-0.618
-0.6255
-0.6265
-0.634
-0.627
-0.6065
-0.591
-0.594
-0.603
-0.6125
-0.6095
-0.6125
-0.638
-0.634
-0.6255
-0.6225
-0.6115
-0.599
-0.5885
-0.5885
-0.588
-0.588
-0.5865
-0.589
-0.5885
-0.5845
-0.585
-0.5925
-0.598
-0.59
-0.583
-0.5795
-0.5795
-0.58
-0.5805
-0.575
-0.562
-0.5525
-0.552
-0.5615
-0.56
-0.5555
-0.5555
-0.5525
-0.5485
-0.538
-0.5445
-0.5425
-0.5575
-0.584
-0.5655
-0.553
-0.5425
-0.533
-0.5325
-0.546
-0.557
-0.5575
-0.5685
-0.561
-0.547
-0.5405
-0.54
-0.5375
-0.5385
-0.55
-0.5555
-0.562
-0.5605
-0.557
-0.5575
-0.555
-0.5725
-0.5775
-0.5745
-0.5785
-0.585
-0.5935
-0.5875
-0.599
-0.6105
-0.6065
-0.6105
-0.617
-0.616
-0.615
-0.6245
-0.6345
-0.6345
-0.645
-0.6615
-0.6615
-0.6625
-0.6675
-0.677
-0.667
-0.6365
-0.628
-0.643
-0.646
-0.638
-0.634
-0.6315
-0.6465
-0.6535
-0.645
-0.647
-0.661
-0.6725
-0.6665
-0.653
-0.642
-0.6385
-0.6395
-0.645
-0.6515
-0.651
-0.656
-0.6635
-0.6625
-0.676
-0.696
-0.694
-0.6895
-0.6935
-0.6875
-0.6755
-0.6645
-0.66
-0.6485
-0.6425
-0.6345
-0.611
-0.626
-0.635
-0.6345
-0.66
-0.664
-0.6515
-0.647
-0.654
-0.6665
-0.667
-0.6575
-0.6615
-0.6685
-0.6615
-0.662
-0.6775
-0.6645
-0.6575
-0.667
-0.6585
-0.661
-0.673
-0.6685
-0.658
-0.652
-0.647
-0.6725
-0.6825
-0.6745
-0.6775
-0.6765
-0.6865
-0.684
-0.683
-0.685
-0.677
-0.6815
-0.685
-0.684
-0.707
-0.738
-0.759
-0.7695
-0.764
-0.774
-0.773
-0.7465
-0.7295
-0.743
-0.74
-0.7265
-0.705
-0.649
-0.6305
-0.603
-0.5985
-0.512
-0.517
-0.4355
-0.4265
-0.286
0.479
0.6995
0.69
0.8
0.8135
0.89
0.8905
0.9275
0.916
0.888
0.8525
0.8105
0.772
0.7435
0.7215
0.693
0.647
0.6235
0.6085
0.6235
0.6265
0.6235
0.6415
0.6685
0.687
0.6615
0.677
0.5985
0.703
0.252
-0.375
-0.3005
-0.346
-0.351
-0.348
-0.3665
-0.363
-0.3895
-0.3925
-0.4085
-0.392
-0.403
-0.421
-0.4505
-0.4845
-0.5125
-0.529
-0.5475
-0.561
-0.5865
-0.604
-0.6195
-0.632
-0.6345
-0.6435
-0.64
-0.6345
-0.623
-0.6075
-0.6085
-0.6185
-0.6275
-0.642
-0.6625
-0.6625
-0.6615
-0.658
-0.648
-0.655
-0.657
-0.656
-0.6565
-0.6535
-0.65
-0.6555
-0.6725
-0.681
-0.6795
-0.678
-0.671
-0.673
-0.6715
-0.675
-0.6825
-0.664
-0.6495
-0.6445
-0.6505
-0.6615
-0.6705
-0.6735
-0.6735
-0.673
-0.665
-0.6645
-0.6715
-0.663
-0.643
-0.642
-0.6435
-0.651
-0.6695
-0.672
-0.666
-0.668
-0.6615
-0.6565
-0.666
-0.654
-0.648
-0.6405
-0.641
-0.651
-0.649
-0.6535
-0.65
-0.6445
-0.647
-0.656
-0.6585
-0.6635
-0.6545
-0.6415
-0.6405
-0.6355
-0.6455
-0.651
-0.65
-0.655
-0.669
-0.671
-0.6545
-0.6455
-0.6445
-0.642
-0.6415
-0.6455
-0.648
-0.6375
-0.639
-0.666
-0.662
-0.6545
-0.6575
-0.653
-0.6645
-0.6775
-0.68
-0.6715
-0.6615
-0.659
-0.6635
-0.674
-0.678
-0.6775
-0.682
-0.6815
-0.671
-0.675
-0.6745
-0.6725
-0.669
-0.657
-0.6655
-0.673
-0.673
-0.6665
-0.685
-0.7085
-0.6995
-0.6905
-0.6945
-0.705
-0.699
-0.6975
-0.715
-0.7185
-0.7165
-0.716
-0.7225
-0.728
-0.7345
-0.7415
-0.742
-0.747
-0.7385
-0.7425
-0.758
-0.7685
-0.7845
-0.7905
-0.7945
-0.7925
-0.7935
-0.8
-0.801
-0.8005
-0.8055
-0.8115
-0.814
-0.8265
-0.833
-0.838
-0.8295
-0.817
-0.826
-0.8275
-0.8215
-0.835
-0.8535
-0.8485
-0.854
-0.8775
-0.8885
-0.8785
-0.8655
-0.871
-0.887
-0.9085
-0.928
-0.943
-0.948
-0.9455
-0.9435
-0.932
-0.9145
-0.9165
-0.9415
-0.954
-0.9535
-0.9525
-0.9325
-0.9325
-0.9495
-0.956
-0.9665
-0.97
-0.9745
-0.9675
-0.9645
-0.983
-0.9745
-0.963
-0.977
-0.9755
-0.9545
-0.9615
-0.9725
-0.96
-0.977
-0.991
-0.9755
-0.967
-0.9685
-0.968
-0.958
-0.947
-0.931
-0.941
-0.9455
-0.935
-0.939
-0.9275
-0.922
-0.928
-0.9335
-0.934
-0.917
-0.8995
-0.891
-0.8865
-0.888
-0.8855
-0.878
-0.8675
-0.845
-0.8355
-0.84
-0.838
-0.8385
-0.817
-0.787
-0.7795
-0.7715
-0.762
-0.7635
-0.7625
-0.7535
-0.7545
-0.754
-0.757
-0.768
-0.777
-0.779
-0.777
-0.7695
-0.738
-0.7095
-0.7035
-0.702
-0.7055
-0.704
-0.7
-0.702
-0.7025
-0.6865
-0.6685
-0.669
-0.6755
-0.673
-0.659
-0.644
-0.627
-0.618
-0.6285
-0.6465
-0.657
-0.6625
-0.6605
-0.6545
-0.6515
-0.6365
-0.6395
-0.647
-0.632
-0.6195
-0.6055
-0.596
-0.6055
-0.6135
-0.603
-0.592
-0.5845
-0.585
-0.594
-0.6035
-0.6015
-0.6025
-0.617
-0.629
-0.634
-0.6255
-0.612
-0.6
-0.603
-0.6095
-0.587
-0.5735
-0.5935
-0.5895
-0.574
-0.5795
-0.592
-0.578
-0.5745
-0.615
-0.624
-0.611
-0.61
-0.6085
-0.602
-0.5995
-0.606
-0.605
-0.6105
-0.613
-0.613
-0.625
-0.6225
-0.607
-0.6045
-0.603
-0.588
-0.5865
-0.584
-0.5795
-0.591
-0.594
-0.5875
-0.587
-0.5955
-0.6075
-0.6005
-0.5865
-0.59
-0.585
-0.58
-0.5705
-0.5585
-0.554
-0.5585
-0.5635
-0.5565
-0.559
-0.5655
-0.569
-0.5635
-0.5735
-0.579
-0.5675
-0.567
-0.5705
-0.573
-0.5815
-0.5675
-0.546
-0.562
-0.5525
-0.5415
-0.5545
-0.5575
-0.56
-0.5565
-0.562
-0.5615
-0.554
-0.5555
-0.552
-0.556
-0.5475
-0.5275
-0.5095
-0.5055
-0.5225
-0.5095
-0.49
-0.474
-0.4865
-0.5075
-0.496
-0.5005
-0.4975
-0.493
-0.4755
-0.4615
-0.486
-0.4835
-0.478
-0.4905
-0.495
-0.505
-0.515
-0.5125
-0.5115
-0.5115
-0.5055
-0.504
-0.514
-0.5195
-0.517
-0.512
-0.518
-0.527
-0.5225
-0.536
-0.542
-0.539
-0.534
-0.523
-0.5235
-0.5285
-0.5465
-0.557
-0.5645
-0.5835
-0.5925
-0.5905
-0.585
-0.5715
-0.5675
-0.579
-0.5935
