ECG
0.3365
0.3325
0.328
0.329
0.3375
0.339
0.337
0.332
0.3325
0.3325
0.3325
0.333
0.3305
0.334
0.3315
0.328
0.331
0.332
0.328
0.321
0.325
0.333
0.33
0.3265
0.326
0.329
0.3315
0.33
0.3255
0.3255
0.328
0.331
0.3315
0.3265
0.328
0.33
0.329
0.3305
0.324
0.322
0.3275
0.3315
0.3325
0.329
0.324
0.3235
0.3295
0.3305
0.323
0.3225
0.332
0.329
0.32
0.3245
0.3245
0.3225
0.3245
0.328
0.3255
0.32
0.3275
0.3335
0.328
0.3235
0.3235
0.3225
0.323
0.326
0.327
0.322
0.3205
0.325
0.326
0.326
0.3275
0.325
0.3205
0.3205
0.321
0.319
0.32
0.321
0.321
0.3235
0.3265
0.325
0.326
0.331
0.3315
0.3285
0.3245
0.322
0.322
0.3175
0.3165
0.3205
0.3225
0.3235
0.3235
0.3255
0.323
0.322
0.3225
0.325
0.328
0.323
0.315
0.3165
0.328
0.332
0.3305
0.3275
0.326
0.3285
0.3245
0.325
0.322
0.317
0.3155
0.3175
0.3235
0.3245
0.318
0.311
0.3205
0.333
0.3315
0.326
0.3205
0.322
0.326
0.3225
0.327
0.329
0.3235
0.324
0.319
0.3195
0.3245
0.3215
0.328
0.327
0.32
0.32
0.3225
0.3245
0.328
0.329
0.3235
0.323
0.3185
0.316
0.3175
0.3225
0.328
0.3195
0.3135
0.318
0.3205
0.324
0.3245
0.3235
0.328
0.3275
0.325
0.318
0.317
0.32
0.319
0.322
0.3235
0.3265
0.326
0.322
0.321
0.3205
0.3245
0.329
0.327
0.325
0.327
0.328
0.325
0.323
0.324
0.323
0.328
0.325
0.317
0.323
0.327
0.325
0.321
0.314
0.315
0.322
0.3235
0.3225
0.32
0.3205
0.319
0.315
0.3185
0.322
0.323
0.32
0.3205
0.322
0.3175
0.3145
0.3155
0.3195
0.321
0.3215
0.3225
0.318
0.3195
0.3245
0.3235
0.3245
0.3245
0.3235
0.327
0.327
0.3215
0.3265
0.334
0.3295
0.3315
0.334
0.332
0.332
0.335
0.3375
0.335
0.3295
0.3275
0.3335
0.3275
0.328
0.341
0.3425
0.3465
0.3555
0.363
0.3605
0.355
0.3515
0.354
0.3595
0.362
0.36
0.356
0.3575
0.359
0.364
0.3615
0.3565
0.3545
0.355
0.3615
0.358
0.357
0.355
0.3475
0.35
0.3545
0.3625
0.3685
0.3715
0.373
0.3745
0.382
0.3925
0.3915
0.385
0.386
0.388
0.392
0.3905
0.391
0.3965
0.394
0.391
0.3875
0.3815
0.3825
0.3835
0.3775
0.373
0.3685
0.3635
0.367
0.373
0.373
0.373
0.375
0.3735
0.3755
0.375
0.3725
0.3745
0.3735
0.38
0.384
0.378
0.375
0.374
0.3695
0.3675
0.364
0.3545
0.3505
0.343
0.333
0.327
0.325
0.325
0.3235
0.32
0.3145
0.3135
0.312
0.3085
0.305
0.304
0.308
0.3045
0.3015
0.3085
0.311
0.3125
0.313
0.308
0.308
0.309
0.3055
0.3035
0.304
0.3025
0.3005
0.2975
0.298
0.3
0.2985
0.296
0.2925
0.2925
0.294
0.2955
0.3005
0.3005
0.3015
0.3025
0.2995
0.3005
0.301
0.2965
0.296
0.2975
0.298
0.296
0.295
0.2995
0.2955
0.2875
0.2885
0.294
0.2965
0.296
0.298
0.2995
0.2995
0.296
0.289
0.2885
0.2865
0.2845
0.287
0.2875
0.2885
0.2915
0.296
0.293
0.291
0.2915
0.291
0.291
0.2885
0.2875
0.286
0.284
0.2825
0.2785
0.2775
0.276
0.2665
0.2595
0.26
0.257
0.2575
0.2625
0.2585
0.2535
0.25
0.245
0.2485
0.256
0.2525
0.2595
0.2745
0.2905
0.312
0.337
0.3655
0.392
0.4325
0.4765
0.512
0.548
0.5835
0.62
0.6525
0.687
0.7285
0.7625
0.7985
0.8405
0.8715
0.895
0.9175
0.9305
0.9395
0.952
0.952
0.947
0.942
0.937
0.933
0.9235
0.9195
0.9205
0.91
0.8785
0.833
0.777
0.7135
0.6485
0.5785
0.522
0.469
0.4015
0.346
0.301
0.251
0.2155
0.1965
0.175
0.1485
0.1335
0.137
0.1395
0.138
0.14
0.147
0.154
0.1605
0.172
0.183
0.1925
0.2045
0.217
0.231
0.249
0.263
0.2705
0.279
0.2865
0.2935
0.298
0.2995
0.3005
0.304
0.3095
0.3115
0.313
0.3195
0.321
0.318
0.319
0.319
0.321
0.3205
0.3215
0.3205
0.318
0.321
0.321
0.328
0.328
0.323
0.3275
0.324
0.322
0.3295
0.335
0.33
0.3245
0.3285
0.3295
0.331
0.334
0.3385
0.341
0.3425
0.343
0.338
0.337
0.334
0.3325
0.3265
0.3295
0.343
0.347
0.3505
0.3545
0.356
0.35
0.343
0.342
0.3495
0.3565
0.353
0.3545
0.3555
0.356
0.3545
0.3555
0.3565
0.353
0.3545
0.354
0.3585
0.3625
0.359
0.359
0.361
0.3535
0.3545
0.3585
0.355
0.3505
0.3515
0.361
0.3695
0.3715
0.3675
0.369
0.3685
0.3645
0.367
0.368
0.367
0.377
0.3805
0.3705
0.3665
0.3725
0.3795
0.3765
0.376
0.3745
0.3695
0.378
0.383
0.378
0.3775
0.38
0.383
0.3845
0.3825
0.3845
0.3905
0.386
0.381
0.3855
0.39
0.3915
0.3935
0.3935
0.394
0.394
0.394
0.396
0.3955
0.397
0.398
0.4
0.399
0.397
0.4025
0.407
0.404
0.4035
0.406
0.408
0.4125
0.41
0.4065
0.411
0.4155
0.414
0.4135
0.417
0.4215
0.423
0.4235
0.423
0.421
0.4255
0.4285
0.4365
0.439
0.439
0.443
0.442
0.441
0.4415
0.439
0.435
0.4335
0.444
0.4595
0.4585
0.4525
0.4525
0.458
0.46
0.4625
0.469
0.4715
0.471
0.473
0.4795
0.4755
0.476
0.483
0.4855
0.485
0.486
0.4895
0.4885
0.4935
0.499
0.5045
0.507
0.5035
0.5125
0.5175
0.516
0.5155
0.521
0.5265
0.5305
0.5375
0.54
0.541
0.5425
0.549
0.5495
0.5535
0.5615
0.564
0.569
0.5725
0.577
0.5775
0.5795
0.583
0.5865
0.59
0.5915
0.593
0.6025
0.6095
0.607
0.61
0.6145
0.618
0.6235
0.6275
0.632
0.6335
0.6355
0.6405
0.639
0.637
0.6435
0.646
0.6495
0.6535
0.6625
0.667
0.662
0.6615
0.666
0.6665
0.6655
0.6675
0.669
0.6735
0.675
0.673
0.6745
0.6755
0.678
0.679
0.6745
0.678
0.687
0.6865
0.679
0.6745
0.6685
0.6675
0.676
0.6785
0.6735
0.667
0.661
0.662
0.6605
0.6495
0.646
0.6465
0.6475
0.6445
0.6385
0.633
0.621
0.616
0.61
0.602
0.605
0.6025
0.593
0.579
0.5705
0.564
0.557
0.554
0.5455
0.54
0.5315
0.524
0.5175
0.509
0.5055
0.5005
0.493
0.4765
0.466
0.471
0.469
0.4635
0.4595
0.4495
0.444
0.4415
0.4335
0.429
0.431
0.4265
0.4165
0.4045
0.3975
0.3985
0.3955
0.3905
0.391
0.3895
0.3875
0.3855
0.3825
0.381
0.3755
0.372
0.3685
0.364
0.3665
0.367
0.3625
0.3615
0.359
0.352
0.3505
0.3475
0.3495
0.352
0.35
0.349
0.346
0.341
0.346
0.349
0.345
0.347
0.3455
0.3395
0.339
0.344
0.343
0.345
0.3455
0.337
0.3375
0.3365
0.335
0.339
0.3425
0.3445
0.3395
0.3365
0.3325
0.3235
0.327
0.339
0.342
0.338
0.3385
0.3365
0.3375
0.3345
0.3275
0.335
0.3395
0.3395
0.341
0.3405
0.342
0.341
0.339
0.3375
0.335
0.331
0.333
0.343
0.339
0.336
0.334
0.326
0.3295
0.3335
0.341
0.342
0.338
0.3405
0.341
0.344
0.3465
0.344
0.3405
0.3385
0.337
0.338
0.339
0.3355
0.3345
0.3355
0.3355
0.336
0.337
0.3405
0.341
0.3405
0.34
0.337
0.335
0.333
0.333
0.333
0.33
0.333
0.3365
0.335
0.3355
0.336
0.3375
0.3365
0.3305
0.33
0.3335
0.336
0.336
0.333
0.3325
0.3355
0.338
0.339
0.339
0.336
0.3355
0.3365
0.338
0.332
0.3305
0.3405
0.3405
0.339
0.3405
0.3415
0.3415
0.3405
0.3395
0.338
0.337
0.333
0.335
0.3425
0.3445
0.3445
0.34
0.341
0.3415
0.339
0.339
0.3415
0.3385
0.3365
0.3365
0.329
0.334
0.3345
0.3345
0.342
0.339
0.341
0.34
0.3395
0.336
0.334
0.3385
0.3395
0.34
0.3375
0.338
0.3285
0.326
0.3395
0.346
0.3425
0.338
0.3385
0.339
0.3325
0.335
0.34
0.333
0.3355
0.341
0.3415
0.3435
0.342
0.338
0.3345
0.3375
0.3405
0.3355
0.334
0.3345
0.3325
0.3335
0.3365
0.336
0.333
0.3345
0.3365
0.3355
0.3355
0.3355
0.337
0.3355
0.3335
0.332
0.3295
0.3295
0.3285
0.3325
0.333
0.326
0.326
0.3275
0.3305
0.3315
0.3345
0.3365
0.335
0.335
0.331
0.3315
0.331
0.3275
0.324
0.3305
0.335
0.3275
0.324
0.3225
0.329
0.3315
0.329
0.3295
0.332
0.329
0.3275
0.327
0.32
0.3175
0.3255
0.331
0.3265
0.327
0.3295
0.329
0.3275
0.3285
0.3285
0.3275
0.33
0.3275
0.3235
0.321
0.32
0.32
0.3225
0.324
0.327
0.3295
0.3285
0.329
0.3295
0.326
0.326
0.324
0.322
0.329
0.3295
0.3275
0.3305
0.3285
0.3295
0.326
0.3225
0.326
0.3215
0.318
0.3165
0.326
0.331
0.3215
0.32
0.324
0.3305
0.3275
0.3255
0.3285
0.3205
0.32
0.322
0.327
0.3285
0.3225
0.326
0.3295
0.3255
0.3245
0.3235
0.3235
0.325
0.3255
0.3255
0.3215
0.3225
0.3235
0.3245
0.3245
0.3195
0.3185
0.32
0.3205
0.3215
0.3225
0.3225
0.3235
0.324
0.3225
0.319
0.3185
0.318
0.3175
0.3215
0.3165
0.316
0.326
0.3265
0.32
0.3185
0.3235
0.322
0.32
0.3175
0.318
0.321
0.3195
0.3155
0.3135
0.3245
0.3275
0.3235
0.324
0.3235
0.325
0.324
0.3235
0.3215
0.319
0.3185
0.3165
0.3225
0.3295
0.328
0.3255
0.3235
0.322
0.322
0.3225
0.323
0.322
0.3185
0.31
0.3105
0.3185
0.3225
0.3215
0.3185
0.318
0.322
0.324
0.3235
0.3275
0.326
0.322
0.3195
0.32
0.3195
0.3165
0.317
0.323
0.322
0.3185
0.3195
0.319
0.3195
0.323
0.3215
0.312
0.31
0.3155
0.3235
0.3265
0.32
0.311
0.3125
0.3195
0.32
0.318
0.319
0.3205
0.318
0.3135
0.316
0.3185
0.3165
0.3215
0.3225
0.3255
0.321
0.3135
0.3155
0.3205
0.3245
0.3215
0.3205
0.318
0.316
0.3185
0.3195
0.318
0.319
0.32
0.3185
0.32
0.319
0.319
0.322
0.32
0.3195
0.3195
0.3165
0.3185
0.32
0.32
0.3215
0.322
0.3225
0.3195
0.318
0.318
0.3185
0.32
0.3175
0.317
0.3135
0.312
0.3205
0.323
0.3225
0.3225
0.3265
0.332
0.329
0.331
0.3305
0.331
0.3305
0.328
0.332
0.3325
0.335
0.3365
0.335
0.3415
0.3475
0.3475
0.3465
0.352
0.3555
0.356
0.357
0.358
0.361
0.3605
0.358
0.3595
0.364
0.364
0.361
0.36
0.36
0.356
0.3515
0.3535
0.3575
0.357
0.358
0.3615
0.3635
0.3615
0.366
0.3745
0.377
0.381
0.382
0.386
0.386
0.386
0.382
0.379
0.3915
0.396
0.394
0.393
0.388
0.3865
0.3905
0.3935
0.3925
0.386
0.3785
0.3745
0.366
0.365
0.377
0.3725
0.3675
0.3735
0.3725
0.376
0.38
0.38
0.3745
0.3705
0.375
0.3805
0.381
0.376
0.3735
0.367
0.3645
0.3645
0.365
0.365
0.35
0.3375
0.3345
0.3365
0.3325
0.3265
0.324
0.322
0.3165
0.311
0.3095
0.308
0.3095
0.301
0.299
0.303
0.2995
0.3025
0.3045
0.3025
0.2975
0.3005
0.3025
0.294
0.2965
0.3035
0.3065
0.305
0.3025
0.296
0.294
0.2955
0.29
0.289
0.2955
0.3005
0.2985
0.297
0.2935
0.2895
0.2885
0.2895
0.2925
0.293
0.2975
0.2955
0.2925
0.2965
0.293
0.292
0.2865
0.2845
0.289
0.29
0.2925
0.293
0.2915
0.288
0.2915
0.2925
0.288
0.287
0.29
0.2925
0.2875
0.2875
0.287
0.2865
0.2885
0.2885
0.2865
0.286
0.2895
0.2865
0.2825
0.2825
0.287
0.284
0.2785
0.2725
0.269
0.2645
0.2635
0.269
0.262
0.259
0.255
0.251
0.2535
0.251
0.2485
0.2495
0.248
0.242
0.2485
0.257
0.2615
0.271
0.2775
0.302
0.329
0.352
0.384
0.414
0.4515
0.492
0.528
0.5665
0.611
0.654
0.686
0.717
0.757
0.7995
0.8395
0.8825
0.919
0.9385
0.9585
0.9735
0.977
0.984
0.9795
0.968
0.9645
0.965
0.9655
0.963
0.956
0.9475
0.926
0.884
0.829
0.769
0.7065
0.635
0.5635
0.507
0.448
0.3755
0.3175
0.2755
0.2275
0.1935
0.174
0.1465
0.1235
0.1195
0.1255
0.128
0.1315
0.133
0.1415
0.152
0.158
0.1715
0.1835
0.1985
0.209
0.2115
0.2305
0.248
0.258
0.2715
0.2795
0.2835
0.29
0.299
0.3025
0.3045
0.305
0.3065
0.31
0.3105
0.319
0.3225
0.3215
0.321
0.3185
0.3185
0.316
0.3165
0.321
0.3225
0.322
0.32
0.3205
0.327
0.328
0.327
0.332
0.3345
0.337
0.337
0.335
0.333
0.333
0.3355
0.3365
0.336
0.3315
0.3315
0.3335
0.331
0.3235
0.329
0.3505
0.355
0.352
0.3515
0.3485
0.3435
0.3435
0.345
0.3495
0.355
0.352
0.3505
0.352
0.354
0.355
0.3515
0.349
0.351
0.3545
0.359
0.361
0.3605
0.3575
0.3535
0.358
0.3595
0.3595
0.3615
0.356
0.3565
0.367
0.3705
0.371
0.367
0.365
0.3695
0.368
0.367
0.3695
0.372
0.3715
0.3685
0.3695
0.3765
0.3755
0.371
0.37
0.3735
0.3785
0.376
0.376
0.379
0.379
0.383
0.388
0.388
0.3845
0.3815
0.388
0.3915
0.386
0.3855
0.3865
0.388
0.3845
0.3795
0.387
0.3985
0.3995
0.392
0.3905
0.3975
0.4005
0.399
0.3955
0.3935
0.398
0.401
0.4025
0.403
0.4065
0.41
0.4105
0.4105
0.409
0.41
0.412
0.411
0.415
0.4155
0.4115
0.4095
0.413
0.4185
0.4195
0.4245
0.4275
0.427
0.4315
0.436
0.434
0.431
0.4355
0.442
0.4405
0.4405
0.447
0.4455
0.446
0.444
0.4445
0.449
0.4545
0.4605
0.46
0.4615
0.4595
0.458
0.462
0.467
0.468
0.4715
0.4735
0.477
0.4835
0.4845
0.4815
0.4775
0.4785
0.482
0.4885
0.495
0.4995
0.4985
0.495
0.4995
0.507
0.5145
0.518
0.5235
0.529
0.5285
0.5295
0.5325
0.5355
0.538
0.54
0.542
0.546
0.5555
0.559
0.559
0.5645
0.568
0.5705
0.5725
0.576
0.5815
0.578
0.575
0.586
0.597
0.5995
0.595
0.5985
0.6115
0.615
0.6155
0.616
0.618
0.6185
0.6175
0.627
0.6325
0.637
0.648
0.654
0.6555
0.6595
0.66
0.657
0.6615
0.663
0.6605
0.663
0.665
0.666
0.67
0.672
0.666
0.673
0.6855
0.6865
0.6875
0.6845
0.687
0.6905
0.6835
0.6805
0.6855
0.69
0.688
0.688
0.6855
0.6875
0.6895
0.6855
0.685
0.6845
0.68
0.6765
0.678
0.6685
0.6625
0.6585
0.6475
0.6495
0.651
0.646
0.6385
0.6315
0.63
0.6245
0.616
0.608
0.599
0.5895
0.5835
0.5775
0.571
0.566
0.554
0.547
0.5405
0.534
0.5325
0.5265
0.518
0.509
0.503
0.497
0.489
0.4825
0.475
0.4615
0.452
0.4555
0.456
0.4505
0.4465
0.4385
0.4305
0.4265
0.422
0.4145
0.4095
0.4045
0.397
0.39
0.3865
0.389
0.3885
0.386
0.3795
0.377
0.3795
0.375
0.3715
0.3715
0.366
0.3625
0.361
0.3605
0.361
0.358
0.3595
0.356
0.3575
0.356
0.348
0.3525
0.3495
0.35
0.35
0.3425
0.3445
0.34
0.3335
0.3385
0.3385
0.3385
0.344
0.3385
0.3355
0.3365
0.3405
0.34
0.3345
0.337
0.334
0.3335
0.332
0.3295
0.3345
0.337
0.3365
0.3345
0.336
0.3415
0.338
0.3355
0.339
0.3385
0.3415
0.343
0.341
0.3385
0.3355
0.3355
0.333
0.332
0.3315
0.3255
0.327
0.3355
0.3335
0.3235
0.323
0.3295
0.3315
0.3285
0.331
0.334
0.3335
0.334
0.3325
0.3305
0.328
0.33
0.3305
0.325
0.327
0.331
0.332
0.335
0.336
0.331
0.3285
0.327
0.325
0.334
0.332
0.33
0.336
0.334
0.334
0.33
0.326
0.328
0.329
0.3295
0.33
0.3315
0.3315
0.328
0.33
0.3335
0.336
0.3315
0.327
0.3295
0.3315
0.334
0.3305
0.33
0.3345
0.3315
0.3285
0.3325
0.334
0.334
0.3315
0.329
0.331
0.3315
0.332
0.329
0.327
0.333
0.3405
0.339
0.333
0.3315
0.332
0.332
0.3305
0.3295
0.3295
0.3315
0.334
0.3365
0.3385
0.339
0.3375
0.3395
0.3405
0.336
0.3315
0.3295
0.3315
0.336
0.34
0.3345
0.3335
0.339
0.34
0.336
0.331
0.3355
0.3375
0.334
0.3345
0.3405
0.3425
0.3365
0.3355
0.3365
0.338
0.3395
0.336
0.334
0.334
0.333
0.3335
0.338
0.3395
0.3375
0.3375
0.3345
0.337
0.343
0.34
0.3355
0.336
0.3355
0.3345
0.3335
0.3235
0.324
0.333
0.3325
0.3385
0.3405
0.3365
0.336
0.334
0.33
0.3275
0.3275
0.328
0.329
0.3225
0.32
0.332
0.34
0.339
0.3325
0.332
0.3335
0.329
0.33
0.333
0.333
0.3325
0.332
0.3295
0.3295
0.333
0.3315
0.3275
0.324
0.3265
0.334
0.335
0.329
0.327
0.3295
0.329
0.326
0.3265
0.33
0.33
0.327
0.3285
0.329
0.3285
0.326
0.326
0.3295
0.3285
0.324
0.3245
0.326
0.3245
0.319
0.325
0.3305
0.317
0.3215
0.332
0.33
0.328
0.326
0.324
0.32
0.32
0.325
0.331
0.3305
0.3265
0.327
0.3245
0.324
0.3265
0.323
0.3225
0.322
0.319
0.317
0.317
0.322
0.3275
0.328
0.3215
0.3185
0.3205
0.325
0.3275
0.327
0.3245
0.317
0.315
0.3185
0.319
0.319
0.318
0.32
0.321
0.32
0.3205
0.3175
0.316
0.32
0.321
0.3185
0.3185
0.3165
0.319
0.322
0.321
0.32
0.3225
0.3215
0.318
0.316
0.3205
0.3255
0.3145
0.3075
0.316
0.3215
0.3185
0.319
0.3205
0.3195
0.318
0.318
0.316
0.314
0.3185
0.3215
0.3215
0.32
0.3215
0.3235
0.3205
0.3185
0.318
0.3165
0.313
0.3115
0.3165
0.315
0.307
0.3095
0.322
0.3275
0.322
0.3175
0.3165
0.316
0.3175
0.313
0.3115
0.319
0.316
0.3115
0.3115
0.3175
0.322
0.3195
0.3215
0.3225
0.323
0.3215
0.317
0.319
0.318
0.3145
0.3145
0.311
0.306
0.306
0.315
0.3205
0.317
0.315
0.314
0.3195
0.322
0.3155
0.321
0.32
0.316
0.3165
0.3155
0.3155
0.3145
0.3165
0.3175
0.32
0.319
0.3185
0.316
0.314
0.317
0.314
0.312
0.3105
0.3095
0.312
0.3105
0.3045
0.305
0.3125
0.317
0.317
0.315
0.309
0.315
0.3195
0.313
0.315
0.3125
0.311
0.312
0.313
0.316
0.3165
0.3165
0.3175
0.3155
0.3135
0.313
0.314
0.312
0.314
0.316
0.314
0.3125
0.3085
0.31
0.3105
0.3115
0.313
0.313
0.315
0.315
0.313
0.311
0.3115
0.3065
0.3005
0.3025
0.3165
0.317
0.307
0.311
0.312
0.309
0.3075
0.309
0.312
0.312
0.3075
0.3075
0.314
0.316
0.3125
0.3115
0.3085
0.3075
0.3085
0.3015
0.3005
0.309
0.315
0.313
0.313
0.3125
0.3125
0.315
0.313
0.316
0.3125
0.312
0.318
0.312
0.307
0.3105
0.317
0.32
0.319
0.32
0.321
0.3235
0.326
0.325
0.325
0.322
0.3195
0.321
0.3245
0.332
0.339
0.338
0.3345
0.3365
0.339
0.3415
0.345
0.3465
0.347
0.348
0.3495
0.351
0.3505
0.3495
0.3485
0.3445
0.3445
0.343
0.3465
0.3535
0.351
0.347
0.346
0.3515
0.361
0.3615
0.3595
0.3625
0.363
0.364
0.3725
0.379
0.377
0.373
0.3755
0.3735
0.37
0.3775
0.384
0.3845
0.3805
0.3825
0.388
0.386
0.3815
0.373
0.362
0.356
0.358
0.357
0.353
0.356
0.3585
0.3585
0.3645
0.365
0.366
0.3715
0.3685
0.364
0.364
0.365
0.3675
0.3665
0.364
0.363
0.361
0.357
0.3515
0.347
0.343
0.3365
0.33
0.324
0.3195
0.3185
0.3145
0.3075
0.293
0.289
0.294
0.293
0.2925
0.2895
0.285
0.2815
0.2845
0.289
0.29
0.2865
0.2825
0.283
0.2905
0.2945
0.2895
0.291
0.293
0.291
0.2855
0.2785
0.2785
0.2855
0.2905
0.2875
0.2875
0.2865
0.2865
0.2835
0.2825
0.28
0.273
0.281
0.284
0.2825
0.2875
0.2895
0.2875
0.2835
0.2805
0.2745
0.275
0.281
0.284
0.2825
0.277
0.2735
0.275
0.274
0.276
0.28
0.28
0.279
0.277
0.282
0.2755
0.2705
0.2785
0.2765
0.277
0.274
0.269
0.276
0.28
0.278
0.2765
0.2715
0.2725
0.276
0.2755
0.276
0.2665
0.264
0.265
0.263
0.2635
0.259
0.2565
0.248
0.2445
0.2505
0.2445
0.241
0.2405
0.2385
0.2395
0.243
0.248
0.246
0.252
0.2745
0.2965
0.3145
0.345
0.377
0.411
0.4535
0.4895
0.5285
0.5655
0.603
0.648
0.6865
0.726
0.7665
0.8045
0.846
0.8845
0.9115
0.9295
0.9475
0.959
0.971
0.979
0.9745
0.9625
0.952
0.952
0.951
0.9485
0.9445
0.9315
0.9035
0.859
0.803
0.7425
0.672
0.6
0.5335
0.48
0.4175
0.3475
0.3015
0.256
0.21
0.181
0.1585
0.1325
0.112
0.1095
0.1175
0.1175
0.119
0.1235
0.126
0.136
0.152
0.1625
0.177
0.189
0.195
0.2095
0.221
0.2395
0.258
0.262
0.262
0.265
0.276
0.2855
0.294
0.302
0.301
0.297
0.297
0.3045
0.309
0.3065
0.3105
0.3125
0.3095
0.3075
0.3075
0.312
0.316
0.315
0.313
0.311
0.3115
0.3175
0.321
0.3165
0.313
0.3195
0.3245
0.3185
0.314
0.316
0.326
0.3295
0.323
0.323
0.3215
0.3205
0.3245
0.329
0.3355
0.3345
0.3315
0.3315
0.3315
0.3335
0.3345
0.334
0.334
0.3375
0.3385
0.342
0.341
0.333
0.338
0.343
0.339
0.341
0.3435
0.3445
0.3465
0.3445
0.344
0.348
0.3475
0.3485
0.35
0.347
0.3505
0.353
0.356
0.3595
0.3575
0.3595
0.356
0.3535
0.354
0.3525
0.3555
0.3605
0.3615
0.3595
0.361
0.365
0.36
0.3535
0.365
0.3725
0.371
0.37
0.372
0.374
0.3665
0.351
0.346
0.368
0.3795
0.375
0.3755
0.3765
0.38
0.381
0.378
0.38
0.378
0.3745
0.371
0.3735
0.3835
0.384
0.385
0.386
0.3875
0.389
0.3885
0.392
0.39
0.3915
0.395
0.3915
0.391
0.391
0.391
0.392
0.4005
0.406
0.408
0.41
0.408
0.407
0.408
0.4085
0.406
0.4055
0.4055
0.405
0.4135
0.4175
0.4165
0.419
0.4185
0.416
0.4185
0.4195
0.4175
0.417
0.4175
0.4215
0.4255
0.4275
0.431
0.4365
0.4405
0.444
0.445
0.4435
0.4505
0.455
0.452
0.451
0.4495
0.4465
0.4535
0.4625
0.4615
0.4645
0.4675
0.4705
0.4735
0.469
0.4735
0.4885
0.49
0.484
0.486
0.4885
0.49
0.4975
0.5
0.5005
0.505
0.503
0.506
0.5125
0.5215
0.524
0.521
0.5235
0.525
0.527
0.5375
0.541
0.545
0.5475
0.542
0.55
0.559
0.5675
0.569
0.568
0.5745
0.5755
0.582
0.587
0.587
0.5925
0.598
0.6015
0.6045
0.607
0.6105
0.613
0.6095
0.608
0.62
0.6285
0.6305
0.635
0.639
0.641
0.6445
0.6445
0.6435
0.648
0.647
0.65
0.6525
0.6525
0.656
0.659
0.664
0.665
0.6665
0.67
0.6715
0.6735
0.677
0.674
0.6695
0.674
0.6775
0.677
0.6755
0.6805
0.6785
0.669
0.6725
0.6765
0.6745
0.6655
0.6555
0.6575
0.6655
0.6665
0.6605
0.658
0.6545
0.6505
0.645
0.6405
0.6315
0.6195
0.622
0.62
0.612
0.611
0.605
0.593
0.5855
0.578
0.5705
0.568
0.56
0.5495
0.5345
0.526
0.5305
0.5245
0.5175
0.5135
0.506
0.4965
0.487
0.4805
0.4715
0.4635
0.46
0.451
0.4415
0.4445
0.436
0.4235
0.429
0.4275
0.4205
0.4175
0.411
0.406
0.405
0.4025
0.399
0.3935
0.391
0.386
0.38
0.378
0.3725
0.3645
0.3555
0.354
0.3575
0.3595
0.359
0.3515
0.351
0.35
0.3455
0.3535
0.3515
0.3455
0.3435
0.3385
0.341
0.343
0.3385
0.334
0.334
0.328
0.33
0.3375
0.3365
0.3315
0.3305
0.334
0.3305
0.329
0.3265
0.3235
0.328
0.329
0.333
0.332
0.328
0.3255
0.3205
0.3235
0.3265
0.3265
0.325
0.3245
0.323
0.3205
0.3235
0.322
0.319
0.325
0.327
0.3265
0.3285
0.3205
0.32
0.3295
0.3315
0.331
0.3265
0.3205
0.327
0.328
0.3225
0.3235
0.3265
0.324
0.324
0.3265
0.3245
0.327
0.32
0.317
0.325
0.3355
0.336
0.3325
0.335
0.3305
0.3155
0.312
0.326
0.3305
0.3295
0.328
0.325
0.324
0.3235
0.3255
0.324
0.3225
0.319
0.319
0.324
0.33
0.3285
0.326
0.3305
0.3265
0.326
0.327
0.3265
0.3275
0.3235
0.321
0.319
0.3165
0.314
0.318
0.3205
0.3245
0.3265
0.324
0.3295
0.3305
0.328
0.3225
0.317
0.3205
0.324
0.324
0.3205
0.325
0.329
0.3275
0.3255
0.3195
0.322
0.3205
0.3185
0.323
0.322
0.331
0.337
0.3315
0.3275
0.3255
0.3265
0.327
0.327
0.3325
0.3365
0.3295
0.328
0.3295
0.3245
0.317
0.3155
0.3225
0.3305
0.335
0.333
0.338
0.3355
0.3215
0.3195
0.3235
0.3275
0.3295
0.324
0.326
0.33
0.327
0.331
0.3275
0.3225
0.3265
0.3245
0.319
0.3185
0.326
0.3305
0.331
0.33
0.326
0.326
0.323
0.323
0.325
0.3275
0.3235
0.3175
0.323
0.324
0.326
0.328
0.3305
0.3285
0.319
0.32
0.3205
0.322
0.3225
0.325
0.3255
0.3215
0.3205
0.3235
0.321
0.3155
0.3135
0.313
0.32
0.3225
0.323
0.322
0.317
0.318
0.318
0.313
0.315
0.3215
0.3215
0.3205
0.32
0.322
0.3265
0.3175
0.3055
0.3145
0.327
0.3235
0.3165
0.3105
0.316
0.32
0.3155
0.3165
0.3215
0.323
0.3175
0.315
0.3185
0.318
0.3195
0.32
0.3135
0.313
0.313
0.315
0.308
0.3055
0.32
0.325
0.325
0.3205
0.32
0.318
0.3145
0.316
0.315
0.3205
0.3185
0.3125
0.317
0.3175
0.314
0.3155
0.316
0.3165
0.319
0.315
0.308
0.3085
0.3155
0.317
0.312
0.314
0.3155
0.3135
0.3195
0.3205
0.312
0.311
0.3125
0.314
0.3155
0.3125
0.3115
0.312
0.3125
0.3115
0.3085
0.306
0.3095
0.3105
0.309
0.305
0.3045
0.3145
0.32
0.3135
0.306
0.309
0.311
0.3115
0.313
0.3135
0.312
0.309
0.3105
0.31
0.3105
0.312
0.3115
0.3055
0.3025
0.3135
0.315
0.3095
0.3
0.2975
0.305
0.305
0.3055
0.305
0.3055
0.306
0.3045
0.2995
0.299
0.3055
0.3115
0.302
0.2975
0.305
0.3015
0.3075
0.3135
0.3075
0.302
0.3025
0.3015
0.307
0.3135
0.311
0.3075
0.308
0.3095
0.307
0.3055
0.3065
0.3105
0.3045
0.298
0.3045
0.3035
0.3
0.3045
0.3065
0.3065
0.3085
0.3105
0.308
0.303
0.3035
0.3075
0.309
0.305
0.2965
0.3015
0.309
0.306
0.306
0.3045
0.303
0.304
0.303
0.2985
0.2985
0.304
0.3015
0.3015
0.305
0.3045
0.303
0.303
0.303
0.3005
0.301
0.298
0.3
0.3
0.3025
0.3085
0.3025
0.2995
0.302
0.302
0.2985
0.301
0.306
0.308
0.3085
0.298
0.293
0.3005
0.3035
0.303
0.3
0.2965
0.3005
0.3055
0.298
0.291
0.2915
0.2985
0.306
0.303
0.299
0.295
0.2985
0.304
0.306
0.305
0.2985
0.2985
0.2965
0.2935
0.3015
0.3065
0.301
0.2955
0.2955
0.3
0.309
0.3085
0.3025
0.293
0.289
0.303
0.3095
0.3075
0.3055
0.305
0.3075
0.314
0.3105
0.304
0.308
0.3035
0.303
0.3015
0.297
0.2985
0.302
0.3035
0.2955
0.2955
0.2995
0.2945
0.297
0.304
0.299
0.2965
0.3005
0.3025
0.297
0.295
0.303
0.302
0.3045
0.303
0.3
0.302
0.296
0.294
0.289
0.2955
0.3035
0.2965
0.2955
0.3025
0.3075
0.3015
0.296
0.2925
0.2895
0.295
0.3005
0.298
0.293
0.2945
0.3005
0.305
0.3055
0.305
0.3045
0.303
0.301
0.299
0.3055
0.2995
0.293
0.3005
0.3075
0.315
0.317
0.3125
0.3115
0.3135
0.3105
0.305
0.3075
0.315
0.3175
0.319
0.323
0.3255
0.326
0.329
0.3285
0.333
0.339
0.34
0.34
0.3335
0.333
0.339
0.3375
0.334
0.3305
0.3335
0.338
0.334
0.329
0.33
0.335
0.3385
0.3455
0.3405
0.3325
0.338
0.3375
0.3345
0.336
0.342
0.3475
0.35
0.357
0.364
0.3645
0.3645
0.3645
0.362
0.3555
0.3605
0.377
0.372
0.3635
0.3655
0.357
0.347
0.342
0.3415
0.345
0.346
0.346
0.3445
0.3405
0.3395
0.3435
0.3445
0.3425
0.3455
0.346
0.3425
0.34
0.3425
0.3425
0.3395
0.3415
0.337
0.329
0.3235
0.316
0.313
0.3155
0.309
0.3015
0.3
0.2975
0.2965
0.29
0.288
0.285
0.2835
0.29
0.2935
0.2865
0.28
0.28
0.2755
0.2725
0.2745
0.283
0.28
0.276
0.277
0.276
0.275
0.2705
0.2745
0.278
0.2825
0.285
0.28
0.282
0.2805
0.2775
0.2795
0.2795
0.278
0.2735
0.2745
0.2725
0.2705
0.2735
0.2745
0.277
0.2725
0.269
0.267
0.2665
0.2705
0.2715
0.2715
0.2755
0.2715
0.2655
0.269
0.2745
0.275
0.275
0.277
0.275
0.273
0.2665
0.2645
0.267
0.262
0.2625
0.266
0.262
0.2625
0.267
0.269
0.2695
0.262
0.26
0.2635
0.261
0.259
0.2615
0.2625
0.2605
0.257
0.253
0.2495
0.2485
0.2475
0.246
0.245
0.237
0.236
0.235
0.2265
0.2255
0.2265
0.2365
0.2435
0.24
0.245
0.2515
0.259
0.281
0.31
0.336
0.3565
0.3855
0.424
0.46
0.497
0.525
0.562
0.605
0.639
0.6825
0.7205
0.759
0.7885
0.816
0.8415
0.856
0.877
0.8825
0.896
0.9135
0.9085
0.891
0.88
0.8935
0.9025
0.897
0.889
0.8805
0.852
0.805
0.759
0.6955
0.625
0.5645
0.501
0.444
0.387
0.326
0.2695
0.2275
0.1955
0.1675
0.1435
0.119
0.101
0.1
0.1075
0.1085
0.1055
0.104
0.1135
0.126
0.1385
0.1505
0.1635
0.179
0.191
0.1965
0.2065
0.2235
0.2335
0.248
0.2635
0.2665
0.273
0.2775
0.2775
0.2795
0.2765
0.2815
0.2915
0.292
0.2915
0.291
0.295
0.295
0.291
0.285
0.2775
0.285
0.303
0.3055
0.303
0.3095
0.303
0.3025
0.306
0.3045
0.3075
0.3075
0.31
0.31
0.309
0.3125
0.3145
0.313
0.309
0.309
0.313
0.311
0.314
0.3165
0.3125
0.312
0.3175
0.3215
0.319
0.317
0.3175
0.3195
0.3205
0.32
0.3185
0.3215
0.326
0.33
0.332
0.329
0.326
0.3215
0.327
0.335
0.335
0.334
0.327
0.3215
0.3295
0.3435
0.343
0.3365
0.332
0.3315
0.335
0.334
0.3325
0.3325
0.337
0.3375
0.3375
0.338
0.335
0.339
0.3415
0.34
0.3415
0.341
0.343
0.3465
0.3495
0.3495
0.3475
0.349
0.3465
0.3455
0.347
0.3455
0.3515
0.355
0.3585
0.3585
0.3565
0.3575
0.353
0.357
0.3625
0.3665
0.362
0.354
0.349
0.352
0.3635
0.3585
0.364
0.3705
0.362
0.369
0.3795
0.3735
0.369
0.3635
0.3685
0.383
0.378
0.376
0.3795
0.3835
0.388
0.384
0.385
0.388
0.3895
0.3925
0.391
0.3905
0.388
0.3925
0.3965
0.396
0.3975
0.397
0.4035
0.403
0.3975
0.3965
0.4065
0.4135
0.4115
0.4115
0.41
0.4075
0.405
0.41
0.418
0.42
0.421
0.424
0.423
0.425
0.428
0.4305
0.4345
0.433
0.432
0.435
0.4365
0.4355
0.4375
0.4405
0.4425
0.447
0.4485
0.453
0.459
0.4585
0.463
0.465
0.4665
0.466
0.4635
0.4705
0.4685
0.471
0.4865
0.4885
0.4915
0.4985
0.4985
0.507
0.513
0.511
0.5125
0.5195
0.5235
0.525
0.5295
0.529
0.5285
0.531
0.5305
0.5405
0.55
0.543
0.543
0.5505
0.559
0.564
0.563
0.567
0.5685
0.5695
0.5745
0.5805
0.5835
0.5875
0.592
0.591
0.595
0.603
0.601
0.606
0.613
0.611
0.61
0.612
0.6175
0.615
0.616
0.6255
0.63
0.634
0.635
0.6325
0.636
0.6405
0.642
0.6425
0.6445
0.644
0.6435
0.647
0.6475
0.648
0.644
0.6415
0.6455
0.6455
0.6475
0.652
0.6525
0.6475
0.644
0.6455
0.6405
0.6335
0.637
0.634
0.6325
0.634
0.629
0.6245
0.6175
0.6095
0.6055
0.602
0.595
0.5895
0.585
0.5785
0.573
0.564
0.555
0.5495
0.5485
0.545
0.537
0.529
0.5185
0.513
0.5045
0.491
0.4885
0.488
0.4845
0.481
0.4735
0.4615
0.4555
0.455
0.4475
0.4395
0.434
0.4285
0.4215
0.417
0.412
0.4085
0.403
0.392
0.3845
0.3785
0.3775
0.381
0.376
0.3735
0.368
0.3585
0.358
0.359
0.3575
0.3535
0.3485
0.3455
0.3535
0.3515
0.3365
0.332
0.3355
0.3415
0.338
0.334
0.332
0.333
0.3325
0.3325
0.3325
0.3265
0.326
0.3255
0.3225
0.3195
0.3195
0.3215
0.317
0.3075
0.3045
0.3155
0.326
0.318
0.315
0.315
0.3175
0.3175
0.3055
0.309
0.317
0.311
0.3075
0.3075
0.305
0.31
0.311
0.311
0.3125
0.3125
0.3125
0.3145
0.314
0.313
0.315
0.3145
0.3135
0.3075
0.3105
0.3165
0.3175
0.314
0.31
0.3075
0.308
0.3075
0.304
0.307
0.3035
0.3035
0.3075
0.309
0.31
0.31
0.312
0.3105
0.3095
0.3055
0.305
0.3065
0.3035
0.3055
0.3045
0.305
0.304
0.305
0.31
0.306
0.305
0.3125
0.3145
0.3135
0.312
0.308
0.3075
0.3095
0.311
0.309
0.3065
0.3095
0.314
0.3145
0.3125
0.312
0.3145
0.312
0.309
0.311
0.3075
0.3035
0.308
0.315
0.3145
0.31
0.3035
0.308
0.3155
0.31
0.3045
0.3115
0.3235
0.316
0.302
0.302
0.305
0.305
0.313
0.3175
0.315
0.3195
0.317
0.3125
0.3135
0.313
0.315
0.3145
0.3115
0.312
0.312
0.3135
0.315
0.3155
0.3135
0.312
0.3155
0.3165
0.3145
0.315
0.3165
0.316
0.3145
0.3185
0.3175
0.3125
0.315
0.317
0.318
0.315
0.313
0.3085
0.306
0.316
0.317
0.317
0.3185
0.314
0.3115
0.315
0.3155
0.3145
0.316
0.3145
0.3145
0.314
0.3165
0.3145
0.3125
0.3155
0.3125
0.313
0.3135
0.312
0.311
0.313
0.315
0.314
0.312
0.3105
0.3095
0.309
0.31
0.3055
0.309
0.3155
0.314
0.3105
0.3095
0.3135
0.3145
0.3165
0.3175
0.316
0.3135
0.308
0.3055
0.306
0.305
0.304
0.302
0.305
0.3095
0.3045
0.301
0.3045
0.312
0.312
0.3065
0.3095
0.313
0.3085
0.305
0.305
0.3055
0.306
0.304
0.308
0.308
0.3055
0.305
0.3015
0.298
0.301
0.307
0.3065
0.3055
0.306
0.305
0.307
0.304
0.307
0.312
0.3035
0.3
0.299
0.3055
0.3125
0.309
0.309
0.307
0.3045
0.3025
0.302
0.3025
0.3025
0.3
0.2995
0.3005
0.298
0.2995
0.305
0.304
0.3005
0.296
0.2935
0.3
0.301
0.303
0.304
0.301
0.302
0.3
0.2975
0.2995
0.306
0.3045
0.304
0.304
0.3
0.3025
0.304
0.3055
0.3055
0.296
0.2985
0.305
0.3005
0.297
0.298
0.296
0.2925
0.294
0.295
0.298
0.3
0.2985
0.297
0.3005
0.301
0.296
0.2975
0.297
0.297
0.298
0.2985
0.297
0.2965
0.294
0.2935
0.2985
0.3
0.3015
0.2975
0.2935
0.2985
0.302
0.302
0.303
0.2995
0.297
0.2945
0.294
0.297
0.297
0.3015
0.302
0.2985
0.2965
0.2945
0.2945
0.2955
0.2925
0.295
0.2995
0.2975
0.2955
0.294
0.2945
0.2945
0.297
0.292
0.2845
0.292
0.3005
0.3005
0.3
0.2975
0.294
0.2935
0.288
0.288
0.296
0.2955
0.293
0.2945
0.2935
0.295
0.297
0.293
0.2845
0.2835
0.2935
0.2925
0.293
0.302
0.302
0.2975
0.2955
0.2955
0.293
0.2945
0.296
0.295
0.2975
0.2975
0.292
0.2905
0.289
0.29
0.2915
0.287
0.2875
0.285
0.2825
0.2925
0.3005
0.2985
0.296
0.2955
0.2965
0.299
0.294
0.2915
0.295
0.2935
0.2925
0.293
0.2885
0.286
0.291
0.3055
0.3075
0.299
0.297
0.296
0.294
0.2935
0.295
0.293
0.2935
0.2945
0.2945
0.2935
0.2925
0.289
0.2825
0.292
0.2975
0.2955
0.297
0.2935
0.2875
0.2875
0.2965
0.296
0.2915
0.2935
0.292
0.2885
0.2855
0.285
0.2895
0.2925
0.2905
0.2905
0.291
0.2945
0.2995
0.2945
0.293
0.292
0.291
0.294
0.2935
0.292
0.291
0.2895
0.288
0.2865
0.288
0.293
0.2925
0.29
0.291
0.289
0.289
0.2955
0.2955
0.2965
0.2965
0.2885
0.288
0.2925
0.295
0.2945
0.294
0.299
0.302
0.3005
0.302
0.3
0.2985
0.303
0.3095
0.311
0.3065
0.309
0.3115
0.3105
0.308
0.31
0.3105
0.313
0.321
0.3155
0.3135
0.317
0.32
0.321
0.32
0.322
0.328
0.331
0.33
0.327
0.322
0.3215
0.324
0.33
0.333
0.334
0.335
0.333
0.3335
0.333
0.3285
0.331
0.339
0.3385
0.3375
0.3385
0.3375
0.3415
0.3515
0.3555
0.358
0.3585
0.3555
0.357
0.356
0.358
0.359
0.353
0.3475
0.349
0.351
0.346
0.3405
0.3345
0.336
0.339
0.339
0.3395
0.341
0.3405
0.3435
0.3435
0.338
0.3355
0.3375
0.345
0.3475
0.343
0.343
0.345
0.342
0.337
0.3315
0.3275
0.321
0.314
0.31
0.3025
0.297
0.296
0.292
0.288
0.29
0.288
0.283
0.278
0.279
0.2805
0.281
0.2795
0.2755
0.279
0.2765
0.271
0.2705
0.2675
0.2635
0.266
0.27
0.2735
0.276
0.2745
0.2655
0.2635
0.275
0.275
0.2705
0.2745
0.273
0.2685
0.2685
0.2735
0.2755
0.2705
0.2675
0.269
0.2715
0.267
0.2635
0.27
0.27
0.268
0.2685
0.2685
0.2655
0.2635
0.2645
0.2645
0.2645
0.264
0.263
0.2625
0.2625
0.2635
0.2645
0.2655
0.263
0.2555
0.2565
0.263
0.269
0.269
0.265
0.2645
0.264
0.2615
0.2615
0.2595
0.2545
0.258
0.26
0.2565
0.258
0.2565
0.255
0.255
0.245
0.2425
0.24
0.2305
0.2185
0.224
0.2385
0.2355
0.228
0.2215
0.22
0.2225
0.229
0.2345
0.237
0.2435
0.256
0.272
0.2875
0.3175
0.3515
0.3905
0.432
0.4685
0.509
0.5455
0.578
0.6125
0.648
0.6835
0.7215
0.7595
0.795
0.831
0.8565
0.876
0.9
0.9085
0.92
0.9255
0.917
0.9125
0.8955
0.8955
0.9075
0.911
0.904
0.884
0.8625
0.825
0.776
0.7195
0.655
0.5895
0.5185
0.4635
0.405
0.331
0.286
0.252
0.208
0.1735
0.153
0.126
0.101
0.101
0.103
0.103
0.105
0.107
0.116
0.1255
0.1335
0.1465
0.1595
0.1645
0.1755
0.191
0.201
0.2145
0.237
0.2525
0.254
0.2655
0.2735
0.272
0.2735
0.28
0.28
0.2755
0.2865
0.297
0.297
0.2905
0.292
0.2915
0.2905
0.294
0.295
0.2935
0.2885
0.291
0.3
0.304
0.302
0.302
0.3025
0.301
0.3015
0.3025
0.308
0.3105
0.3075
0.3085
0.309
0.308
0.3065
0.3065
0.304
0.297
0.298
0.3085
0.32
0.3215
0.3145
0.311
0.319
0.321
0.32
0.3195
0.316
0.319
0.3195
0.3125
0.3125
0.3235
0.3285
0.3265
0.3245
0.324
0.3285
0.3295
0.329
0.327
0.328
0.332
0.3295
0.3295
0.335
0.334
0.3325
0.3325
0.3275
0.3285
0.3385
0.339
0.3345
0.334
0.335
0.338
0.3395
0.338
0.335
0.3385
0.3415
0.3455
0.348
0.347
0.34
0.3315
0.3385
0.3495
0.3505
0.3465
0.344
0.3455
0.3525
0.3535
0.352
0.3525
0.354
0.355
0.3545
0.3555
0.355
0.3575
0.3605
0.3635
0.3575
0.3525
0.36
0.3615
0.359
0.362
0.3645
0.368
0.3715
0.3705
0.37
0.3705
0.3725
0.373
0.3705
0.372
0.3795
0.3845
0.381
0.3785
0.381
0.3805
0.3805
0.384
0.386
0.389
0.389
0.3845
0.384
0.3895
0.391
0.394
0.399
0.396
0.3935
0.397
0.3995
0.4005
0.403
0.406
0.408
0.404
0.4
0.401
0.412
0.4225
0.421
0.419
0.417
0.418
0.4215
0.423
0.4255
0.4325
0.4395
0.437
0.4375
0.435
0.437
0.45
0.45
0.4465
0.4475
0.454
0.458
0.4565
0.4615
0.4595
0.462
0.468
0.465
0.467
0.474
0.483
0.484
0.487
0.49
0.4925
0.4985
0.497
0.501
0.5065
0.5085
0.5145
0.52
0.5245
0.528
0.5285
0.5305
0.5315
0.535
0.5405
0.5425
0.546
0.55
0.554
0.558
0.5585
0.564
0.573
0.5725
0.574
0.578
0.5805
0.583
0.5825
0.587
0.5985
0.6
0.602
0.6055
0.6015
0.6055
0.6095
0.608
0.6095
0.615
0.6225
0.6275
0.625
0.6275
0.633
0.6385
0.64
0.637
0.6425
0.6455
0.6455
0.646
0.6495
0.6505
0.6495
0.654
0.655
0.6555
0.654
0.654
0.6535
0.6495
0.649
0.6475
0.6515
0.65
0.645
0.644
0.6415
0.6425
0.6405
0.634
0.625
0.6255
0.634
0.631
0.623
0.6185
0.612
0.603
0.5935
0.5895
0.588
0.579
0.569
0.5615
0.5565
0.551
0.544
0.5405
0.537
0.5295
0.521
0.515
0.505
0.486
0.4755
0.487
0.4935
0.477
0.4675
0.4595
0.4485
0.4415
0.4335
0.4345
0.4335
0.425
0.417
0.4125
0.408
0.402
0.398
0.392
0.387
0.3875
0.3835
0.3775
0.374
0.371
0.3685
0.3635
0.3605
0.359
0.3535
0.3495
0.347
0.343
0.339
0.3375
0.341
0.341
0.3295
0.3285
0.339
0.341
0.334
0.325
0.3235
0.3255
0.3275
0.328
0.324
0.321
0.3245
0.319
0.3185
0.325
0.323
0.3225
0.3175
0.318
0.3225
0.32
0.319
0.319
0.3195
0.321
0.316
0.311
0.316
0.316
0.315
0.3175
0.313
0.3085
0.3095
0.3085
0.3075
0.313
0.316
0.313
0.3125
0.3105
0.3085
0.3105
0.3125
0.313
0.3075
0.3055
0.312
0.3105
0.3065
0.309
0.318
0.319
0.31
0.3045
0.3055
0.3155
0.3175
0.308
0.3075
0.3145
0.3135
0.3105
0.3145
0.314
0.311
0.3035
0.3055
0.311
0.3095
0.309
0.3065
0.303
0.3055
0.3135
0.314
0.3115
0.308
0.31
0.314
0.3105
0.308
0.307
0.3085
0.3085
0.309
0.311
0.3095
0.3075
0.3105
0.3135
0.3125
0.306
0.3065
0.308
0.3015
0.3075
0.3115
0.309
0.3125
0.311
0.3095
0.3105
0.312
0.314
0.315
0.3165
0.3115
0.309
0.3115
0.3125
0.316
0.314
0.308
0.306
0.3045
0.306
0.315
0.316
0.311
0.314
0.319
0.3175
0.308
0.306
0.314
0.3155
0.3135
0.313
0.309
0.307
0.317
0.322
0.319
0.315
0.3115
0.3095
0.308
0.31
0.3145
0.321
0.3195
0.316
0.3165
0.3185
0.319
0.3165
0.3095
0.305
0.312
0.3155
0.319
0.3175
0.312
0.314
0.3125
0.312
0.314
0.312
0.3155
0.323
0.321
0.3155
0.3205
0.3155
0.308
0.312
0.318
0.3195
0.3065
0.3065
0.3205
0.3215
0.32
0.3185
0.3165
0.317
0.317
0.314
0.3115
0.31
0.3055
0.309
0.3145
0.313
0.312
0.3105
0.3115
0.311
0.3105
0.309
0.31
0.315
0.3085
0.308
0.314
0.311
0.3105
0.313
0.312
0.307
0.3045
0.3045
0.305
0.3065
0.3095
0.3135
0.311
0.314
0.315
0.3115
0.312
0.3105
0.3105
0.3115
0.309
0.299
0.2965
0.2985
0.2965
0.3015
0.307
0.3105
0.31
0.3045
0.303
0.305
0.3025
0.3025
0.306
0.305
0.3015
0.3045
0.309
0.3035
0.3035
0.3085
0.307
0.306
0.3075
0.301
0.293
0.299
0.307
0.311
0.309
0.307
0.311
0.3095
0.3035
0.3
0.3015
0.3045
0.3055
0.3095
0.3135
0.311
0.302
0.298
0.3025
0.3085
0.308
0.3035
0.301
0.298
0.296
0.301
0.3025
0.2975
0.299
0.3065
0.308
0.3015
0.2995
0.302
0.306
0.308
0.305
0.303
0.307
0.304
0.3015
0.3055
0.303
0.304
0.304
0.299
0.3015
0.304
0.3005
0.2995
0.2995
0.2975
0.2985
0.298
0.298
0.297
0.289
0.293
0.2985
0.2945
0.298
0.305
0.305
0.2995
0.299
0.3005
0.298
0.2965
0.2975
0.3005
0.299
0.2915
0.2905
0.296
0.304
0.306
0.3055
0.3025
0.298
0.297
0.2975
0.298
0.2985
0.298
0.2945
0.295
0.29
0.2865
0.2915
0.2995
0.3025
0.2975
0.2985
0.298
0.2965
0.297
0.297
0.2975
0.295
0.294
0.297
0.299
0.2985
0.296
0.295
0.292
0.293
0.2995
0.3055
0.3035
0.295
0.301
0.3065
0.302
0.299
0.298
0.3045
0.303
0.3
0.303
0.3015
0.301
0.299
0.298
0.293
0.2915
0.2985
0.3015
0.3005
0.3
0.297
0.297
0.3005
0.3025
0.3015
0.301
0.2955
0.292
0.296
0.298
0.2985
0.2965
0.2985
0.2975
0.3
0.3035
0.2965
0.292
0.2945
0.2975
0.298
0.298
0.2935
0.2885
0.293
0.2975
0.2985
0.299
0.29
0.2895
0.2985
0.299
0.3005
0.3
0.2985
0.2995
0.299
0.2965
0.293
0.293
0.295
0.3
0.2995
0.296
0.293
0.294
0.3025
0.2975
0.2945
0.3015
0.3015
0.297
0.2915
0.2955
0.2975
0.2915
0.294
0.2985
0.3
0.296
0.2935
0.3
0.306
0.304
0.2985
0.298
0.298
0.302
0.3025
0.3035
0.3085
0.3025
0.304
0.311
0.3105
0.316
0.3195
0.316
0.3145
0.3175
0.3195
0.3195
0.3255
0.327
0.33
0.3335
0.33
0.329
0.33
0.332
0.343
0.3425
0.3355
0.332
0.331
0.337
0.334
0.334
0.3375
0.335
0.3335
0.338
0.34
0.3395
0.341
0.339
0.343
0.347
0.347
0.3565
0.357
0.357
0.3625
0.3615
0.359
0.3585
0.3655
0.3675
0.368
0.369
0.3685
0.37
0.3685
0.373
0.3755
0.3685
0.358
0.35
0.346
0.341
0.341
0.344
0.35
0.354
0.348
0.3505
0.3515
0.3485
0.354
0.3565
0.3535
0.348
0.349
0.3445
0.3415
0.346
0.3445
0.343
0.341
0.342
0.338
0.3305
0.3245
0.317
0.3135
0.3095
0.3
0.2905
0.285
0.286
0.2855
0.2795
0.276
0.275
0.2815
0.2815
0.2755
0.2725
0.274
0.277
0.2745
0.2785
0.2815
0.276
0.273
0.273
0.2745
0.273
0.2725
0.2735
0.2735
0.277
0.2745
0.274
0.2745
0.273
0.271
0.271
0.271
0.269
0.27
0.27
0.271
0.2705
0.2725
0.266
0.264
0.2655
0.2645
0.264
0.26
0.266
0.2665
0.267
0.266
0.265
0.264
0.2635
0.2695
0.2675
0.267
0.2615
0.257
0.2665
0.2715
0.2685
0.2625
0.2605
0.262
0.261
0.262
0.264
0.2615
0.2585
0.258
0.256
0.2575
0.2585
0.258
0.26
0.2575
0.2525
0.2505
0.2485
0.249
0.2485
0.241
0.2345
0.2335
0.232
0.2315
0.232
0.2305
0.2265
0.222
0.2215
0.2235
0.23
0.2435
0.2535
0.2665
0.2825
0.3055
0.343
0.3785
0.415
0.458
0.5015
0.5365
0.568
0.607
0.6475
0.678
0.7125
0.756
0.794
0.8375
0.873
0.8945
0.92
0.9335
0.941
0.9505
0.945
0.936
0.9275
0.922
0.9285
0.934
0.936
0.9195
0.8895
0.865
0.823
0.7625
0.691
0.6195
0.55
0.4855
0.434
0.3665
0.303
0.254
0.207
0.1785
0.155
0.128
0.102
0.087
0.0935
0.0995
0.099
0.1015
0.106
0.116
0.127
0.139
0.152
0.161
0.171
0.1855
0.2005
0.2175
0.231
0.2385
0.247
0.259
0.263
0.264
0.2755
0.2805
0.2755
0.2765
0.284
0.2845
0.2805
0.2845
0.2915
0.2915
0.294
0.2945
0.2885
0.2905
0.295
0.2965
0.296
0.297
0.294
0.2955
0.3005
0.2995
0.302
0.301
0.302
0.3045
0.305
0.3075
0.31
0.309
0.3075
0.31
0.3085
0.3095
0.308
0.3085
0.313
0.314
0.313
0.3145
0.316
0.302
0.2995
0.319
0.3245
0.317
0.319
0.322
0.32
0.321
0.3235
0.3245
0.3175
0.3125
0.322
0.3315
0.3295
0.328
0.3265
0.3285
0.3355
0.334
0.335
0.3335
0.3315
0.337
0.3385
0.3365
0.335
0.336
0.3365
0.3355
0.3365
0.339
0.3405
0.343
0.344
0.345
0.3475
0.346
0.3475
0.3495
0.3445
0.3435
0.342
0.3435
0.3475
0.3455
0.3515
0.3545
0.35
0.35
0.3525
0.357
0.3565
0.3555
0.358
0.354
0.3515
0.359
0.368
0.3705
0.3655
0.363
0.362
0.3665
0.37
0.375
0.3745
0.365
0.3635
0.368
0.3675
0.3665
0.3735
0.3745
0.375
0.3795
0.382
0.378
0.3815
0.3845
0.3785
0.3735
0.365
0.381
0.392
0.3855
0.387
0.382
0.387
0.388
0.3865
0.395
0.3985
0.3985
0.3945
0.4045
0.4115
0.4075
0.4085
0.408
0.408
0.408
0.408
0.4075
0.4095
0.416
0.4195
0.421
0.4165
0.421
0.433
0.431
0.429
0.4315
0.433
0.4375
0.4385
0.4405
0.443
0.448
0.4525
0.455
0.4575
0.456
0.455
0.4545
0.458
0.461
0.4615
0.4715
0.4785
0.4805
0.4855
0.488
0.488
0.489
0.491
0.491
0.489
0.495
0.505
0.512
0.512
0.513
0.5175
0.5235
0.5265
0.522
0.524
0.532
0.5415
0.5405
0.543
0.552
0.556
0.561
0.561
0.562
0.5675
0.5745
0.583
0.5785
0.5695
0.574
0.5825
0.5905
0.5925
0.5935
0.6045
0.6175
0.614
0.612
0.6175
0.6155
0.615
0.615
0.622
0.633
0.6365
0.637
0.64
0.643
0.641
0.645
0.647
0.642
0.642
0.6475
0.654
0.656
0.6575
0.6615
0.6615
0.6595
0.66
0.6605
0.659
0.6585
0.658
0.6515
0.655
0.6645
0.664
0.661
0.6555
0.6545
0.654
0.6485
0.644
0.6405
0.6355
0.6305
0.63
0.6275
0.622
0.616
0.6115
0.608
0.6015
0.594
0.5825
0.5775
0.5755
0.564
0.558
0.5495
0.5385
0.536
0.5295
0.5255
0.5195
0.5105
0.508
0.5025
0.494
0.4815
0.4725
0.471
0.4665
0.459
0.453
0.448
0.441
0.4345
0.4275
0.419
0.4115
0.406
0.404
0.399
0.3985
0.3975
0.391
0.3865
0.378
0.3755
0.3715
0.3665
0.3645
0.363
0.358
0.353
0.355
0.347
0.344
0.3515
0.348
0.3425
0.3395
0.34
0.338
0.334
0.332
0.3295
0.3295
0.33
0.33
0.326
0.3215
0.318
0.32
0.3295
0.327
0.3205
0.319
0.312
0.3125
0.3205
0.323
0.3195
0.3155
0.308
0.306
0.3155
0.3175
0.3135
0.3125
0.311
0.312
0.3095
0.311
0.3115
0.3085
0.306
0.3045
0.3055
0.301
0.3035
0.3095
0.3135
0.312
0.3065
0.31
0.3115
0.312
0.3125
0.307
0.308
0.3105
0.3075
0.3075
0.3065
0.305
0.307
0.3045
0.3045
0.304
0.3065
0.311
0.308
0.3085
0.3055
0.303
0.307
0.3065
0.307
0.3085
0.3085
0.313
0.313
0.3105
0.307
0.3025
0.2975
0.299
0.307
0.309
0.305
0.3035
0.3005
0.2955
0.295
0.2965
0.308
0.3075
0.3015
0.3095
0.3175
0.318
0.315
0.31
0.306
0.307
0.3075
0.305
0.306
0.3075
0.3105
0.314
0.3125
0.315
0.3175
0.3145
0.311
0.308
0.307
0.303
0.3085
0.315
0.3105
0.3095
0.306
0.3005
0.2985
0.306
0.3125
0.309
0.31
0.309
0.306
0.303
0.3035
0.3105
0.31
0.3065
0.309
0.3085
0.3085
0.308
0.3085
0.311
0.3125
0.312
0.309
0.3095
0.31
0.3115
0.3105
0.306
0.306
0.309
0.314
0.312
0.31
0.309
0.3035
0.3035
0.306
0.3085
0.303
0.305
0.3145
0.3145
0.313
0.3135
0.312
0.3105
0.312
0.309
0.307
0.31
0.31
0.3075
0.308
0.308
0.307
0.3085
0.3085
0.309
0.309
0.308
0.3055
0.301
0.3065
0.313
0.3105
0.305
0.304
0.303
0.298
0.2925
0.292
0.296
0.305
0.3085
0.3055
0.302
0.298
0.2945
0.296
0.307
0.309
0.3055
0.3045
0.304
0.307
0.3085
0.311
0.309
0.3065
0.3055
0.3045
0.3035
0.3035
0.305
0.303
0.3025
0.299
0.299
0.3
0.2975
0.296
0.2985
0.3055
0.3085
0.305
0.3035
0.3055
0.306
0.3045
0.3005
0.2975
0.298
0.295
0.2925
0.2915
0.2935
0.3045
0.303
0.2975
0.3005
0.2995
0.297
0.295
0.2935
0.299
0.3015
0.3005
0.3025
0.3005
0.301
0.2975
0.3015
0.302
0.3015
0.308
0.3015
0.2975
0.2955
0.2985
0.2985
0.2935
0.298
0.299
0.299
0.296
0.2955
0.2985
0.2965
0.294
0.296
0.2975
0.298
0.297
0.2925
0.2935
0.2955
0.296
0.294
0.288
0.286
0.2865
0.2915
0.2975
0.292
0.2915
0.293
0.2965
0.3055
0.3035
0.298
0.2915
0.2925
0.3015
0.2995
0.2985
0.298
0.2985
0.2985
0.294
0.289
0.287
0.2945
0.296
0.3
0.302
0.3055
0.3
0.287
0.292
0.288
0.2875
0.291
0.2955
0.3005
0.3015
0.3035
0.292
0.286
0.287
0.2895
0.296
0.296
0.299
0.294
0.29
0.2855
0.282
0.2925
0.2935
0.294
0.2955
0.2945
0.2975
0.3045
0.3075
0.2985
0.294
0.2905
0.2885
0.2835
0.2795
0.2865
0.293
0.297
0.295
0.291
0.2885
0.286
0.29
0.2955
0.2955
0.2885
0.285
0.292
0.294
0.294
0.294
0.295
0.2995
0.293
0.291
0.293
0.289
0.288
0.29
0.2915
0.29
0.287
0.286
0.2925
0.291
0.2855
0.2875
0.2875
0.293
0.299
0.293
0.2865
0.2865
0.286
0.2855
0.2925
0.297
0.2935
0.294
0.294
0.2915
0.292
0.2995
0.3035
0.3
0.289
0.2855
0.2875
0.284
0.288
0.289
0.2915
0.2905
0.2915
0.298
0.297
0.296
0.293
0.289
0.286
0.286
0.2835
0.2865
0.284
0.2775
0.2845
0.2935
0.2965
0.2935
0.2915
0.2935
0.298
0.2945
0.2895
0.281
0.2805
0.291
0.2895
0.2895
0.295
0.293
0.2885
0.2925
0.294
0.2955
0.302
0.3035
0.2965
0.3005
0.3035
0.2985
0.3065
0.313
0.314
0.3115
0.3065
0.3015
0.3025
0.3105
0.3145
0.3145
0.313
0.3135
0.3135
0.312
0.3145
0.322
0.327
0.3355
0.336
0.3325
0.3305
0.3305
0.336
0.3365
0.334
0.323
0.326
0.3375
0.3335
0.332
0.329
0.329
0.34
0.343
0.3475
0.3475
0.351
0.3575
0.3525
0.358
0.361
0.3545
0.3505
0.359
0.369
0.362
0.3605
0.374
0.3775
0.3705
0.37
0.366
0.365
0.364
0.36
0.3595
0.352
0.351
0.348
0.343
0.3425
0.34
0.344
0.345
0.3445
0.3485
0.353
0.3535
0.3535
0.3545
0.349
0.346
0.3465
0.3455
0.348
0.349
0.3405
0.342
0.34
0.3325
0.3305
0.3195
0.31
0.3005
0.297
0.2945
0.278
0.2765
0.2905
0.29
0.2785
0.272
0.2695
0.268
0.265
0.26
0.2655
0.275
0.2715
0.27
0.276
0.277
0.28
0.2775
0.274
0.273
0.2705
0.2705
0.2615
0.266
0.274
0.278
0.277
0.2625
0.2555
0.2595
0.274
0.271
0.257
0.259
0.2655
0.275
0.2705
0.2605
0.2665
0.2705
0.2695
0.2615
0.256
0.262
0.265
0.266
0.2685
0.27
0.2655
0.257
0.258
0.265
0.2645
0.2645
0.2655
0.262
0.266
0.267
0.2615
0.2575
0.2535
0.2525
0.251
0.26
0.2645
0.2595
0.2615
0.2595
0.259
0.2585
0.253
0.2535
0.255
0.2505
0.249
0.2475
0.2425
0.2405
0.2385
0.2325
0.2285
0.2295
0.2245
0.214
0.2145
0.2145
0.213
0.2205
0.2255
0.232
0.2405
0.2485
0.2695
0.286
0.305
0.338
0.3685
0.405
0.4525
0.4965
0.529
0.5605
0.594
0.6315
0.6725
0.709
0.753
0.8045
0.8375
0.8575
0.8775
0.908
0.9205
0.9175
0.936
0.9365
0.9235
0.9165
0.911
0.915
0.913
0.905
0.902
0.882
0.8425
0.803
0.75
0.6815
0.6115
0.542
0.4835
0.43
0.3645
0.2955
0.244
0.2045
0.1615
0.1345
0.1155
0.091
0.079
0.089
0.097
0.0915
0.093
0.102
0.1105
0.121
0.133
0.138
0.152
0.167
0.1825
0.199
0.2085
0.2205
0.2285
0.2435
0.261
0.2665
0.262
0.259
0.267
0.2815
0.281
0.281
0.2805
0.273
0.2755
0.278
0.2915
0.298
0.288
0.285
0.2885
0.282
0.279
0.2875
0.2925
0.2945
0.2945
0.298
0.2995
0.2895
0.2885
0.302
0.303
0.303
0.309
0.306
0.301
0.2985
0.303
0.312
0.3125
0.3045
0.302
0.307
0.308
0.309
0.3135
0.3135
0.3135
0.3175
0.3165
0.3105
0.314
0.317
0.316
0.3175
0.3205
0.327
0.3275
0.3255
0.3265
0.327
0.3275
0.3245
0.3175
0.3175
0.3245
0.325
0.329
0.3315
0.3285
0.3285
0.3305
0.336
0.3415
0.339
0.334
0.334
0.337
0.338
0.339
0.3435
0.338
0.33
0.3325
0.3385
0.35
0.348
0.336
0.334
0.335
0.341
0.3475
0.344
0.3535
0.352
0.3425
0.3475
0.344
0.3485
0.3515
0.35
0.3565
0.3565
0.354
0.35
0.355
0.365
0.366
0.3625
0.358
0.3545
0.358
0.3645
0.363
0.3615
0.367
0.369
0.3665
0.373
0.3715
0.369
0.376
0.3735
0.368
0.37
0.3785
0.3845
0.38
0.3765
0.381
0.385
0.3825
0.386
0.39
0.3885
0.3825
0.384
0.394
0.3935
0.391
0.3935
0.4
0.403
0.403
0.4025
0.4015
0.4035
0.402
0.402
0.3985
0.4025
0.4185
0.426
0.422
0.418
0.4265
0.4275
0.418
0.424
0.4335
0.4435
0.4415
0.436
0.4385
0.445
0.4425
0.4325
0.447
0.454
0.4505
0.4595
0.46
0.4595
0.465
0.467
0.474
0.474
0.473
0.4815
0.4835
0.4845
0.493
0.5
0.4975
0.4955
0.4955
0.5025
0.514
0.515
0.511
0.51
0.5055
0.508
0.525
0.529
0.524
0.523
0.5315
0.5385
0.54
0.542
0.5425
0.5535
0.5615
0.5585
0.561
0.5705
0.5715
0.5725
0.5725
0.5735
0.585
0.5935
0.585
0.585
0.591
0.587
0.596
0.606
0.6125
0.6175
0.626
0.6245
0.6205
0.6255
0.6335
0.64
0.6355
0.6385
0.639
0.6355
0.6335
0.636
0.64
0.6425
0.643
0.641
0.6435
0.647
0.6545
0.655
0.652
0.6525
0.6545
0.657
0.649
0.655
0.6645
0.6555
0.6515
0.652
0.6565
0.65
0.6495
0.653
0.6435
0.6405
0.634
0.6315
0.6265
0.6205
0.619
0.6155
0.6145
0.608
0.598
0.592
0.5915
0.5865
0.5765
0.5705
0.5635
0.5495
0.5425
0.5445
0.537
0.525
0.515
0.51
0.5
0.488
0.486
0.484
0.4865
0.476
0.469
0.4625
0.456
0.455
0.4295
0.4205
0.4245
0.4235
0.422
0.419
0.4165
0.4075
0.402
0.397
0.39
0.387
0.384
0.382
0.378
0.3705
0.369
0.362
0.3495
0.347
0.354
0.36
0.356
0.3465
0.343
0.3425
0.341
0.3435
0.3365
0.3345
0.3355
0.3265
0.3305
0.3355
0.3335
0.332
0.3285
0.3195
0.319
0.3315
0.3385
0.3345
0.3235
0.322
0.318
0.312
0.3145
0.313
0.313
0.314
0.319
0.3225
0.3175
0.3165
0.3185
0.3195
0.3195
0.3185
0.321
0.3215
0.3165
0.312
0.32
0.318
0.311
0.315
0.3135
0.3095
0.3135
0.3145
0.3155
0.32
0.3085
0.3075
0.315
0.3175
0.3175
0.3125
0.3125
0.31
0.306
0.306
0.3085
0.311
0.3095
0.3085
0.31
0.316
0.324
0.322
0.312
0.3115
0.314
0.308
0.3085
0.315
0.3175
0.3105
0.3125
0.3185
0.309
0.3015
0.3035
0.3055
0.301
0.3055
0.3165
0.3135
0.3115
0.315
0.323
0.324
0.322
0.3275
0.313
0.313
0.3195
0.307
0.309
0.3105
0.3095
0.3195
0.324
0.322
0.3165
0.3145
0.32
0.319
0.3135
0.3135
0.3115
0.3165
0.3195
0.312
0.305
0.3035
0.313
0.313
0.3145
0.3105
0.3065
0.3235
0.3315
0.327
0.3265
0.327
0.3215
0.3155
0.3155
0.325
0.3205
0.312
0.3135
0.313
0.3125
0.315
0.3215
0.323
0.3225
0.3155
0.311
0.3125
0.313
0.3225
0.322
0.3185
0.3145
0.31
0.3195
0.326
0.327
0.3305
0.3215
0.3165
0.319
0.3215
0.3285
0.3245
0.319
0.321
0.3215
0.318
0.32
0.3195
0.316
0.319
0.315
0.3185
0.3225
0.3155
0.3135
0.317
0.321
0.324
0.3215
0.311
0.3125
0.307
0.303
0.311
0.3065
0.311
0.3165
0.3135
0.3115
0.3155
0.3195
0.317
0.317
0.317
0.3235
0.3235
0.3185
0.315
0.311
0.3175
0.317
0.3095
0.311
0.314
0.3115
0.3045
0.304
0.307
0.3095
0.311
0.3085
0.304
0.3045
0.3105
0.3055
0.305
0.3135
0.3115
0.3115
0.317
0.314
0.307
0.3085
0.3085
0.3075
0.3105
0.309
0.3075
0.3055
0.3025
0.302
0.3095
0.3075
0.2975
0.308
0.306
0.3005
0.3095
0.305
0.305
0.3095
0.3105
0.317
0.3115
0.306
0.308
0.305
0.304
0.3025
0.304
0.307
0.309
0.3065
0.3075
0.3035
0.302
0.3025
0.301
0.3045
0.3065
0.3135
0.312
0.3035
0.3
0.2995
0.2995
0.2975
0.2995
0.3025
0.3015
0.3025
0.3015
0.3015
0.314
0.311
0.303
0.3065
0.307
0.305
0.2955
0.2895
0.2935
0.299
0.298
0.3005
0.304
0.2955
0.2965
0.307
0.3
0.293
0.295
0.2985
0.302
0.298
0.2985
0.2925
0.2845
0.2945
0.3015
0.3025
0.3105
0.3115
0.307
0.2995
0.294
0.297
0.2995
0.3035
0.3015
0.3005
0.3025
0.2935
0.297
0.3035
0.306
0.3085
0.304
0.3035
0.304
0.3065
0.3035
0.302
0.3035
0.298
0.301
0.3005
0.2915
0.2965
0.301
0.295
0.2975
0.3055
0.304
0.305
0.3065
0.3035
0.302
0.2915
0.288
0.299
0.306
0.302
0.3005
0.2995
0.2935
0.296
0.298
0.2935
0.295
0.3025
0.3085
0.307
0.3045
0.3035
0.3005
0.3
0.3015
0.2985
0.295
0.292
0.286
0.29
0.3035
0.305
0.2985
0.2965
0.298
0.304
0.3095
0.3055
0.3
0.3005
0.2925
0.29
0.3045
0.304
0.285
0.2845
0.307
0.321
0.31
0.2965
0.292
0.29
0.296
0.2965
0.294
0.298
0.3065
0.308
0.3065
0.305
0.307
0.3075
0.307
0.312
0.317
0.3185
0.3175
0.3195
0.3205
0.325
0.323
0.3215
0.327
0.3295
0.332
0.3315
0.332
0.333
0.335
0.3385
0.3395
0.3405
0.3375
0.3395
0.335
0.3215
0.3275
0.336
0.341
0.3405
0.3385
0.341
0.3425
0.3505
0.3485
0.353
0.362
0.3615
0.364
0.364
0.364
0.362
0.367
0.3695
0.3645
0.365
0.361
0.355
0.3545
0.3595
0.362
0.3625
0.3635
0.359
0.359
0.359
0.3505
0.35
0.3495
0.3485
0.354
0.352
0.355
0.354
0.3525
0.3505
0.347
0.349
0.355
0.365
0.361
0.357
0.3555
0.352
0.3485
0.3425
0.344
0.3385
0.3345
0.3395
0.3375
0.3245
0.31
0.311
0.309
0.2975
0.2945
0.2965
0.2915
0.283
0.284
0.285
0.285
0.282
0.281
0.2805
0.2785
0.281
0.28
0.28
0.2815
0.276
0.2755
0.28
0.279
0.281
0.2775
0.2725
0.278
0.2825
0.2765
0.2745
0.28
0.275
0.273
0.277
0.2765
0.279
0.277
0.2735
0.2725
0.273
0.271
0.265
0.2655
0.2695
0.276
0.274
0.271
0.2765
0.272
0.263
0.266
0.272
0.2725
0.27
0.2685
0.268
0.266
0.264
0.265
0.2705
0.27
0.2655
0.266
0.2645
0.269
0.2725
0.27
0.2705
0.269
0.266
0.2625
0.2565
0.2535
0.2575
0.2605
0.2635
0.2605
0.253
0.2485
0.2455
0.248
0.247
0.2455
0.243
0.2395
0.2435
0.2415
0.2385
0.236
0.236
0.243
0.248
0.261
0.28
0.2955
0.3155
0.338
0.364
0.406
0.4545
0.495
0.524
0.549
0.58
0.6165
0.657
0.691
0.724
0.7525
0.7825
0.805
0.8115
0.834
0.8405
0.8435
0.863
0.8735
0.8675
0.8525
0.852
0.85
0.8515
0.8465
0.839
0.8205
0.786
0.745
0.6875
0.628
0.5655
0.5035
0.4485
0.391
0.3295
0.2805
0.2395
0.1975
0.1655
0.144
0.1255
0.1075
0.0995
0.107
0.113
0.112
0.1155
0.1175
0.12
0.1295
0.1395
0.153
0.171
0.1825
0.1925
0.205
0.2215
0.233
0.2355
0.2485
0.26
0.2665
0.2705
0.268
0.272
0.283
0.285
0.2765
0.2815
0.287
0.285
0.2875
0.294
0.2975
0.2895
0.287
0.294
0.302
0.2995
0.294
0.2955
0.295
0.2995
0.3015
0.305
0.3065
0.3035
0.3095
0.3115
0.3065
0.3115
0.31
0.3035
0.305
0.3035
0.3015
0.3095
0.311
0.306
0.317
0.3195
0.315
0.313
0.3145
0.3185
0.3195
0.3225
0.321
0.3205
0.3225
0.3235
0.325
0.3245
0.3225
0.3245
0.3285
0.3255
0.3275
0.329
0.3245
0.3255
0.3265
0.329
0.3305
0.3315
0.3365
0.336
0.3315
0.3335
0.3385
0.336
0.3375
0.34
0.336
0.3345
0.3325
0.334
0.3365
0.338
0.339
0.3415
0.343
0.3435
0.3425
0.342
0.3435
0.341
0.343
0.344
0.346
0.3535
0.3525
0.3495
0.3505
0.35
0.349
0.3515
0.354
0.3545
0.3585
0.3605
0.36
0.355
0.349
0.355
0.3595
0.3565
0.36
0.3645
0.3625
0.3605
0.364
0.3635
0.36
0.3635
0.368
0.3695
0.37
0.3685
0.3705
0.372
0.368
0.369
0.376
0.3755
0.3775
0.3855
0.3865
0.383
0.3885
0.3955
0.395
0.393
0.39
0.3875
0.3915
0.3995
0.402
0.3965
0.3935
0.3975
0.399
0.403
0.408
0.406
0.411
0.416
0.413
0.416
0.4185
0.4175
0.419
0.4165
0.4155
0.422
0.4245
0.4275
0.432
0.435
0.437
0.44
0.4365
0.428
0.4325
0.442
0.452
0.4505
0.4465
0.4535
0.4575
0.4605
0.461
0.463
0.4655
0.468
0.4725
0.476
0.48
0.4805
0.49
0.4955
0.492
0.4965
0.499
0.502
0.5035
0.498
0.4985
0.506
0.5135
0.517
0.5205
0.528
0.5295
0.5335
0.5365
0.5385
0.545
0.542
0.5445
0.5485
0.553
0.5635
0.567
0.567
0.565
0.5695
0.579
0.5845
0.5885
0.5915
0.59
0.59
0.5995
0.6025
0.6045
0.609
0.6125
0.6115
0.6115
0.621
0.623
0.6255
0.63
0.627
0.631
0.6335
0.633
0.6375
0.6435
0.6475
0.6465
0.6435
0.6445
0.652
0.6555
0.6525
0.6515
0.6535
0.6545
0.653
0.648
0.648
0.6545
0.6525
0.6465
0.6455
0.644
0.642
0.6435
0.636
0.6345
0.6385
0.634
0.633
0.6305
0.621
0.617
0.6115
0.6025
0.5985
0.5925
0.586
0.58
0.572
0.573
0.569
0.555
0.5445
0.54
0.541
0.5345
0.523
0.519
0.508
0.4975
0.4915
0.4845
0.476
0.4655
0.4545
0.4475
0.45
0.452
0.444
0.4395
0.4325
0.419
0.413
0.414
0.4055
0.3965
0.398
0.397
0.3935
0.39
0.389
0.388
0.382
0.378
0.373
0.3675
0.362
0.3595
0.3545
0.3485
0.355
0.354
0.351
0.347
0.341
0.3425
0.3335
0.3285
0.331
0.332
0.336
0.3345
0.329
0.329
0.3265
0.325
0.324
0.3225
0.3225
0.323
0.3265
0.3235
0.318
0.3145
0.315
0.323
0.3195
0.316
0.323
0.3245
0.318
0.3155
0.3165
0.3185
0.322
0.3175
0.3115
0.3105
0.3065
0.309
0.317
0.3115
0.3045
0.297
0.305
0.3115
0.307
0.311
0.3105
0.312
0.3115
0.3075
0.307
0.3115
0.309
0.305
0.3065
0.3085
0.313
0.313
0.31
0.31
0.309
0.3085
0.31
0.3105
0.3125
0.3105
0.308
0.3115
0.315
0.3125
0.307
0.307
0.3095
0.307
0.3075
0.308
0.301
0.3025
0.305
0.3105
0.311
0.304
0.3065
0.3125
0.3115
0.3015
0.3025
0.307
0.3105
0.3095
0.3105
0.3135
0.309
0.3115
0.31
0.3095
0.3105
0.308
0.31
0.3125
0.311
0.3145
0.3175
0.3125
0.3115
0.315
0.317
0.3135
0.3165
0.3165
0.314
0.3165
0.3135
0.315
0.3115
0.311
0.3145
0.31
0.3135
0.3175
0.3185
0.322
0.325
0.3235
0.323
0.321
0.3165
0.3165
0.315
0.3125
0.3125
0.316
0.317
0.318
0.316
0.3095
0.3165
0.319
0.316
0.3195
0.3195
0.32
0.32
0.316
0.314
0.3185
0.318
0.313
0.3165
0.3185
0.316
0.321
0.3255
0.321
0.3205
0.321
0.318
0.313
0.3095
0.3115
0.313
0.317
0.317
0.3145
0.316
0.3175
0.3155
0.3145
0.3155
0.312
0.3145
0.3115
0.3135
0.3215
0.321
0.3145
0.307
0.318
0.3255
0.321
0.316
0.3145
0.31
0.303
0.3035
0.308
0.3165
0.32
0.318
0.309
0.306
0.3155
0.3205
0.3155
0.312
0.313
0.3135
0.3145
0.3115
0.312
0.3155
0.3135
0.312
0.3125
0.3125
0.313
0.31
0.3075
0.3075
0.31
0.3145
0.3105
0.3095
0.315
0.3165
0.314
0.308
0.3095
0.3095
0.309
0.31
0.3075
0.308
0.3095
0.306
0.302
0.303
0.308
0.31
0.308
0.3045
0.308
0.31
0.307
0.3065
0.3035
0.305
0.3065
0.3055
0.3075
0.307
0.3065
0.302
0.303
0.3075
0.3045
0.3035
0.306
0.305
0.297
0.2945
0.307
0.311
0.2995
0.299
0.304
0.304
0.3045
0.302
0.3025
0.3005
0.295
0.296
0.2985
0.3005
0.3
0.2995
0.299
0.3015
0.304
0.3055
0.3045
0.3055
0.3035
0.2975
0.2995
0.301
0.301
0.3035
0.304
0.2995
0.2945
0.292
0.2935
0.2965
0.296
0.295
0.294
0.2915
0.288
0.287
0.296
0.3105
0.311
0.3065
0.304
0.3055
0.3025
0.302
0.308
0.305
0.3035
0.301
0.295
0.291
0.302
0.3095
0.301
0.2955
0.296
0.2975
0.297
0.2955
0.2975
0.3
0.298
0.298
0.2965
0.296
0.2995
0.299
0.2965
0.2975
0.3015
0.299
0.294
0.295
0.2985
0.2985
0.297
0.296
0.294
0.296
0.2985
0.3
0.3005
0.2965
0.298
0.2985
0.299
0.2935
0.285
0.2955
0.3
0.296
0.2945
0.2895
0.2925
0.2965
0.299
0.2955
0.2925
0.29
0.288
0.2895
0.295
0.301
0.2995
0.2985
0.299
0.2985
0.298
0.3005
0.304
0.3065
0.308
0.3095
0.3055
0.309
0.32
0.3205
0.323
0.3175
0.315
0.3165
0.3185
0.3255
0.326
0.3295
0.3315
0.3315
0.3325
0.3355
0.3355
0.334
0.3335
0.332
0.332
0.333
0.331
0.3295
0.3325
0.335
0.3375
0.3385
0.341
0.3455
0.3525
0.3585
0.3575
0.3585
0.358
0.3595
0.362
0.3595
0.362
0.3635
0.3635
0.365
0.366
0.3645
0.361
0.361
0.3685
0.3725
0.369
0.368
0.3605
0.353
0.351
0.3455
0.345
0.349
0.35
0.3515
0.3515
0.35
0.3475
0.3475
0.351
0.3585
0.3595
0.354
0.3535
0.3555
0.349
0.3405
0.343
0.345
0.339
0.339
0.345
0.3455
0.341
0.334
0.3215
0.3115
0.3095
0.3065
0.3
0.2975
0.293
0.283
0.2815
0.2825
0.278
0.275
0.274
0.2725
0.2755
0.282
0.2815
0.2765
0.2745
0.2755
0.2765
0.278
0.273
0.2735
0.2785
0.274
0.273
0.277
0.279
0.272
0.2695
0.2695
0.267
0.2705
0.2725
0.2695
0.2665
0.2685
0.2665
0.265
0.2645
0.2695
0.271
0.2625
0.265
0.267
0.263
0.265
0.265
0.265
0.2665
0.26
0.261
0.2635
0.2665
0.2735
0.267
0.265
0.2675
0.266
0.269
0.2665
0.2615
0.263
0.2635
0.2605
0.2605
0.262
0.26
0.2545
0.253
0.2565
0.2565
0.2505
0.245
0.2395
0.2395
0.251
0.254
0.248
0.2405
0.231
0.227
0.229
0.2245
0.2215
0.223
0.22
0.219
0.219
0.224
0.236
0.246
0.2565
0.2725
0.289
0.3165
0.3495
0.377
0.4195
0.462
0.496
0.5345
0.576
0.618
0.6495
0.6845
0.7295
0.7685
0.81
0.8515
0.8785
0.897
0.921
0.932
0.9375
0.941
0.932
0.9255
0.929
0.9305
0.924
0.922
0.9135
0.9045
0.887
0.847
0.7955
0.7345
0.676
0.6085
0.533
0.4745
0.409
0.339
0.288
0.2445
0.2035
0.172
0.153
0.1275
0.1
0.096
0.0995
0.101
0.1025
0.109
0.1225
0.1295
0.1395
0.1515
0.1655
0.181
0.1905
0.199
0.212
0.222
0.238
0.251
0.2515
0.259
0.2685
0.269
0.274
0.2925
0.297
0.2925
0.291
0.2905
0.291
0.29
0.2955
0.2945
0.289
0.2925
0.294
0.297
0.301
0.3
0.296
0.295
0.303
0.3015
0.302
0.3005
0.2985
0.3035
0.304
0.3095
0.311
0.309
0.309
0.31
0.3145
0.3195
0.3195
0.3155
0.313
0.318
0.321
0.3165
0.3185
0.321
0.322
0.3265
0.325
0.3215
0.322
0.3265
0.3265
0.3195
0.318
0.321
0.324
0.3275
0.3265
0.327
0.3285
0.3285
0.329
0.3275
0.329
0.3315
0.333
0.332
0.3325
0.336
0.339
0.341
0.338
0.3365
0.3405
0.345
0.3475
0.3455
0.343
0.3455
0.348
0.352
0.3485
0.343
0.343
0.3455
0.3505
0.351
0.3475
0.345
0.349
0.3535
0.3535
0.3525
0.3545
0.3565
0.355
0.357
0.362
0.3615
0.36
0.367
0.365
0.3545
0.36
0.366
0.3615
0.3665
0.3705
0.369
0.3635
0.3595
0.3715
0.381
0.3805
0.371
0.365
0.372
0.3835
0.3865
0.3805
0.38
0.3825
0.384
0.386
0.391
0.394
0.391
0.394
0.397
0.397
0.3975
0.3965
0.4015
0.401
0.4005
0.4005
0.398
0.4025
0.401
0.405
0.412
0.4095
0.4135
0.4165
0.417
0.4195
0.413
0.4145
0.4195
0.417
0.426
0.4305
0.428
0.4285
0.431
0.435
0.436
0.4395
0.438
0.438
0.442
0.44
0.4475
0.454
0.455
0.4625
0.4625
0.4615
0.463
0.461
0.4635
0.461
0.4685
0.4775
0.475
0.4785
0.4805
0.483
0.4895
0.492
0.493
0.496
0.4995
0.5015
0.506
0.5105
0.513
0.5165
0.5215
0.5305
0.5315
0.528
0.531
0.537
0.544
0.5465
0.5495
0.5535
0.556
0.561
0.5675
0.571
0.57
0.5775
0.5805
0.582
0.5885
0.5895
0.591
0.5935
0.597
0.6035
0.6115
0.613
0.6105
0.611
0.615
0.6255
0.631
0.6325
0.636
0.6395
0.6405
0.644
0.6485
0.65
0.654
0.658
0.657
0.6575
0.6585
0.658
0.6595
0.663
0.6685
0.667
0.664
0.663
0.6645
0.671
0.669
0.6675
0.6635
0.6585
0.6645
0.6685
0.6715
0.6715
0.664
0.66
0.658
0.6575
0.656
0.6515
0.649
0.6485
0.646
0.644
0.642
0.633
0.6285
0.6215
0.613
0.607
0.5995
0.5945
0.5915
0.5845
0.572
0.5655
0.5605
0.557
0.551
0.536
0.531
0.526
0.5085
0.501
0.5045
0.4995
0.493
0.491
0.4825
0.4725
0.4625
0.4545
0.453
0.451
0.445
0.4395
0.4345
0.4245
0.4195
0.4195
0.4135
0.407
0.4045
0.4005
0.392
0.39
0.3875
0.3805
0.3815
0.376
0.37
0.369
0.3665
0.3675
0.364
0.356
0.3555
0.3635
0.3695
0.367
0.3615
0.356
0.349
0.345
0.3435
0.3475
0.3485
0.346
0.3455
0.343
0.3425
0.3425
0.342
0.338
0.333
0.335
0.336
0.3365
0.338
0.333
0.3335
0.332
0.333
0.336
0.335
0.336
0.3335
0.3345
0.3345
0.3325
0.331
0.329
0.33
0.331
0.335
0.3345
0.332
0.3295
0.3285
0.332
0.3295
0.333
0.3275
0.324
0.326
0.328
0.324
0.314
0.326
0.3405
0.3405
0.333
0.3295
0.33
0.3305
0.3275
0.3265
0.333
0.333
0.3265
0.3265
0.324
0.32
0.324
0.324
0.324
0.326
0.33
0.3315
0.329
0.326
0.3265
0.33
0.3285
0.327
0.328
0.3275
0.326
0.33
0.3325
0.3305
0.3295
0.331
0.3325
0.3305
0.328
0.327
0.3295
0.3315
0.329
0.33
0.3305
0.3285
0.33
0.327
0.322
0.3185
0.324
0.333
0.3275
0.3265
0.3335
0.3315
0.328
0.3265
0.3295
0.3325
0.3335
0.3355
0.329
0.3275
0.3355
0.3355
0.332
0.3335
0.3325
0.329
0.3305
0.332
0.3305
0.3295
0.3245
0.322
0.3275
0.3285
0.33
0.3285
0.323
0.3245
0.333
0.334
0.3255
0.3195
0.32
0.329
0.337
0.338
0.336
0.3315
0.328
0.327
0.327
0.3305
0.3315
0.3285
0.33
0.3325
0.33
0.329
0.331
0.335
0.3335
0.3335
0.336
0.3325
0.3355
0.339
0.3385
0.334
0.3315
0.3315
0.327
0.327
0.3275
0.3275
0.322
0.323
0.3305
0.325
0.334
0.3385
0.33
0.329
0.326
0.329
0.332
0.3325
0.331
0.328
0.332
0.334
0.328
0.32
0.3255
0.3365
0.334
0.3285
0.3255
0.3285
0.33
0.328
0.324
0.318
0.3255
0.3295
0.324
0.3235
0.322
0.32
0.32
0.322
0.32
0.318
0.319
0.321
0.323
0.3205
0.3245
0.331
0.3265
0.331
0.333
0.3285
0.3175
0.3025
0.3095
0.3255
0.335
0.3285
0.3185
0.3215
0.3245
0.3265
0.327
0.3265
0.326
0.3255
0.325
0.3235
0.322
0.32
0.3215
0.3195
0.3215
0.3265
0.3255
0.3245
0.3205
0.3135
0.3155
0.3205
0.3175
0.3165
0.3215
0.323
0.322
0.3225
0.3215
0.324
0.3255
0.32
0.319
0.3195
0.317
0.321
0.3245
0.326
0.32
0.3125
0.3145
0.3165
0.3165
0.317
0.3145
0.3085
0.313
0.3195
0.3205
0.3195
0.319
0.322
0.319
0.3175
0.316
0.3125
0.312
0.313
0.3085
0.313
0.3195
0.3155
0.318
0.3165
0.317
0.3155
0.3095
0.3155
0.32
0.32
0.317
0.312
0.3155
0.3175
0.3195
0.3195
0.3105
0.3105
0.313
0.311
0.3135
0.312
0.308
0.315
0.319
0.3165
0.317
0.3175
0.318
0.317
0.319
0.3175
0.317
0.3165
0.3185
0.3185
0.3135
0.3165
0.315
0.309
0.3075
0.309
0.3125
0.3185
0.3165
0.312
0.317
0.318
0.3145
0.31
0.309
0.3115
0.313
0.3145
0.313
0.3165
0.323
0.3185
0.3095
0.312
0.315
0.3155
0.3165
0.314
0.3135
0.314
0.3165
0.316
0.315
0.315
0.3135
0.3115
0.3105
0.313
0.316
0.3165
0.317
0.3185
0.3165
0.315
0.3165
0.319
0.319
0.3205
0.319
0.3115
0.315
0.322
0.321
0.32
0.33
0.3335
0.3285
0.334
0.3405
0.335
0.3245
0.33
0.342
0.3455
0.3485
0.354
0.3565
0.3565
0.357
0.3525
0.35
0.351
0.35
0.35
0.347
0.3495
0.358
0.357
0.355
0.355
0.354
0.352
0.355
0.367
0.3735
0.373
0.374
0.3765
0.3785
0.38
0.382
0.3785
0.3735
0.3755
0.3825
0.3875
0.3865
0.386
0.3865
0.383
0.381
0.383
0.385
0.3815
0.385
0.386
0.3805
0.381
0.3755
0.37
0.3695
0.3675
0.365
0.366
0.3695
0.3695
0.37
0.372
0.377
0.3785
0.375
0.379
0.3765
0.3665
0.3615
0.357
0.3655
0.3705
0.3635
0.3605
0.356
0.3515
0.34
0.331
0.3285
0.324
0.323
0.321
0.3195
0.314
0.304
0.3
0.293
0.288
0.2955
0.301
0.292
0.2865
0.292
0.293
0.295
0.2965
0.292
0.292
0.2925
0.2895
0.2895
0.2905
0.2895
0.29
0.296
0.2995
0.2905
0.284
0.286
0.288
0.291
0.2905
0.2895
0.289
0.2875
0.2815
0.2835
0.282
0.277
0.28
0.2845
0.2905
0.287
0.285
0.282
0.28
0.2845
0.285
0.285
0.285
0.2825
0.277
0.275
0.277
0.275
0.275
0.28
0.278
0.28
0.2825
0.281
0.279
0.277
0.2795
0.2765
0.2765
0.2765
0.276
0.2775
0.2765
0.275
0.272
0.2715
0.268
0.26
0.259
0.26
0.2575
0.2515
0.244
0.243
0.2425
0.24
0.2285
0.219
0.2265
0.2375
0.2435
0.241
0.2435
0.255
0.27
0.2885
0.305
0.339
0.3755
0.411
0.455
0.496
0.5355
0.5675
0.6075
0.6515
0.685
0.7235
0.7745
0.8165
0.8505
0.8865
0.914
0.938
0.961
0.9725
0.9885
0.996
0.983
0.9715
0.963
0.9625
0.959
0.9485
0.94
0.9305
0.9095
0.8595
0.802
0.7375
0.6655
0.5945
0.529
0.4745
0.4095
0.3395
0.289
0.2435
0.2015
0.181
0.158
0.1295
0.112
0.111
0.1155
0.1105
0.1125
0.123
0.1285
0.137
0.148
0.163
0.178
0.186
0.2005
0.2125
0.2255
0.2425
0.2535
0.264
0.276
0.283
0.2815
0.283
0.287
0.292
0.297
0.298
0.2975
0.2965
0.307
0.2985
0.285
0.292
0.302
0.317
0.3125
0.3045
0.307
0.309
0.3075
0.3055
0.31
0.3105
0.309
0.311
0.314
0.314
0.3145
0.322
0.3225
0.3195
0.319
0.321
0.3265
0.324
0.3225
0.326
0.3275
0.3255
0.326
0.3285
0.324
0.3275
0.3315
0.333
0.3355
0.334
0.3355
0.333
0.3225
0.323
0.3375
0.347
0.3445
0.3405
0.343
0.346
0.344
0.341
0.343
0.3425
0.3405
0.3485
0.3525
0.3455
0.3415
0.3435
0.346
0.349
0.3515
0.35
0.351
0.35
0.353
0.3585
0.3535
0.3505
0.35
0.3485
0.3505
0.355
0.356
0.356
0.36
0.3615
0.362
0.363
0.3635
0.366
0.3685
0.3705
0.371
0.369
0.3685
0.368
0.364
0.3635
0.3735
0.3785
0.369
0.37
0.376
0.3735
0.3705
0.3665
0.3735
0.382
0.384
0.384
0.383
0.3805
0.3795
0.3925
0.3965
0.3905
0.3895
0.394
0.3965
0.389
0.3855
0.3905
0.391
0.3935
0.398
0.3975
0.3995
0.4015
0.401
0.402
0.4025
0.403
0.3985
0.403
0.4115
0.404
0.404
0.4145
0.4185
0.42
0.4195
0.4205
0.423
0.423
0.427
0.4265
0.425
0.4315
0.4315
0.4285
0.4355
0.444
0.4455
0.4475
0.4515
0.449
0.4435
0.4415
0.446
0.453
0.4575
0.461
0.464
0.466
0.467
0.469
0.4685
0.469
0.4715
0.476
0.481
0.4785
0.4825
0.4905
0.4945
0.496
0.495
0.4975
0.5005
0.504
0.5065
0.5105
0.5185
0.52
0.516
0.521
0.5265
0.5325
0.539
0.5395
0.5385
0.5425
0.5475
0.548
0.5575
0.564
0.565
0.5695
0.5745
0.578
0.577
0.5785
0.587
0.5955
0.596
0.5975
0.5995
0.602
0.607
0.6075
0.6105
0.6155
0.6175
0.621
0.6275
0.626
0.6205
0.6255
0.644
0.6475
0.644
0.6485
0.648
0.6485
0.6505
0.657
0.6635
0.6675
0.668
0.67
0.666
0.6635
0.6685
0.671
0.674
0.6745
0.6785
0.6735
0.672
0.6795
0.6775
0.678
0.6745
0.675
0.677
0.6765
0.679
0.672
0.6735
0.6725
0.668
0.666
0.66
0.6565
0.649
0.642
0.6305
0.629
0.6365
0.636
0.625
0.613
0.6075
0.6005
0.5965
0.5935
0.5835
0.5705
0.562
0.5585
0.556
0.55
0.5445
0.5355
0.527
0.5235
0.5195
0.511
0.4995
0.493
0.4855
0.48
0.476
0.468
0.462
0.458
0.4535
0.4475
0.4355
0.431
0.436
0.4235
0.4125
0.414
0.4095
0.404
0.3965
0.3945
0.393
0.39
0.3865
0.381
0.377
0.3695
0.3665
0.366
0.361
0.3605
0.3665
0.367
0.3625
0.36
0.357
0.351
0.3435
0.3355
0.333
0.338
0.341
0.342
0.344
0.343
0.345
0.3465
0.344
0.342
0.342
0.3445
0.3415
0.332
0.3255
0.3265
0.3275
0.33
0.3335
0.33
0.3265
0.3285
0.333
0.3335
0.3335
0.3355
0.3365
0.333
0.323
0.3195
0.3275
0.3315
0.328
0.33
0.329
0.327
0.3295
0.3305
0.327
0.3265
0.3375
0.333
0.3275
0.3295
0.321
0.3265
0.3385
0.3375
0.3285
0.3285
0.3325
0.326
0.3275
0.3285
0.3225
0.3265
0.332
0.3315
0.332
0.3315
0.3295
0.333
0.331
0.323
0.321
0.3225
0.324
0.3245
0.3245
0.3275
0.3325
0.3275
0.3215
0.325
0.3305
0.3315
0.3245
0.325
0.3275
0.326
0.3285
0.327
0.328
0.33
0.328
0.3305
0.331
0.328
0.3245
0.327
0.3285
0.3255
0.3295
0.33
0.329
0.33
0.333
0.3305
0.327
0.324
0.32
0.3265
0.3305
0.3295
0.326
0.3215
0.3235
0.3295
0.331
0.329
0.3275
0.332
0.333
0.332
0.331
0.3265
0.3285
0.3245
0.3175
0.3235
0.325
0.3235
0.326
0.3265
0.3225
0.317
0.3235
0.331
0.327
0.322
0.3215
0.321
0.3245
0.3285
0.331
0.3345
0.327
0.3265
0.3355
0.3325
0.326
0.331
0.332
0.3325
0.333
0.3275
0.3275
0.3285
0.328
0.3255
0.3245
0.3225
0.3235
0.325
0.3255
0.3235
0.3205
0.3235
0.3285
0.3315
0.329
0.325
0.3225
0.3275
0.3275
0.3205
0.3135
0.3105
0.3195
0.324
0.3265
0.324
0.3205
0.322
0.319
0.319
0.3255
0.325
0.324
0.3315
0.328
0.319
0.3175
0.318
0.3185
0.3185
0.3205
0.3195
0.318
0.3165
0.3185
0.3245
0.323
0.322
0.3235
0.3215
0.3205
0.3175
0.3115
0.311
0.3175
0.3205
0.322
0.3285
0.328
0.3215
0.317
0.3145
0.3175
0.327
0.327
0.3255
0.3215
0.3125
0.316
0.315
0.312
0.3145
0.317
0.317
0.3175
0.3195
0.3195
0.3175
0.312
0.3115
0.312
0.311
0.313
0.3125
0.313
0.3165
0.3135
0.3095
0.309
0.3085
0.315
0.3155
0.307
0.3075
0.317
0.326
0.319
0.313
0.315
0.309
0.3045
0.3045
0.3115
0.3125
0.309
0.3055
0.301
0.3085
0.3125
0.3095
0.307
0.3035
0.3075
0.311
0.3045
0.3135
0.3255
0.318
0.3185
0.3175
0.306
0.305
0.309
0.312
0.311
0.313
0.3085
0.2955
0.2995
0.315
0.318
0.311
0.308
0.3075
0.3075
0.308
0.309
0.308
0.3075
0.309
0.3055
0.307
0.3105
0.311
0.3105
0.3155
0.3185
0.313
0.3085
0.306
0.309
0.307
0.307
0.31
0.3095
0.31
0.3045
0.307
0.3105
0.307
0.3
0.301
0.309
0.3095
0.313
0.3165
0.3155
0.3135
0.315
0.315
0.3125
0.31
0.3075
0.304
0.3025
0.307
0.3065
0.3025
0.3035
0.312
0.318
0.312
0.3085
0.306
0.3075
0.306
0.302
0.3055
0.3045
0.2965
0.3
0.3105
0.311
0.308
0.3045
0.2965
0.2945
0.2985
0.303
0.31
0.3075
0.3045
0.306
0.303
0.3045
0.306
0.301
0.2935
0.2905
0.2985
0.31
0.308
0.299
0.296
0.3025
0.312
0.3145
0.3115
0.3095
0.3105
0.3155
0.3145
0.313
0.319
0.315
0.3075
0.313
0.3125
0.314
0.3235
0.33
0.3255
0.317
0.33
0.3355
0.341
0.3365
0.329
0.347
0.351
0.3565
0.3565
0.3475
0.343
0.3435
0.348
0.347
0.3475
0.3495
0.3515
0.346
0.3425
0.339
0.3395
0.344
0.3505
0.356
0.3485
0.3515
0.3605
0.371
0.3805
0.381
0.378
0.3685
0.364
0.368
0.3735
0.3775
0.374
0.371
0.367
0.367
0.3785
0.386
0.3805
0.376
0.377
0.374
0.3645
0.36
0.365
0.3585
0.3525
0.3565
0.3615
0.3645
0.362
0.362
0.359
0.365
0.3745
0.3715
0.3715
0.3665
0.36
0.361
0.3605
0.365
0.3615
0.352
0.3525
0.361
0.363
0.3465
0.343
0.34
0.323
0.308
0.3025
0.3095
0.3135
0.31
0.2955
0.2915
0.302
0.2955
0.2845
0.2815
0.2875
0.298
0.2975
0.286
0.282
0.2915
0.287
0.2845
0.2915
0.285
0.285
0.2945
0.2905
0.2835
0.2865
0.289
0.287
0.282
0.2805
0.2835
0.2815
0.2845
0.281
0.2755
0.286
0.287
0.281
0.2755
0.276
0.277
0.276
0.2805
0.2785
0.277
0.284
0.287
0.284
0.2785
0.273
0.278
0.2845
0.2815
0.2755
0.273
0.278
0.2805
0.278
0.2765
0.2735
0.2745
0.2775
0.278
0.28
0.2745
0.2625
0.261
0.264
0.269
0.271
0.2705
0.274
0.282
0.285
0.2715
0.266
0.269
0.2675
0.2635
0.2565
0.2515
0.241
0.233
0.23
0.229
0.229
0.231
0.2335
0.233
0.244
0.247
0.2515
0.2635
0.271
0.2885
0.3085
0.3305
0.357
0.397
0.4445
0.4835
0.518
0.5545
0.5975
0.639
0.67
0.7155
0.764
0.799
0.8435
0.8775
0.896
0.909
0.9315
0.9445
0.951
0.9675
0.969
0.9595
0.9485
0.947
0.948
0.9385
0.9285
0.9165
0.8855
0.8415
0.788
0.72
0.6525
0.5815
0.5165
0.457
0.392
0.3295
0.28
0.2445
0.2015
0.169
0.148
0.12
0.107
0.111
0.117
0.116
0.1125
0.122
0.128
0.1345
0.1465
0.156
0.1715
0.193
0.2015
0.2025
0.2195
0.229
0.242
0.2635
0.267
0.268
0.2725
0.2675
0.273
0.283
0.2785
0.279
0.2905
0.302
0.306
0.304
0.3025
0.2985
0.3035
0.314
0.3105
0.304
0.305
0.313
0.3135
0.3095
0.314
0.318
0.315
0.3085
0.3105
0.314
0.315
0.3145
0.3115
0.318
0.321
0.317
0.3185
0.3165
0.321
0.3225
0.3255
0.3235
0.32
0.3325
0.333
0.3315
0.3305
0.325
0.3355
0.342
0.33
0.3295
0.3425
0.3445
0.333
0.334
0.34
0.3415
0.3425
0.335
0.3365
0.344
0.341
0.3355
0.3345
0.3375
0.342
0.3435
0.342
0.3435
0.3555
0.3495
0.336
0.336
0.337
0.3495
0.354
0.352
0.354
0.361
0.3675
0.357
0.3545
0.3615
0.3655
0.3595
0.349
0.3525
0.3605
0.3555
0.3565
0.3565
0.356
0.3655
0.369
0.3745
0.367
0.3635
0.364
0.364
0.369
0.368
0.3755
0.3715
0.365
0.3645
0.362
0.3655
0.3735
0.38
0.376
0.379
0.38
0.376
0.38
0.3825
0.3885
0.388
0.389
0.3895
0.387
0.394
0.3885
0.3845
0.3865
0.3895
0.398
0.394
0.3935
0.3935
0.3985
0.401
0.4005
0.401
0.3915
0.3975
0.405
0.408
0.414
0.4115
0.4095
0.4105
0.4135
0.415
0.4085
0.415
0.4295
0.431
0.4285
0.425
0.4245
0.432
0.437
0.4355
0.4355
0.436
0.437
0.44
0.447
0.448
0.445
0.446
0.45
0.4615
0.457
0.4505
0.4515
0.4495
0.468
0.4795
0.473
0.476
0.482
0.4845
0.4755
0.4735
0.488
0.4875
0.484
0.489
0.486
0.4905
0.492
0.491
0.5035
0.5085
0.5105
0.521
0.5235
0.5215
0.5335
0.5395
0.5375
0.539
0.545
0.5475
0.5445
0.5405
0.541
0.5625
0.571
0.5705
0.574
0.5765
0.5825
0.581
0.587
0.595
0.5955
0.6005
0.604
0.6035
0.611
0.6165
0.6155
0.6205
0.6235
0.615
0.613
0.6315
0.6405
0.635
0.6385
0.639
0.6435
0.6445
0.642
0.6485
0.6475
0.647
0.656
0.667
0.6655
0.658
0.6605
0.669
0.671
0.667
0.664
0.668
0.662
0.654
0.6685
0.6775
0.667
0.6605
0.6665
0.669
0.6645
0.6575
0.658
0.6605
0.654
0.6545
0.6515
0.6425
0.633
0.6285
0.63
0.6285
0.63
0.6155
0.614
0.6235
0.601
0.5905
0.5935
0.59
0.5795
0.5655
0.5575
0.545
0.5415
0.539
0.529
0.529
0.5275
0.5235
0.5135
0.497
0.488
0.4825
0.48
0.4695
0.458
0.4525
0.4375
0.437
0.439
0.4295
0.43
0.431
0.426
0.4215
0.4095
0.4
0.3915
0.3895
0.3965
0.3885
0.382
0.381
0.372
0.3585
0.365
0.374
0.3615
0.3525
0.354
0.359
0.359
0.3505
0.343
0.346
0.346
0.348
0.3465
0.336
0.3325
0.332
0.3345
0.3315
0.3255
0.3265
0.3285
0.3295
0.3335
0.332
0.3255
0.3275
0.329
0.322
0.321
0.3265
0.3315
0.3335
0.329
0.3275
0.3275
0.32
0.318
0.3175
0.3245
0.3295
0.3215
0.32
0.324
0.3195
0.312
0.3195
0.323
0.32
0.3165
0.3175
0.3195
0.3155
0.3165
0.316
0.31
0.307
0.3165
0.322
0.317
0.3185
0.324
0.315
0.313
0.322
0.32
0.315
0.3105
0.315
0.3125
0.307
0.3135
0.324
0.3275
0.3215
0.3175
0.321
0.3285
0.3215
0.3175
0.325
0.319
0.312
0.3105
0.3105
0.3185
0.322
0.3145
0.313
0.317
0.317
0.319
0.3165
0.3105
0.3155
0.3215
0.3215
0.3265
0.3195
0.306
0.302
0.31
0.324
0.3225
0.316
0.312
0.313
0.3235
0.3245
0.3135
0.3125
0.3145
0.314
0.3085
0.307
0.3045
0.311
0.3185
0.312
0.322
0.331
0.332
0.326
0.318
0.3195
0.318
0.3185
0.3285
0.3265
0.312
0.312
0.3185
0.3215
0.3245
0.324
0.318
0.3215
0.321
0.3155
0.321
0.3265
0.3245
0.315
0.319
0.3295
0.3275
0.326
0.331
0.3365
0.3275
0.319
0.3165
0.3195
0.3165
0.3065
0.3185
0.3285
0.327
0.3255
0.3205
0.317
0.319
0.327
0.326
0.327
0.326
0.319
0.323
0.3195
0.3185
0.3175
0.311
0.3175
0.3255
0.32
0.3135
0.3155
0.323
0.3335
0.316
0.3115
0.3215
0.318
0.3195
0.319
0.3145
0.311
0.3245
0.32
0.306
0.3105
0.3185
0.3185
0.3105
0.318
0.316
0.316
0.32
0.3145
0.312
0.31
0.323
0.3295
0.3205
0.3125
0.312
0.317
0.3185
0.319
0.3185
0.312
0.3095
0.303
0.2945
0.304
0.312
0.313
0.3155
0.3155
0.316
0.313
0.311
0.3075
0.308
0.3085
0.314
0.31
0.2995
0.3105
0.3125
0.31
0.3075
0.303
0.3045
0.304
0.306
0.3085
0.307
0.3125
0.315
0.309
0.306
0.3095
0.316
0.309
0.3005
0.308
0.318
0.3115
0.3
0.3025
0.3085
0.3075
0.3055
0.316
0.3205
0.314
0.314
0.316
0.3165
0.3125
0.3105
0.3095
0.304
0.3075
0.308
0.298
0.2945
0.296
0.2985
0.3075
0.3055
0.297
0.3115
0.3205
0.318
0.31
0.304
0.307
0.304
0.3035
0.303
0.3045
0.3015
0.3
0.305
0.309
0.306
0.3015
0.305
0.3055
0.314
0.311
0.2985
0.3
0.3005
0.308
0.312
0.2985
0.296
0.299
0.301
0.298
0.2995
0.304
0.296
0.2895
0.2945
0.309
0.3075
0.304
0.308
0.302
0.3005
0.2995
0.3
0.302
0.299
0.3
0.3015
0.3065
0.299
0.2905
0.295
0.2975
0.3025
0.303
0.2925
0.2955
0.3055
0.316
0.317
0.3005
0.292
0.297
0.3045
0.297
0.299
0.306
0.3065
0.305
0.3005
0.299
0.2995
0.302
0.297
0.303
0.302
0.2955
0.309
0.3005
0.291
0.3025
0.2985
0.2995
0.3045
0.3025
0.3035
0.303
0.307
0.305
0.302
0.3015
0.2975
0.308
0.319
0.3095
0.3065
0.31
0.313
0.3195
0.322
0.323
0.319
0.3125
0.305
0.312
0.3215
0.321
0.32
0.3165
0.3255
0.3335
0.3355
0.3395
0.3375
0.335
0.3405
0.345
0.337
0.329
0.3335
0.3395
0.3335
0.3265
0.3315
0.3345
0.334
0.3335
0.3275
0.3315
0.3335
0.3395
0.3635
0.357
0.349
0.3625
0.3595
0.364
0.3695
0.3755
0.381
0.366
0.3615
0.3595
0.3545
0.353
0.3475
0.3545
0.359
0.365
0.369
0.37
0.3705
0.3625
0.3575
0.353
0.359
0.352
0.342
0.345
0.3455
0.3615
0.3635
0.3505
0.349
0.363
0.373
0.364
0.3615
0.36
0.3635
0.361
0.3575
0.3525
0.342
0.3485
0.342
0.3315
0.325
0.3165
0.315
0.308
0.305
0.3045
0.3015
0.295
0.2935
0.294
0.284
0.2825
0.285
0.2895
0.289
0.2855
0.2875
0.288
0.288
0.29
0.2865
0.2855
0.291
0.288
0.286
0.284
0.276
0.278
0.2845
0.2855
0.2805
0.2765
0.281
0.2815
0.2785
0.276
0.2785
0.281
0.2785
0.2775
0.2805
0.281
0.2795
0.283
0.2825
0.274
0.269
0.2685
0.271
0.2775
0.2715
0.265
0.27
0.2745
0.2785
0.2735
0.2625
0.271
0.2845
0.282
0.28
0.2735
0.2645
0.266
0.2615
0.267
0.2735
0.274
0.278
0.2715
0.269
0.2655
0.267
0.273
0.272
0.276
0.272
0.268
0.274
0.2705
0.262
0.262
0.2535
0.2505
0.25
0.2395
0.244
0.244
0.244
0.2455
0.237
0.2375
0.245
0.2475
0.247
0.255
0.2665
0.279
0.2935
0.318
0.3455
0.3725
0.41
0.4415
0.475
0.51
0.5365
0.5735
0.6095
0.635
0.674
0.7125
0.744
0.7725
0.7925
0.802
0.8175
0.837
0.8515
0.8645
0.864
0.8545
0.8465
0.8455
0.8495
0.849
0.842
0.834
0.812
0.7795
0.751
0.7045
0.638
0.572
0.5125
0.4595
0.4015
0.333
0.2785
0.246
0.2135
0.1815
0.156
0.136
0.122
0.1135
0.1135
0.1165
0.1135
0.1125
0.12
0.1345
0.1415
0.148
0.1585
0.1705
0.177
0.187
0.2075
0.222
0.2355
0.241
0.258
0.273
0.267
0.2695
0.275
0.2795
0.2825
0.2865
0.293
0.296
0.2995
0.2955
0.2975
0.3025
0.296
0.294
0.2955
0.301
0.3055
0.308
0.3065
0.3005
0.2965
0.297
0.296
0.2975
0.3065
0.309
0.3135
0.316
0.3135
0.3145
0.3145
0.3145
0.3115
0.3125
0.3115
0.311
0.3185
0.3175
0.3145
0.309
0.305
0.3165
0.321
0.316
0.315
0.321
0.331
0.3335
0.3335
0.3305
0.323
0.3195
0.3265
0.33
0.328
0.3295
0.328
0.328
0.3315
0.3375
0.338
0.3315
0.332
0.3335
0.3295
0.327
0.33
0.334
0.335
0.3405
0.3425
0.3395
0.3395
0.3425
0.3465
0.341
0.338
0.343
0.3415
0.3395
0.341
0.343
0.3435
0.346
0.3495
0.3495
0.3465
0.348
0.351
0.3505
0.3525
0.3535
0.355
0.3565
0.358
0.358
0.361
0.364
0.3665
0.3695
0.3615
0.3585
0.354
0.351
0.362
0.3655
0.36
0.358
0.3625
0.369
0.37
0.366
0.369
0.3725
0.3715
0.3735
0.3745
0.376
0.3785
0.3785
0.38
0.3815
0.385
0.3815
0.3785
0.3805
0.38
0.3865
0.3915
0.3945
0.3915
0.387
0.3885
0.394
0.3985
0.3945
0.3955
0.395
0.393
0.3985
0.403
0.4005
0.397
0.4055
0.416
0.414
0.4145
0.4155
0.4115
0.413
0.4145
0.4085
0.412
0.429
0.436
0.4365
0.439
0.436
0.4315
0.436
0.445
0.444
0.444
0.4465
0.4445
0.4475
0.45
0.45
0.4475
0.451
0.4565
0.46
0.466
0.473
0.4795
0.478
0.4785
0.485
0.497
0.502
0.49
0.489
0.4965
0.502
0.5065
0.5085
0.512
0.514
0.517
0.5185
0.527
0.529
0.5255
0.5345
0.5425
0.545
0.538
0.5415
0.552
0.5545
0.556
0.5585
0.5655
0.574
0.5755
0.5765
0.5845
0.5815
0.5865
0.592
0.588
0.597
0.5965
0.594
0.595
0.6005
0.607
0.6055
0.61
0.618
0.623
0.622
0.624
0.628
0.629
0.6305
0.63
0.6295
0.6325
0.6385
0.641
0.6375
0.6385
0.639
0.64
0.641
0.6405
0.642
0.645
0.65
0.651
0.6505
0.648
0.645
0.642
0.642
0.6405
0.64
0.6365
0.6285
0.6205
0.617
0.6155
0.6115
0.606
0.6025
0.592
0.579
0.5915
0.5995
0.5805
0.57
0.5705
0.571
0.563
0.55
0.544
0.541
0.538
0.5295
0.522
0.51
0.498
0.494
0.4885
0.478
0.478
0.476
0.465
0.456
0.448
0.441
0.4325
0.4305
0.4325
0.43
0.4205
0.414
0.4125
0.4075
0.4005
0.39
0.385
0.384
0.3785
0.3735
0.373
0.3715
0.3685
0.3655
0.3595
0.3595
0.358
0.348
0.348
0.3505
0.346
0.349
0.352
0.3425
0.335
0.335
0.335
0.3345
0.332
0.325
0.3225
0.3225
0.3215
0.3215
0.3245
0.3265
0.3165
0.312
0.322
0.324
0.3195
0.314
0.312
0.3175
0.3165
0.313
0.314
0.314
0.313
0.307
0.307
0.3075
0.308
0.319
0.319
0.315
0.3105
0.3085
0.31
0.3085
0.296
0.2935
0.3095
0.3165
0.317
0.305
0.295
0.2995
0.308
0.3125
0.306
0.3015
0.309
0.3135
0.309
0.31
0.3125
0.311
0.309
0.3075
0.3045
0.2995
0.3045
0.3095
0.311
0.3125
0.306
0.303
0.305
0.313
0.315
0.3125
0.3135
0.3115
0.3105
0.31
0.3105
0.311
0.313
0.313
0.311
0.3105
0.308
0.3075
0.3105
0.3105
0.3125
0.3175
0.3175
0.3105
0.305
0.3095
0.315
0.3145
0.309
0.3075
0.3115
0.3095
0.309
0.3135
0.315
0.313
0.311
0.3115
0.316
0.3155
0.31
0.3065
0.312
0.314
0.311
0.314
0.314
0.315
0.3115
0.3055
0.3135
0.3205
0.313
0.3105
0.314
0.3115
0.3075
0.3095
0.3165
0.319
0.3205
0.32
0.316
0.3145
0.315
0.31
0.307
0.3085
0.312
0.315
0.317
0.3205
0.3185
0.314
0.3115
0.3095
0.305
0.312
0.319
0.313
0.3105
0.3155
0.314
0.3045
0.3035
0.3115
0.3095
0.3095
0.3185
0.3195
0.323
0.3235
0.3195
0.3185
0.3165
0.3145
0.312
0.312
0.3135
0.3115
0.313
0.3135
0.311
0.312
0.314
0.3165
0.317
0.32
0.3215
0.3205
0.3185
0.315
0.313
0.313
0.3085
0.3065
0.309
0.3055
0.31
0.3135
0.312
0.312
0.312
0.312
0.3125
0.3125
0.311
0.31
0.3075
0.3055
0.307
0.309
0.3095
0.311
0.31
0.3035
0.3065
0.312
0.313
0.3105
0.3085
0.314
0.312
0.301
0.3015
0.3105
0.307
0.305
0.3075
0.3005
0.2955
0.299
0.305
0.304
0.31
0.3125
0.306
0.307
0.3065
0.3025
0.2995
0.298
0.296
0.299
0.3045
0.3055
0.3075
0.308
0.2995
0.2905
0.3025
0.3065
0.299
0.298
0.2985
0.3005
0.3005
0.298
0.2985
0.3075
0.3055
0.302
0.3075
0.311
0.31
0.305
0.303
0.304
0.308
0.3075
0.3085
0.312
0.306
0.3045
0.3095
0.314
0.3075
0.2975
0.296
0.2905
0.291
0.2955
0.297
0.3015
0.304
0.2985
0.301
0.301
0.291
0.292
0.295
0.292
0.2965
0.308
0.3075
0.303
0.299
0.2965
0.3015
0.302
0.3015
0.3005
0.297
0.298
0.301
0.3025
0.304
0.3005
0.2975
0.299
0.3
0.301
0.3015
0.302
0.2985
0.296
0.2965
0.3005
0.302
0.3025
0.303
0.301
0.305
0.3035
0.304
0.3035
0.2965
0.2955
0.297
0.3
0.3035
0.295
0.2925
0.2915
0.2825
0.29
0.3035
0.3025
0.2995
0.3025
0.2985
0.2975
0.3015
0.3045
0.304
0.3005
0.299
0.298
0.2995
0.3015
0.3
0.2965
0.2975
0.301
0.303
0.3045
0.297
0.2905
0.2925
0.2935
0.29
0.2915
0.2945
0.291
0.288
0.2935
0.301
0.3025
0.2985
0.291
0.292
0.3
0.3035
0.303
0.3015
0.305
0.304
0.3005
0.3025
0.304
0.3055
0.3045
0.3045
0.305
0.308
0.313
0.316
0.3155
0.315
0.3135
0.318
0.3225
0.319
0.3225
0.324
0.322
0.322
0.3255
0.3325
0.3365
0.337
0.332
0.336
0.3365
0.3295
0.331
0.3335
0.3335
0.3365
0.3375
0.334
0.333
0.3315
0.334
0.337
0.338
0.344
0.343
0.3405
0.3465
0.3505
0.357
0.36
0.3585
0.353
0.353
0.356
0.355
0.3615
0.3635
0.3645
0.3645
0.371
0.376
0.369
0.3655
0.3695
0.3695
0.3655
0.368
0.367
0.3555
0.347
0.346
0.3525
0.3525
0.347
0.348
0.35
0.3525
0.352
0.354
0.357
0.359
0.361
0.357
0.3545
0.352
0.356
0.354
0.3485
0.3445
0.3425
0.351
0.348
0.3345
0.318
0.308
0.3015
0.2965
0.2965
0.297
0.298
0.2925
0.288
0.2875
0.287
0.2875
0.2865
0.2815
0.28
0.2805
0.2795
0.279
0.277
0.2775
0.2785
0.2785
0.2795
0.2795
0.2805
0.2805
0.28
0.279
0.2805
0.28
0.2755
0.278
0.279
0.2775
0.2755
0.272
0.276
0.279
0.2725
0.273
0.2755
0.272
0.271
0.2675
0.2665
0.2765
0.279
0.272
0.2685
0.2695
0.2725
0.2695
0.267
0.2705
0.271
0.269
0.2675
0.268
0.266
0.264
0.2575
0.261
0.27
0.2685
0.268
0.2665
0.2655
0.2655
0.2625
0.263
0.2635
0.261
0.264
0.263
0.2575
0.26
0.2575
0.253
0.251
0.2495
0.248
0.243
0.2345
0.219
0.218
0.2295
0.2305
0.2245
0.2195
0.2195
0.218
0.2175
0.225
0.229
0.2355
0.24
0.256
0.282
0.3025
0.3425
0.3735
0.399
0.4415
0.4795
0.5145
0.5535
0.5945
0.631
0.659
0.696
0.7365
0.773
0.814
0.848
0.8785
0.903
0.9115
0.922
0.9315
0.93
0.925
0.9225
0.9235
0.9185
0.911
0.903
0.894
0.8865
0.8495
0.7965
0.745
0.6875
0.625
0.5535
0.4905
0.437
0.3735
0.3105
0.264
0.2225
0.1885
0.1645
0.1435
0.1205
0.1035
0.106
0.0975
0.098
0.116
0.1195
0.128
0.143
0.153
0.1615
0.168
0.176
0.191
0.2
0.214
0.2325
0.2395
0.248
0.265
0.272
0.271
0.271
0.2745
0.283
0.2905
0.2925
0.2895
0.2925
0.292
0.2915
0.2945
0.296
0.298
0.297
0.2975
0.297
0.2945
0.293
0.2935
0.2965
0.296
0.2975
0.2965
0.297
0.303
0.3015
0.3025
0.3075
0.304
0.2965
0.299
0.308
0.307
0.303
0.308
0.309
0.306
0.3115
0.3165
0.3145
0.3135
0.3145
0.317
0.318
0.3155
0.3165
0.323
0.323
0.3255
0.324
0.314
0.3155
0.3205
0.3185
0.3185
0.3225
0.322
0.3215
0.327
0.331
0.333
0.338
0.3375
0.3345
0.3345
0.3365
0.336
0.334
0.3345
0.3365
0.336
0.3345
0.3325
0.3345
0.3405
0.339
0.3385
0.339
0.3385
0.343
0.3405
0.3365
0.337
0.342
0.3455
0.342
0.3405
0.341
0.343
0.35
0.348
0.3405
0.349
0.355
0.352
0.35
0.3495
0.3485
0.3525
0.3565
0.3495
0.3555
0.3645
0.36
0.358
0.3575
0.3595
0.3615
0.361
0.3615
0.3615
0.3625
0.364
0.3685
0.3705
0.369
0.3685
0.37
0.3755
0.3755
0.369
0.373
0.383
0.3815
0.381
0.3815
0.382
0.3815
0.382
0.3875
0.3915
0.393
0.39
0.387
0.393
0.394
0.396
0.402
0.403
0.4035
0.403
0.403
0.3985
0.397
0.3995
0.4085
0.4185
0.4165
0.419
0.4205
0.42
0.4235
0.4255
0.425
0.428
0.4315
0.4335
0.433
0.43
0.4335
0.438
0.44
0.444
0.446
0.446
0.448
0.456
0.4635
0.4635
0.4655
0.464
0.4635
0.4675
0.4725
0.4795
0.4825
0.479
0.4765
0.485
0.493
0.4925
0.4945
0.495
0.4935
0.501
0.5065
0.508
0.5205
0.521
0.5135
0.518
0.527
0.5375
0.541
0.542
0.546
0.5495
0.552
0.554
0.562
0.567
0.566
0.566
0.5635
0.573
0.578
0.583
0.5915
0.591
0.594
0.5925
0.595
0.6025
0.6065
0.608
0.614
0.6165
0.614
0.619
0.6245
0.6235
0.625
0.6295
0.6285
0.63
0.6355
0.6395
0.644
0.645
0.6475
0.6485
0.648
0.648
0.6445
0.6445
0.649
0.6555
0.6525
0.653
0.653
0.653
0.656
0.65
0.651
0.649
0.6475
0.649
0.641
0.633
0.63
0.6335
0.631
0.6245
0.6115
0.6025
0.6105
0.61
0.603
0.5935
0.5885
0.586
0.574
0.565
0.5565
0.55
0.55
0.544
0.5355
0.5295
0.524
0.518
0.511
0.498
0.4955
0.4945
0.4815
0.477
0.4725
0.461
0.4495
0.4525
0.4505
0.4345
0.433
0.4275
0.418
0.4155
0.4085
0.406
0.4005
0.397
0.392
0.3835
0.384
0.3815
0.373
0.368
0.3705
0.3715
0.3655
0.3575
0.3495
0.348
0.348
0.3485
0.3475
0.3425
0.3435
0.341
0.337
0.3365
0.335
0.333
0.329
0.3265
0.3265
0.3225
0.317
0.3175
0.3215
0.325
0.325
0.3235
0.3205
0.319
0.3145
0.314
0.321
0.319
0.316
0.315
0.3125
0.309
0.3095
0.316
0.3215
0.319
0.313
0.315
0.3195
0.317
0.3125
0.3075
0.308
0.316
0.3185
0.3105
0.3035
0.3005
0.3065
0.311
0.303
0.309
0.3135
0.312
0.315
0.315
0.3165
0.317
0.317
0.315
0.3115
0.31
0.3065
0.308
0.312
0.3155
0.315
0.3095
0.3065
0.3065
0.31
0.31
0.306
0.31
0.31
0.3085
0.3125
0.3105
0.3105
0.31
0.31
0.31
0.31
0.311
0.309
0.3095
0.31
0.3115
0.312
0.312
0.31
0.3125
0.315
0.3095
0.3095
0.304
0.3
0.304
0.3065
0.308
0.309
0.3075
0.305
0.3055
0.306
0.305
0.3025
0.3075
0.3125
0.308
0.3065
0.305
0.3015
0.3025
0.309
0.3085
0.305
0.3125
0.3145
0.307
0.308
0.3165
0.316
0.311
0.311
0.3125
0.314
0.3105
0.306
0.301
0.2945
0.302
0.3195
0.321
0.31
0.306
0.3025
0.3055
0.31
0.3115
0.3125
0.314
0.313
0.297
0.293
0.311
0.319
0.31
0.308
0.316
0.313
0.3105
0.311
0.3105
0.3115
0.3115
0.3155
0.316
0.316
0.318
0.313
0.3015
0.3015
0.3105
0.3155
0.3145
0.3105
0.311
0.309
0.3125
0.3175
0.316
0.311
0.3065
0.3105
0.314
0.312
0.3105
0.309
0.309
0.307
0.305
0.3055
0.3075
0.311
0.3095
0.3065
0.309
0.31
0.3055
0.3035
0.3055
0.3065
0.3045
0.3015
0.3065
0.3085
0.3035
0.304
0.305
0.308
0.3105
0.308
0.304
0.2975
0.301
0.3
0.3005
0.301
0.301
0.3095
0.3105
0.31
0.3025
0.298
0.304
0.3055
0.303
0.301
0.3035
0.304
0.301
0.305
0.306
0.3045
0.301
0.298
0.2915
0.288
0.301
0.297
0.2895
0.2935
0.2975
0.3095
0.31
0.3025
0.301
0.2995
0.297
0.3005
0.2995
0.302
0.3025
0.2975
0.3035
0.304
0.299
0.301
0.3
0.296
0.295
0.2965
0.299
0.2975
0.296
0.2965
0.2985
0.301
0.296
0.2975
0.3005
0.2975
0.301
0.3005
0.2945
0.2995
0.304
0.3025
0.301
0.303
0.304
0.298
0.3
0.295
0.288
0.29
0.2905
0.2965
0.299
0.295
0.293
0.2945
0.299
0.3035
0.3045
0.2995
0.299
0.296
0.2895
0.2915
0.2935
0.297
0.2955
0.295
0.295
0.294
0.3
0.2985
0.2995
0.306
0.3075
0.308
0.3055
0.302
0.2995
0.3
0.297
0.2945
0.294
0.2875
0.2755
0.27
0.2885
0.3005
0.3
0.301
0.2995
0.295
0.2935
0.2945
0.2905
0.2915
0.29
0.287
0.284
0.2795
0.2895
0.2985
0.302
0.304
0.294
0.284
0.293
0.3035
0.2975
0.298
0.301
0.2965
0.296
0.2965
0.2965
0.2945
0.2915
0.2915
0.2915
0.292
0.2905
0.292
0.297
0.297
0.2965
0.2925
0.293
0.299
0.2985
0.2965
0.295
0.297
0.298
0.2935
0.293
0.2925
0.2885
0.288
0.291
0.2925
0.2945
0.2985
0.2955
0.2915
0.292
0.295
0.2955
0.2925
0.2935
0.2955
0.295
0.2955
0.295
0.2905
0.291
0.292
0.291
0.2895
0.2895
0.294
0.294
0.285
0.2795
0.2885
0.295
0.2895
0.296
0.302
0.298
0.2995
0.2895
0.282
0.286
0.288
0.2885
0.287
0.285
0.29
0.2985
0.2945
0.287
0.2915
0.293
0.29
0.2915
0.2895
0.287
0.2925
0.297
0.296
0.297
0.2955
0.2945
0.2965
0.2935
0.2905
0.2995
0.3085
0.309
0.3055
0.3035
0.306
0.307
0.309
0.3085
0.307
0.3085
0.312
0.3125
0.313
0.324
0.328
0.332
0.335
0.336
0.338
0.333
0.3335
0.3335
0.333
0.33
0.3285
0.3365
0.3375
0.3355
0.3325
0.3325
0.3325
0.336
0.3415
0.3395
0.3395
0.3455
0.3455
0.3445
0.3525
0.3585
0.363
0.3595
0.361
0.3665
0.3595
0.353
0.358
0.3705
0.368
0.3675
0.3715
0.369
0.367
0.365
0.3635
0.359
0.3575
0.3545
0.35
0.347
0.345
0.345
0.344
0.3405
0.337
0.341
0.3475
0.349
0.3505
0.3515
0.3485
0.3495
0.3495
0.3445
0.339
0.3335
0.339
0.3475
0.3425
0.3295
0.328
0.34
0.338
0.3275
0.3155
0.303
0.298
0.2955
0.2965
0.2935
0.2895
0.287
0.279
0.276
0.2755
0.2745
0.2755
0.2755
0.2775
0.2795
0.2765
0.275
0.2735
0.2705
0.277
0.277
0.2715
0.272
0.269
0.267
0.275
0.2745
0.2725
0.2725
0.271
0.2755
0.2715
0.2715
0.2745
0.273
0.268
0.267
0.2645
0.2595
0.268
0.2695
0.2685
0.2675
0.266
0.2695
0.269
0.268
0.2695
0.267
0.263
0.26
0.2635
0.264
0.2575
0.257
0.2565
0.262
0.2685
0.2675
0.262
0.261
0.262
0.262
0.263
0.2625
0.265
0.263
0.2605
0.258
0.261
0.264
0.258
0.2555
0.247
0.2425
0.248
0.254
0.248
0.239
0.2345
0.2295
0.2285
0.2225
0.2235
0.2255
0.2195
0.2175
0.216
0.2085
0.21
0.225
0.2305
0.2355
0.2475
0.268
0.289
0.312
0.348
0.3845
0.4235
0.463
0.5
0.54
0.58
0.621
0.6575
0.691
0.734
0.777
0.8195
0.862
0.893
0.9165
0.938
0.9495
0.9585
0.965
0.9615
0.953
0.9435
0.9445
0.943
0.9355
0.9255
0.9145
0.902
0.858
0.799
0.7345
0.669
0.6085
0.5385
0.4775
0.4145
0.3405
0.285
0.242
0.194
0.164
0.1485
0.1225
0.0985
0.092
0.0935
0.0915
0.097
0.098
0.1075
0.12
0.125
0.1455
0.1535
0.1605
0.178
0.195
0.2095
0.222
0.2355
0.243
0.2515
0.259
0.2665
0.2695
0.2675
0.271
0.2705
0.276
0.282
0.285
0.2935
0.292
0.291
0.292
0.292
0.2945
0.294
0.2915
0.291
0.29
0.288
0.29
0.2895
0.289
0.2925
0.2945
0.2895
0.29
0.2965
0.288
0.294
0.307
0.3065
0.3095
0.308
0.3065
0.3035
0.305
0.309
0.306
0.3035
0.302
0.303
0.3005
0.3055
0.318
0.319
0.3155
0.3155
0.3175
0.3175
0.3185
0.3205
0.3195
0.324
0.3235
0.321
0.3205
0.3205
0.319
0.319
0.325
0.323
0.3265
0.3285
0.326
0.328
0.3295
0.333
0.333
0.332
0.33
0.332
0.332
0.332
0.3355
0.334
0.3355
0.335
0.3375
0.334
0.3185
0.3255
0.3415
0.345
0.3435
0.344
0.3485
0.3505
0.3495
0.3465
0.34
0.3445
0.3555
0.3515
0.349
0.3485
0.347
0.3515
0.358
0.3615
0.362
0.36
0.359
0.3575
0.356
0.3595
0.3625
0.361
0.363
0.365
0.364
0.3675
0.3655
0.367
0.367
0.3605
0.368
0.3755
0.3735
0.3725
0.3685
0.3705
0.383
0.385
0.382
0.381
0.384
0.3905
0.3915
0.3925
0.3895
0.3885
0.392
0.3895
0.3885
0.385
0.388
0.399
0.403
0.399
0.396
0.4005
0.4045
0.404
0.4065
0.409
0.411
0.4125
0.4155
0.4205
0.4195
0.42
0.421
0.4235
0.425
0.4255
0.4285
0.4295
0.435
0.438
0.4385
0.4405
0.4455
0.4475
0.4465
0.447
0.4455
0.452
0.4565
0.457
0.463
0.459
0.4635
0.473
0.474
0.4805
0.482
0.4815
0.4855
0.491
0.497
0.4975
0.4995
0.5005
0.508
0.5155
0.5115
0.512
0.515
0.523
0.5265
0.528
0.5325
0.5385
0.5445
0.5435
0.544
0.546
0.553
0.563
0.565
0.5675
0.5705
0.5735
0.5795
0.582
0.586
0.5885
0.587
0.589
0.59
0.597
0.6065
0.6125
0.6175
0.616
0.617
0.621
0.626
0.626
0.623
0.6305
0.631
0.6255
0.6275
0.6345
0.638
0.644
0.6495
0.651
0.65
0.6465
0.648
0.6475
0.6475
0.656
0.658
0.659
0.664
0.6625
0.66
0.6605
0.6615
0.663
0.658
0.656
0.6565
0.6545
0.655
0.6545
0.6515
0.6415
0.638
0.641
0.6385
0.6285
0.6235
0.6205
0.613
0.6075
0.6025
0.6
0.594
0.5865
0.579
0.575
0.57
0.5585
0.5545
0.55
0.5405
0.5325
0.521
0.5135
0.5095
0.5045
0.4955
0.4835
0.481
0.482
0.474
0.471
0.4715
0.463
0.452
0.439
0.4365
0.4345
0.425
0.4165
0.407
0.4065
0.4045
0.3995
0.3985
0.393
0.386
0.386
0.381
0.372
0.372
0.372
0.367
0.3665
0.365
0.3555
0.346
0.349
0.3555
0.3535
0.353
0.3505
0.341
0.3315
0.331
0.3345
0.3395
0.338
0.3355
0.3345
0.329
0.33
0.327
0.323
0.3245
0.329
0.3335
0.327
0.3215
0.3235
0.326
0.326
0.3265
0.328
0.3265
0.325
0.3235
0.323
0.325
0.325
0.325
0.3255
0.322
0.318
0.3195
0.316
0.315
0.317
0.3155
0.3145
0.3175
0.3205
0.3145
0.314
0.319
0.318
0.3155
0.3075
0.306
0.314
0.315
0.3105
0.312
0.3165
0.318
0.3185
0.3115
0.309
0.3125
0.313
0.315
0.3145
0.3125
0.313
0.316
0.318
0.323
0.319
0.3085
0.3065
0.312
0.316
0.313
0.316
0.316
0.3135
0.312
0.309
0.311
0.31
0.309
0.314
0.319
0.319
0.3125
0.306
0.306
0.31
0.312
0.308
0.305
0.311
0.3185
0.3225
0.3155
0.309
0.3105
0.3115
0.3095
0.315
0.3195
0.3185
0.318
0.318
0.3235
0.323
0.3205
0.32
0.3145
0.3125
0.309
0.3045
0.315
0.3205
0.3175
0.322
0.323
0.322
0.323
0.3235
0.321
0.316
0.313
0.3135
0.3155
0.318
0.317
0.3165
0.32
0.3195
0.3165
0.3165
0.3145
0.3115
0.314
0.3155
0.3105
0.3125
0.3245
0.327
0.3245
0.325
0.323
0.32
0.319
0.3195
0.317
0.318
0.32
0.3155
0.315
0.3125
0.3075
0.305
0.308
0.315
0.319
0.3195
0.3195
0.3205
0.3195
0.3145
0.3105
0.3115
0.312
0.3155
0.3135
0.3125
0.317
0.308
0.298
0.301
0.3165
0.3185
0.3145
0.3135
0.308
0.3125
0.315
0.313
0.31
0.308
0.3135
0.3175
0.316
0.314
0.3135
0.3125
0.307
0.3025
0.3065
0.3115
0.308
0.3085
0.3145
0.3125
0.3095
0.309
0.3125
0.314
0.311
0.314
0.313
0.3095
0.314
0.3095
0.303
0.3035
0.3005
0.304
0.3115
0.3115
0.3065
0.306
0.308
0.305
0.3075
0.3095
0.3095
0.309
0.3125
0.314
0.306
0.3085
0.3125
0.304
0.305
0.299
0.2935
0.3045
0.3085
0.305
0.306
0.3095
0.308
0.3085
0.3075
0.302
0.2925
0.2945
0.309
0.309
0.301
0.3015
0.3025
0.3035
0.3055
0.305
0.3025
0.302
0.3025
0.3035
0.3025
0.2985
0.2965
0.2975
0.297
0.3015
0.308
0.3095
0.3125
0.312
0.3065
0.3035
0.303
0.3025
0.3015
0.3
0.3035
0.3025
0.299
0.3025
0.301
0.301
0.3005
0.294
0.289
0.295
0.3025
0.3015
0.3065
0.3035
0.298
0.301
0.3015
0.3065
0.304
0.3015
0.3015
0.294
0.297
0.303
0.3005
0.2915
0.295
0.3035
0.299
0.2975
0.2975
0.299
0.3015
0.302
0.3025
0.3
0.297
0.297
0.292
0.2915
0.297
0.3
0.303
0.3025
0.302
0.3005
0.297
0.297
0.296
0.2975
0.299
0.2935
0.2915
0.2915
0.295
0.3005
0.302
0.301
0.3005
0.2995
0.292
0.289
0.2955
0.304
0.3
0.2995
0.302
0.302
0.3035
0.2985
0.294
0.2915
0.303
0.307
0.294
0.2955
0.2975
0.299
0.297
0.292
0.297
0.299
0.297
0.2965
0.297
0.299
0.2995
0.299
0.299
0.2995
0.2985
0.298
0.297
0.299
0.3015
0.3015
0.2995
0.2965
0.2975
0.2955
0.296
0.2965
0.298
0.2985
0.2965
0.2965
0.296
0.297
0.2975
0.297
0.298
0.2995
0.2975
0.295
0.3005
0.301
0.296
0.2985
0.292
0.2875
0.3
0.303
0.2975
0.2945
0.298
0.295
0.29
0.2975
0.2985
0.2975
0.299
0.2965
0.2965
0.3
0.299
0.298
0.2985
0.298
0.3
0.2985
0.2975
0.2955
0.2945
0.297
0.2975
0.298
0.299
0.296
0.294
0.295
0.292
0.2915
0.2945
0.295
0.291
0.293
0.298
0.296
0.294
0.298
0.3075
0.3085
0.3055
0.3055
0.3005
0.296
0.29
0.2875
0.2925
0.2965
0.303
0.3055
0.3035
0.303
0.305
0.3055
0.3035
0.2975
0.2955
0.3015
0.3095
0.3125
0.3115
0.313
0.312
0.3105
0.3155
0.319
0.3135
0.3055
0.3125
0.323
0.3235
0.325
0.3255
0.328
0.3385
0.343
0.34
0.338
0.3355
0.329
0.33
0.3405
0.3385
0.334
0.3345
0.335
0.3425
0.345
0.3475
0.343
0.339
0.3455
0.3435
0.345
0.3495
0.3555
0.3585
0.3585
0.362
0.362
0.3645
0.368
0.367
0.37
0.3725
0.373
0.3765
0.376
0.369
0.364
0.3645
0.368
0.37
0.3685
0.365
0.3575
0.351
0.3475
0.3475
0.3495
0.3485
0.353
0.352
0.3535
0.354
0.345
0.348
0.3525
0.3595
0.359
0.3525
0.3575
0.3575
0.3525
0.3475
0.34
0.3415
0.3535
0.3545
0.3455
0.331
0.317
0.314
0.309
0.301
0.298
0.2985
0.301
0.303
0.296
0.286
0.284
0.285
0.286
0.2845
0.2865
0.2835
0.2785
0.281
0.281
0.276
0.2725
0.28
0.2905
0.2915
0.2845
0.2795
0.2795
0.2805
0.2835
0.282
0.2775
0.2725
0.269
0.275
0.2795
0.2765
0.274
0.2755
0.28
0.2755
0.2775
0.2825
0.277
0.2735
0.271
0.2755
0.2785
0.271
0.266
0.2655
0.2685
0.2695
0.2685
0.2685
0.2715
0.2715
0.2735
0.277
0.268
0.263
0.265
0.273
0.2795
0.276
0.271
0.2645
0.2675
0.2695
0.2695
0.268
0.261
0.2635
0.2675
0.2655
0.264
0.2635
0.2615
0.26
0.2535
0.2395
0.2365
0.243
0.2415
0.2355
0.233
0.2205
0.215
0.225
0.2255
0.229
0.227
0.2205
0.22
0.228
0.247
0.2685
0.29
0.3065
0.3355
0.373
0.414
0.458
0.4935
0.532
0.5665
0.6035
0.6485
0.681
0.719
0.765
0.8055
0.839
0.8695
0.8995
0.9285
0.9465
0.9545
0.968
0.967
0.9595
0.9525
0.9405
0.942
0.9445
0.934
0.925
0.9055
0.872
0.825
0.769
0.7075
0.64
0.572
0.506
0.4465
0.3725
0.3105
0.2635
0.219
0.182
0.1575
0.1365
0.1
0.0855
0.095
0.1025
0.1035
0.1055
0.108
0.117
0.132
0.141
0.152
0.1645
0.1765
0.188
0.1925
0.213
0.237
0.239
0.244
0.251
0.2645
0.274
0.2785
0.288
0.2795
0.2765
0.28
0.29
0.297
0.294
0.2955
0.297
0.296
0.2915
0.2955
0.3
0.2945
0.292
0.298
0.3045
0.2975
0.2915
0.301
0.305
0.303
0.303
0.3075
0.306
0.3055
0.308
0.3075
0.311
0.315
0.3185
0.318
0.319
0.316
0.3125
0.312
0.3145
0.32
0.323
0.3235
0.3245
0.3255
0.3165
0.3125
0.313
0.3175
0.3285
0.3295
0.33
0.336
0.3365
0.3315
0.33
0.333
0.339
0.338
0.333
0.3345
0.331
0.33
0.335
0.336
0.336
0.334
0.3385
0.339
0.3395
0.337
0.3345
0.337
0.3325
0.3425
0.35
0.341
0.338
0.338
0.3405
0.35
0.348
0.346
0.3475
0.3465
0.3545
0.3545
0.354
0.3565
0.3555
0.3565
0.356
0.353
0.3535
0.3525
0.3445
0.3545
0.3615
0.3565
0.357
0.357
0.3585
0.358
0.3595
0.361
0.353
0.3615
0.375
0.37
0.368
0.368
0.3715
0.373
0.367
0.3755
0.378
0.379
0.383
0.3785
0.3785
0.3775
0.379
0.375
0.374
0.3875
0.3955
0.3965
0.3955
0.388
0.3845
0.39
0.399
0.4
0.3965
0.3995
0.397
0.402
0.411
0.41
0.4055
0.402
0.402
0.4065
0.414
0.4145
0.416
0.423
0.421
0.422
0.425
0.425
0.429
0.4285
0.422
0.4215
0.428
0.437
0.441
0.4415
0.4465
0.446
0.4455
0.4445
0.4425
0.445
0.445
0.4535
0.4615
0.463
0.467
0.4695
0.4705
0.4645
0.468
0.4765
0.481
0.4845
0.4835
0.488
0.4895
0.499
0.505
0.502
0.5115
0.5175
0.5255
0.5285
0.5225
0.5215
0.5205
0.527
0.5375
0.5425
0.5425
0.5345
0.5325
0.5425
0.548
0.5505
0.5545
0.5565
0.565
0.5645
0.5675
0.583
0.5805
0.5785
0.587
0.5915
0.5945
0.5995
0.602
0.605
0.607
0.6075
0.6075
0.599
0.603
0.618
0.623
0.626
0.6295
0.6345
0.639
0.637
0.639
0.641
0.6425
0.6465
0.647
0.6505
0.657
0.6555
0.651
0.656
0.6645
0.6625
0.6565
0.6555
0.656
0.659
0.66
0.662
0.6625
0.66
0.6605
0.661
0.658
0.657
0.654
0.6495
0.649
0.639
0.636
0.6365
0.63
0.6295
0.626
0.6165
0.6075
0.608
0.6075
0.5945
0.5865
0.5765
0.5745
0.577
0.57
0.5635
0.5565
0.546
0.5285
0.522
0.5205
0.5045
0.4945
0.5005
0.5015
0.493
0.484
0.4685
0.4625
0.4605
0.447
0.4355
0.437
0.4345
0.4255
0.4215
0.413
0.4135
0.4075
0.3895
0.387
0.3965
0.4035
0.4015
0.396
0.391
0.386
0.3735
0.3685
0.3725
0.364
0.358
0.363
0.354
0.3475
0.3545
0.3505
0.3485
0.339
0.327
0.3255
0.324
0.3345
0.3415
0.34
0.3345
0.334
0.334
0.328
0.326
0.32
0.3225
0.3285
0.331
0.3375
0.3245
0.321
0.3275
0.318
0.325
0.3315
0.3245
0.323
0.324
0.3225
0.327
0.3255
0.321
0.3265
0.3245
0.3265
0.328
0.3205
0.3135
0.315
0.3185
0.3195
0.3205
0.324
0.321
0.309
0.317
0.3225
0.3135
0.3095
0.3075
0.309
0.319
0.3295
0.326
0.3155
0.312
0.3135
0.307
0.3055
0.3135
0.313
0.3085
0.3145
0.321
0.318
0.3195
0.3165
0.3095
0.312
0.315
0.3135
0.315
0.3205
0.327
0.323
0.326
0.331
0.3155
0.3065
0.3085
0.311
0.3095
0.3125
0.3145
0.319
0.328
0.3215
0.324
0.325
0.3205
0.321
0.314
0.3225
0.3215
0.3065
0.314
0.313
0.3095
0.318
0.314
0.32
0.3325
0.319
0.3135
0.3145
0.31
0.31
0.3055
0.308
0.311
0.305
0.3105
0.3245
0.325
0.326
0.3225
0.3205
0.321
0.3135
0.3145
0.31
0.316
0.321
0.3225
0.3255
0.3245
0.3335
0.3345
0.326
0.3175
0.3195
0.319
0.316
0.325
0.329
0.323
0.3195
0.328
0.329
0.32
0.317
0.3125
0.3195
0.329
0.321
0.3145
0.31
0.3135
0.315
0.3085
0.3175
0.329
0.3265
0.3195
0.3145
0.307
0.3105
0.3115
0.303
0.3075
0.3155
0.3215
0.32
0.324
0.323
0.3165
0.326
0.3275
0.3215
0.318
0.321
0.319
0.3195
0.3245
0.319
0.313
0.3175
0.3275
0.3175
0.3115
0.3205
0.319
0.3125
0.314
0.3155
0.3205
0.3185
0.302
0.305
0.3195
0.321
0.3095
0.307
0.309
0.312
0.3085
0.304
0.3165
0.3165
0.31
0.311
0.3115
0.309
0.311
0.3205
0.322
0.3175
0.309
0.3045
0.317
0.32
0.324
0.321
0.31
0.3125
0.3095
0.301
0.296
0.3015
0.3045
0.304
0.3075
0.3105
0.301
0.2985
0.304
0.305
0.3105
0.308
0.3065
0.3065
0.308
0.312
0.3095
0.3105
0.317
0.316
0.312
0.316
0.3165
0.3115
0.309
0.3045
0.3035
0.308
0.309
0.307
0.3045
0.3005
0.2975
0.301
0.311
0.317
0.31
0.297
0.2995
0.3125
0.309
0.3005
0.304
0.3145
0.3135
0.3075
0.3055
0.307
0.3105
0.31
0.3065
0.308
0.311
0.3065
0.3035
0.2975
0.2945
0.2995
0.302
0.31
0.3085
0.3015
0.3075
0.311
0.3115
0.31
0.3005
0.3065
0.309
0.2975
0.297
0.299
0.303
0.3015
0.3015
0.298
0.2945
0.305
0.308
0.3045
0.303
0.3015
0.2975
0.3
0.31
0.306
0.307
0.309
0.305
0.305
0.302
0.3065
0.31
0.306
0.3045
0.2965
0.2895
0.2975
0.299
0.299
0.305
0.303
0.303
0.307
0.3005
0.298
0.2965
0.3005
0.304
0.3015
0.31
0.3085
0.3
0.299
0.3
0.3
0.3045
0.3055
0.3025
0.3045
0.2995
0.296
0.301
0.3
0.299
0.293
0.292
0.303
0.3135
0.3225
0.32
0.307
0.2955
0.297
0.2965
0.2965
0.296
0.298
0.308
0.3015
0.3015
0.307
0.3065
0.3055
0.302
0.294
0.2915
0.299
0.2975
0.293
0.2905
0.2945
0.2985
0.3025
0.3045
0.296
0.2985
0.3095
0.306
0.306
0.3085
0.3
0.303
0.3105
0.307
0.3085
0.3025
0.291
0.292
0.3035
0.31
0.299
0.297
0.302
0.3025
0.296
0.289
0.2925
0.2975
0.2955
0.2875
0.2955
0.305
0.2995
0.2945
0.297
0.3025
0.299
0.2955
0.301
0.308
0.3055
0.288
0.287
0.3075
0.308
0.3085
0.317
0.312
0.302
0.3045
0.306
0.303
0.3085
0.307
0.3165
0.318
0.313
0.3205
0.319
0.3165
0.3175
0.3265
0.329
0.323
0.3255
0.339
0.35
0.348
0.345
0.34
0.3335
0.3305
0.3325
0.338
0.335
0.3315
0.332
0.327
0.3225
0.322
0.327
0.3345
0.335
0.337
0.3385
0.336
0.3465
0.3575
0.3595
0.359
0.3635
0.3615
0.3615
0.375
0.374
0.374
0.379
0.375
0.3715
0.366
0.371
0.3715
0.361
0.3595
0.37
0.377
0.3655
0.3615
0.3585
0.352
0.356
0.3505
0.3455
0.359
0.3685
0.3505
0.3375
0.3505
0.364
0.3645
0.354
0.3485
0.3445
0.3535
0.366
0.363
0.364
0.358
0.348
0.3415
0.3425
0.346
0.3435
0.3315
0.312
0.303
0.305
0.302
0.3015
0.2965
0.2895
0.292
0.287
0.293
0.2815
0.272
0.283
0.2815
0.2775
0.276
0.275
0.2855
0.299
0.2855
0.281
0.289
0.285
0.2795
0.28
0.2765
0.2715
0.2795
0.286
0.287
0.276
0.272
0.2835
0.2825
0.2865
0.2855
0.27
0.268
0.2745
0.27
0.2725
0.28
0.278
0.2735
0.2685
0.266
0.2745
0.2795
0.275
0.2755
0.276
0.275
0.2745
0.2765
0.274
0.271
0.2705
0.2665
0.2745
0.2715
0.263
0.2775
0.2745
0.2615
0.268
0.271
0.27
0.27
0.2645
0.258
0.2575
0.2645
0.2655
0.25
0.2415
0.249
0.253
0.2585
0.2585
0.247
0.2395
0.242
0.244
0.2415
0.2385
0.2425
0.2425
0.2385
0.2415
0.236
0.243
0.2515
0.2615
0.282
0.286
0.3175
0.3535
0.38
0.406
0.4365
0.4825
0.514
0.547
0.5835
0.615
0.652
0.6965
0.727
0.756
0.7865
0.7995
0.8125
0.838
0.8535
0.8635
0.8825
0.883
0.873
0.8625
0.8635
0.8705
0.859
0.8465
0.8455
0.8315
0.7975
0.7555
0.7015
0.638
0.569
0.4995
0.447
0.403
0.3385
0.2805
0.2375
0.1955
0.174
0.156
0.1285
0.112
0.1065
0.1105
0.1095
0.109
0.121
0.1245
0.126
0.133
0.1415
0.1535
0.1705
0.1785
0.186
0.2025
0.2055
0.2115
0.2335
0.25
0.2575
0.2725
0.283
0.279
0.279
0.2835
0.2725
0.2725
0.286
0.288
0.286
0.285
0.289
0.298
0.299
0.295
0.2965
0.296
0.2945
0.2915
0.2955
0.3
0.301
0.308
0.309
0.3085
0.3075
0.308
0.309
0.31
0.3115
0.311
0.308
0.309
0.3125
0.308
0.3115
0.31
0.306
0.3165
0.322
0.3225
0.3215
0.316
0.312
0.315
0.317
0.323
0.331
0.33
0.3255
0.321
0.3185
0.324
0.326
0.325
0.3255
0.324
0.3225
0.324
0.3325
0.3375
0.34
0.3395
0.335
0.3315
0.335
0.34
0.338
0.3325
0.326
0.3335
0.3425
0.34
0.342
0.343
0.342
0.342
0.332
0.3335
0.349
0.3415
0.3375
0.343
0.3395
0.3305
0.332
0.349
0.3605
0.3615
0.3575
0.357
0.354
0.352
0.353
0.352
0.3545
0.356
0.359
0.359
0.358
0.362
0.362
0.361
0.3565
0.3545
0.3505
0.3465
0.354
0.362
0.3655
0.3645
0.367
0.3685
0.37
0.374
0.377
0.384
0.3835
0.3745
0.3785
0.383
0.385
0.3875
0.386
0.386
0.384
0.3855
0.381
0.3825
0.385
0.385
0.394
0.396
0.394
0.3925
0.393
0.394
0.3945
0.39
0.396
0.403
0.404
0.408
0.406
0.4085
0.4065
0.4045
0.414
0.415
0.411
0.415
0.414
0.4175
0.422
0.422
0.428
0.432
0.4315
0.4315
0.4315
0.4295
0.434
0.438
0.443
0.448
0.4495
0.4485
0.453
0.4625
0.4595
0.462
0.469
0.468
0.4665
0.4705
0.472
0.4725
0.476
0.4805
0.4875
0.4895
0.491
0.492
0.4915
0.4965
0.5025
0.51
0.5155
0.516
0.516
0.5155
0.519
0.527
0.531
0.5305
0.53
0.5345
0.5425
0.549
0.5545
0.5575
0.5625
0.5655
0.57
0.565
0.567
0.5785
0.5765
0.58
0.585
0.583
0.585
0.589
0.585
0.587
0.6
0.612
0.6145
0.6105
0.6125
0.6095
0.608
0.617
0.626
0.6235
0.6195
0.6245
0.62
0.624
0.6345
0.635
0.634
0.6375
0.643
0.6425
0.646
0.647
0.645
0.6495
0.65
0.6465
0.6455
0.6435
0.64
0.639
0.6365
0.6355
0.632
0.627
0.629
0.6315
0.63
0.626
0.623
0.621
0.616
0.604
0.604
0.607
0.594
0.5835
0.5765
0.574
0.568
0.5615
0.5565
0.5465
0.5395
0.5315
0.5275
0.5255
0.5255
0.522
0.505
0.4955
0.4965
0.49
0.4785
0.474
0.4715
0.462
0.4545
0.4565
0.45
0.4395
0.4325
0.423
0.416
0.409
0.4055
0.4015
0.4
0.4005
0.3965
0.3895
0.385
0.3815
0.373
0.3705
0.368
0.3645
0.36
0.3535
0.3515
0.35
0.3475
0.3455
0.3455
0.3415
0.3405
0.342
0.338
0.3345
0.3325
0.3305
0.328
0.3295
0.3335
0.3255
0.321
0.323
0.3185
0.3245
0.327
0.323
0.324
0.3205
0.317
0.3125
0.3145
0.3155
0.3115
0.313
0.3155
0.322
0.324
0.3135
0.307
0.3115
0.316
0.3155
0.308
0.307
0.309
0.305
0.305
0.307
0.3105
0.3085
0.3055
0.305
0.299
0.3
0.3075
0.3125
0.316
0.311
0.306
0.3055
0.3095
0.314
0.3115
0.3035
0.296
0.298
0.3085
0.3185
0.317
0.3055
0.303
0.311
0.308
0.302
0.309
0.3135
0.3095
0.3115
0.314
0.311
0.312
0.311
0.3095
0.303
0.2965
0.3025
0.309
0.31
0.305
0.304
0.3095
0.315
0.313
0.3105
0.306
0.3035
0.3055
0.306
0.306
0.3075
0.3115
0.308
0.3025
0.305
0.3175
0.319
0.3155
0.315
0.309
0.3155
0.3215
0.322
0.3195
0.3135
0.3125
0.3105
0.306
0.306
0.3135
0.317
0.3115
0.309
0.3095
0.3095
0.311
0.31
0.3055
0.3095
0.3085
0.3055
0.309
0.3125
0.318
0.3175
0.316
0.307
0.3
0.303
0.309
0.316
0.3155
0.3115
0.3095
0.308
0.308
0.3115
0.3125
0.314
0.3155
0.3135
0.316
0.3145
0.31
0.3125
0.3135
0.3195
0.3235
0.321
0.3175
0.3085
0.305
0.314
0.3245
0.32
0.3105
0.309
0.3115
0.31
0.312
0.3175
0.317
0.3175
0.308
0.3065
0.3115
0.3045
0.307
0.3035
0.3045
0.3085
0.3075
0.3125
0.3125
0.3125
0.314
0.316
0.3125
0.3085
0.3095
0.3085
0.3065
0.307
0.31
0.3115
0.3155
0.3205
0.3125
0.306
0.309
0.312
0.3095
0.3075
0.3035
0.2975
0.2985
0.299
0.305
0.307
0.3045
0.3015
0.3005
0.305
0.3075
0.31
0.3095
0.3095
0.3065
0.305
0.3065
0.305
0.302
0.301
0.302
0.303
0.3045
0.3075
0.303
0.2955
0.302
0.297
0.2885
0.298
0.308
0.307
0.3005
0.299
0.3015
0.3085
0.31
0.3065
0.3045
0.297
0.2965
0.3005
0.298
0.2975
0.2985
0.298
0.3025
0.304
0.2995
0.2965
0.2935
0.2945
0.296
0.299
0.304
0.303
0.3005
0.2985
0.2975
0.295
0.293
0.2935
0.301
0.3025
0.29
0.2905
0.296
0.297
0.2975
0.298
0.2985
0.297
0.2965
0.296
0.2965
0.299
0.301
0.296
0.288
0.2895
0.293
0.2895
0.2895
0.298
0.3045
0.304
0.3015
0.297
0.2955
0.2985
0.3025
0.3025
0.2975
0.2945
0.296
0.2915
0.286
0.2865
0.29
0.2925
0.292
0.2915
0.29
0.2945
0.2935
0.29
0.293
0.2945
0.296
0.293
0.289
0.2845
0.288
0.293
0.29
0.2935
0.2955
0.2955
0.3015
0.298
0.2925
0.292
0.2935
0.292
0.2905
0.291
0.2895
0.2895
0.286
0.2895
0.2885
0.281
0.282
0.291
0.301
0.2995
0.2935
0.2895
0.292
0.2935
0.2955
0.294
0.292
0.2885
0.283
0.296
0.3035
0.295
0.291
0.2895
0.287
0.2855
0.284
0.281
0.279
0.2825
0.2835
0.2885
0.291
0.289
0.2905
0.2905
0.294
0.297
0.295
0.2945
0.2995
0.301
0.295
0.2895
0.2905
0.2895
0.2845
0.291
0.299
0.294
0.292
0.2915
0.289
0.29
0.289
0.2925
0.2945
0.2925
0.295
0.295
0.2945
0.298
0.3025
0.3005
0.299
0.3015
0.301
0.304
0.3065
0.31
0.311
0.313
0.314
0.314
0.3125
0.3115
0.318
0.325
0.3265
0.3275
0.3315
0.3335
0.3335
0.3315
0.3265
0.3245
0.3275
0.329
0.325
0.3235
0.323
0.3245
0.333
0.335
0.335
0.3355
0.3375
0.3425
0.345
0.3495
0.352
0.352
0.3485
0.346
0.3545
0.3605
0.3645
0.3685
0.3695
0.3685
0.3615
0.3605
0.359
0.36
0.3605
0.353
0.3565
0.354
0.347
0.3495
0.347
0.343
0.343
0.3405
0.339
0.342
0.345
0.344
0.3465
0.3535
0.359
0.361
0.357
0.353
0.3485
0.344
0.3435
0.341
0.341
0.3375
0.3335
0.3325
0.3325
0.3315
0.3275
0.321
0.318
0.3165
0.305
0.299
0.2965
0.2875
0.2865
0.282
0.2725
0.271
0.2655
0.2605
0.258
0.2585
0.2665
0.269
0.272
0.2715
0.271
0.273
0.2755
0.278
0.273
0.27
0.2735
0.2755
0.275
0.2735
0.268
0.262
0.2655
0.264
0.265
0.2725
0.2745
0.274
0.2685
0.2665
0.266
0.2645
0.266
0.2665
0.2705
0.2705
0.2645
0.261
0.2585
0.255
0.254
0.2625
0.265
0.2575
0.2585
0.2585
0.255
0.2595
0.261
0.2605
0.26
0.257
0.26
0.2615
0.2615
0.261
0.2625
0.2655
0.269
0.2695
0.264
0.251
0.2495
0.2595
0.2595
0.2565
0.252
0.2485
0.2465
0.244
0.236
0.23
0.2255
0.2255
0.2275
0.223
0.2225
0.224
0.2255
0.2145
0.2175
0.233
0.2365
0.2475
0.262
0.2805
0.303
0.3325
0.3635
0.3965
0.437
0.4695
0.501
0.536
0.5735
0.6135
0.6475
0.6785
0.717
0.7535
0.7885
0.8265
0.852
0.871
0.889
0.8955
0.907
0.91
0.9005
0.896
0.8915
0.894
0.891
0.883
0.8765
0.867
0.844
0.8005
0.7515
0.6985
0.6365
0.565
0.4985
0.4465
0.3885
0.319
0.265
0.224
0.1845
0.158
0.138
0.1165
0.099
0.096
0.101
0.1015
0.1065
0.112
0.112
0.123
0.1435
0.1485
0.154
0.1675
0.174
0.184
0.203
0.221
0.2305
0.2415
0.25
0.2615
0.267
0.265
0.2705
0.269
0.2745
0.283
0.2795
0.2805
0.2825
0.283
0.2805
0.2825
0.284
0.2805
0.2805
0.277
0.2775
0.2775
0.2825
0.2905
0.2885
0.289
0.287
0.287
0.2915
0.2995
0.3
0.298
0.2985
0.2955
0.294
0.292
0.2955
0.2995
0.3035
0.3055
0.303
0.305
0.304
0.306
0.306
0.305
0.3145
0.3155
0.3145
0.31
0.3145
0.3215
0.317
0.315
0.31
0.312
0.3115
0.312
0.324
0.327
0.3205
0.3175
0.3175
0.3215
0.325
0.3235
0.322
0.3215
0.322
0.326
0.3245
0.3215
0.3255
0.328
0.3275
0.324
0.3245
0.3265
0.3285
0.333
0.334
0.336
0.3345
0.332
0.331
0.324
0.3285
0.338
0.335
0.337
0.339
0.3405
0.344
0.3425
0.343
0.346
0.3495
0.3475
0.344
0.345
0.347
0.348
0.3515
0.354
0.35
0.3495
0.351
0.3525
0.3535
0.353
0.353
0.354
0.357
0.359
0.359
0.356
0.358
0.3575
0.3545
0.36
0.367
0.371
0.3725
0.367
0.3645
0.371
0.375
0.3745
0.368
0.3655
0.3735
0.378
0.3775
0.3825
0.3875
0.3845
0.387
0.3865
0.383
0.384
0.3895
0.4
0.3995
0.3955
0.3945
0.3955
0.3945
0.3975
0.398
0.393
0.3985
0.406
0.411
0.4125
0.415
0.4175
0.4135
0.41
0.419
0.4285
0.428
0.4285
0.4365
0.44
0.4415
0.4415
0.435
0.442
0.4515
0.451
0.4495
0.449
0.4485
0.4455
0.447
0.4485
0.454
0.462
0.464
0.463
0.461
0.4675
0.469
0.473
0.4855
0.489
0.4945
0.499
0.499
0.4985
0.505
0.5105
0.5115
0.515
0.5175
0.519
0.521
0.526
0.5265
0.5295
0.535
0.539
0.543
0.543
0.5405
0.5525
0.5615
0.56
0.563
0.5675
0.574
0.576
0.5755
0.5805
0.5855
0.59
0.5935
0.5965
0.6025
0.6075
0.608
0.6065
0.609
0.6145
0.6165
0.616
0.616
0.6175
0.617
0.6245
0.6345
0.6345
0.634
0.635
0.6375
0.642
0.6365
0.6315
0.632
0.632
0.633
0.633
0.6335
0.6295
0.6255
0.631
0.638
0.644
0.645
0.6425
0.6385
0.6405
0.6335
0.625
0.626
0.6185
0.621
0.6265
0.6225
0.613
0.61
0.61
0.6035
0.5965
0.5885
0.582
0.572
0.5635
0.5615
0.557
0.553
0.547
0.5365
0.5315
0.5255
0.5155
0.5105
0.502
0.494
0.486
0.4805
0.4785
0.466
0.4575
0.451
0.444
0.443
0.4345
0.43
0.4215
0.4125
0.409
0.397
0.399
0.401
0.397
0.3975
0.39
0.381
0.3775
0.3735
0.3675
0.363
0.357
0.3575
0.3635
0.3565
0.3485
0.3435
0.342
0.339
0.337
0.337
0.3315
0.3325
0.332
0.331
0.33
0.326
0.326
0.326
0.3265
0.3285
0.3275
0.3275
0.325
0.3215
0.319
0.316
0.314
0.311
0.313
0.3125
0.309
0.31
0.311
0.307
0.303
0.3005
0.3095
0.3245
0.316
0.3095
0.317
0.313
0.309
0.3055
0.3
0.3065
0.316
0.3215
0.319
0.316
0.309
0.305
0.308
0.3035
0.307
0.3115
0.3045
0.304
0.3075
0.3095
0.304
0.3015
0.31
0.3115
0.308
0.305
0.294
0.2925
0.3015
0.3115
0.312
0.3085
0.3105
0.3105
0.3105
0.308
0.308
0.3115
0.305
0.3045
0.3115
0.3095
0.306
0.3015
0.3005
0.302
0.303
0.3045
0.306
0.3045
0.304
0.3095
0.309
0.3075
0.3055
0.3105
0.3165
0.3115
0.312
0.314
0.3145
0.313
0.311
0.3115
0.3105
0.3125
0.312
0.311
0.3095
0.307
0.3145
0.317
0.314
0.314
0.3095
0.308
0.3055
0.3035
0.309
0.3065
0.3065
0.311
0.3125
0.316
0.313
0.313
0.311
0.3065
0.3065
0.304
0.308
0.31
0.308
0.3105
0.313
0.317
0.3185
0.3165
0.313
0.3055
0.31
0.3225
0.321
0.314
0.315
0.317
0.318
0.3155
0.312
0.3125
0.3095
0.305
0.307
0.311
0.3135
0.316
0.3135
0.3125
0.315
0.3165
0.317
0.314
0.3105
0.3075
0.3095
0.31
0.3085
0.301
0.2965
0.31
0.319
0.3165
0.314
0.314
0.3175
0.3195
0.318
0.3075
0.3075
0.315
0.3165
0.313
0.311
0.314
0.31
0.305
0.3025
0.3
0.304
0.3095
0.3115
0.307
0.306
0.303
0.302
0.3105
0.3105
0.307
0.304
0.3115
0.3165
0.3105
0.307
0.304
0.307
0.312
0.313
0.31
0.312
0.3135
0.311
0.306
0.304
0.3065
0.306
0.304
0.3
0.3005
0.302
0.304
0.3045
0.3035
0.3025
0.299
0.3035
0.307
0.307
0.3075
0.3065
0.305
0.304
0.308
0.309
0.3045
0.3025
0.2985
0.3025
0.311
0.3075
0.3055
0.3055
0.303
0.305
0.304
0.305
0.3055
0.3025
0.308
0.3085
0.3045
0.299
0.2945
0.304
0.3095
0.3025
0.2985
0.3035
0.304
0.297
0.3
0.3055
0.3035
0.3005
0.298
0.2965
0.3005
0.2985
0.2975
0.299
0.3015
0.3055
0.304
0.305
0.2985
0.294
0.298
0.297
0.297
0.2995
0.2985
0.3005
0.304
0.3015
0.2995
0.299
0.3005
0.2975
0.292
0.2945
0.298
0.3005
0.3025
0.2965
0.299
0.3015
0.299
0.3005
0.3
0.2955
0.289
0.2965
0.2995
0.2935
0.296
0.2995
0.2975
0.2995
0.303
0.3015
0.298
0.2945
0.289
0.291
0.298
0.2985
0.303
0.3035
0.3
0.298
0.2985
0.2995
0.3005
0.3065
0.3085
0.3055
0.3025
0.3025
0.302
0.2975
0.295
0.2975
0.299
0.298
0.299
0.2965
0.296
0.2975
0.2935
0.293
0.297
0.298
0.295
0.3005
0.305
0.3
0.2975
0.3025
0.3065
0.3045
0.3015
0.303
0.3025
0.3005
0.302
0.3015
0.2985
0.2965
0.298
0.3015
0.303
0.303
0.3025
0.3015
0.297
0.296
0.3025
0.299
0.2905
0.291
0.292
0.294
0.2945
0.2925
0.301
0.302
0.297
0.2985
0.297
0.296
0.296
0.2935
0.296
0.2995
0.302
0.3005
0.2995
0.3025
0.306
0.306
0.3025
0.3025
0.31
0.3135
0.317
0.325
0.3225
0.322
0.321
0.3195
0.323
0.3235
0.324
0.3285
0.3365
0.3425
0.343
0.3435
0.3445
0.342
0.343
0.3425
0.34
0.3365
0.336
0.336
0.334
0.3375
0.3405
0.339
0.3325
0.3355
0.352
0.3565
0.3535
0.3575
0.363
0.366
0.3675
0.365
0.3695
0.3715
0.367
0.3635
0.359
0.367
0.3805
0.383
0.3775
0.378
0.3775
0.368
0.3635
0.366
0.362
0.357
0.359
0.3635
0.365
0.3635
0.362
0.354
0.352
0.359
0.3635
0.3635
0.357
0.3585
0.3625
0.3605
0.362
0.3615
0.358
0.3545
0.357
0.3565
0.3525
0.3515
0.3495
0.3465
0.342
0.338
0.333
0.327
0.317
0.304
0.3005
0.304
0.3035
0.297
0.292
0.2905
0.284
0.271
0.2735
0.279
0.279
0.2765
0.272
0.2815
0.285
0.2835
0.285
0.285
0.2805
0.274
0.271
0.275
0.2835
0.2845
0.279
0.278
0.2795
0.2775
0.277
0.2755
0.2755
0.2755
0.269
0.2665
0.275
0.277
0.2785
0.28
0.275
0.2765
0.276
0.277
0.2785
0.274
0.278
0.279
0.275
0.275
0.2745
0.272
0.2695
0.272
0.2695
0.265
0.264
0.2645
0.2665
0.264
0.258
0.2635
0.269
0.266
0.262
0.2615
0.2645
0.264
0.2615
0.257
0.259
0.2625
0.259
0.2575
0.2535
0.251
0.2465
0.239
0.237
0.236
0.2305
0.231
0.2335
0.231
0.2305
0.2315
0.231
0.23
0.233
0.237
0.2425
0.251
0.271
0.2895
0.31
0.339
0.3705
0.414
0.455
0.4915
0.5275
0.5635
0.601
0.64
0.676
0.7165
0.7555
0.789
0.829
0.871
0.898
0.9135
0.9285
0.939
0.954
0.9535
0.9485
0.945
0.939
0.9365
0.9325
0.9305
0.922
0.9075
0.8765
0.8245
0.768
0.704
0.634
0.5665
0.504
0.4455
0.3795
0.3125
0.261
0.218
0.184
0.161
0.1395
0.1145
0.098
0.1015
0.107
0.1085
0.11
0.1155
0.122
0.122
0.1285
0.153
0.1695
0.1715
0.1835
0.198
0.2145
0.2315
0.247
0.255
0.259
0.266
0.268
0.2675
0.267
0.271
0.283
0.288
0.284
0.286
0.2915
0.2935
0.296
0.2955
0.2945
0.298
0.297
0.299
0.3025
0.303
0.303
0.2975
0.295
0.2955
0.298
0.3005
0.2995
0.306
0.309
0.306
0.31
0.311
0.3055
0.3045
0.308
0.3095
0.31
0.312
0.3165
0.3175
0.3175
0.3175
0.3155
0.319
0.319
0.32
0.3225
0.32
0.321
0.322
0.3195
0.321
0.322
0.317
0.3255
0.3335
0.324
0.3175
0.3235
0.334
0.3395
0.3365
0.331
0.337
0.3425
0.3375
0.3345
0.334
0.337
0.3415
0.342
0.3405
0.341
0.3435
0.346
0.3425
0.3425
0.3425
0.342
0.344
0.3395
0.343
0.348
0.35
0.3535
0.353
0.3555
0.354
0.355
0.3585
0.356
0.3575
0.3575
0.3555
0.355
0.3565
0.36
0.36
0.348
0.347
0.359
0.363
0.365
0.3655
0.368
0.372
0.371
0.368
0.3675
0.366
0.363
0.3645
0.3725
0.3755
0.3745
0.3775
0.3775
0.3765
0.381
0.385
0.381
0.38
0.386
0.3875
0.3915
0.394
0.3955
0.397
0.3955
0.3925
0.392
0.3955
0.3955
0.397
0.399
0.3995
0.397
0.4015
0.4075
0.3985
0.398
0.406
0.409
0.4055
0.412
0.416
0.4095
0.417
0.423
0.4295
0.432
0.429
0.4315
0.431
0.432
0.4265
0.4315
0.441
0.4425
0.447
0.443
0.442
0.443
0.4485
0.4625
0.469
0.469
0.464
0.465
0.465
0.46
0.467
0.4755
0.477
0.479
0.485
0.4875
0.4835
0.487
0.494
0.4995
0.5005
0.5
0.505
0.511
0.515
0.5185
0.5215
0.524
0.5285
0.533
0.5355
0.5375
0.5385
0.539
0.5455
0.5515
0.5495
0.5545
0.566
0.5685
0.568
0.571
0.576
0.5805
0.581
0.585
0.592
0.5955
0.595
0.593
0.598
0.602
0.601
0.609
0.6185
0.6195
0.6225
0.6265
0.6265
0.631
0.6335
0.635
0.6385
0.64
0.642
0.642
0.644
0.646
0.65
0.6465
0.6445
0.664
0.6715
0.664
0.659
0.6575
0.6585
0.66
0.662
0.662
0.662
0.6625
0.6605
0.6635
0.666
0.659
0.658
0.66
0.6585
0.659
0.652
0.6475
0.648
0.6405
0.6375
0.635
0.6305
0.6195
0.6085
0.6065
0.613
0.615
0.6005
0.592
0.58
0.568
0.5615
0.559
0.559
0.5495
0.5425
0.53
0.5215
0.5135
0.504
0.499
0.492
0.487
0.4835
0.482
0.4795
0.4765
0.4685
0.4605
0.4535
0.4465
0.44
0.43
0.422
0.417
0.412
0.4125
0.4155
0.407
0.3985
0.392
0.389
0.3875
0.382
0.379
0.373
0.37
0.3655
0.362
0.362
0.358
0.3605
0.3585
0.351
0.347
0.3385
0.339
0.343
0.338
0.3345
0.3385
0.3435
0.34
0.3365
0.3355
0.333
0.329
0.3235
0.3285
0.3295
0.3245
0.327
0.33
0.331
0.326
0.3265
0.33
0.3285
0.321
0.3195
0.322
0.324
0.3275
0.3215
0.317
0.32
0.3225
0.3195
0.3165
0.313
0.3185
0.325
0.3245
0.327
0.328
0.3275
0.3245
0.3245
0.3225
0.3215
0.3235
0.3205
0.324
0.3265
0.3225
0.321
0.3225
0.321
0.3195
0.321
0.322
0.3205
0.3195
0.3195
0.319
0.317
0.3155
0.317
0.3175
0.32
0.321
0.3205
0.319
0.318
0.3175
0.322
0.323
0.319
0.32
0.3185
0.3195
0.3195
0.315
0.317
0.32
0.32
0.3195
0.321
0.3205
0.3175
0.317
0.317
0.314
0.314
0.3155
0.317
0.318
0.3165
0.3175
0.3165
0.3195
0.326
0.3275
0.323
0.3195
0.3195
0.319
0.317
0.3155
0.319
0.319
0.3165
0.317
0.319
0.319
0.318
0.3235
0.328
0.328
0.3245
0.3215
0.32
0.3135
0.3115
0.313
0.3175
0.3245
0.323
0.317
0.3215
0.3275
0.318
0.3155
0.3235
0.326
0.321
0.3175
0.3215
0.3225
0.322
0.3175
0.313
0.315
0.319
0.324
0.3165
0.308
0.3075
0.311
0.32
0.322
0.3205
0.323
0.325
0.3215
0.3195
0.3255
0.3305
0.3265
0.318
0.319
0.3205
0.3145
0.32
0.325
0.3245
0.324
0.3225
0.3225
0.316
0.318
0.319
0.314
0.316
0.3155
0.316
0.321
0.3215
0.322
0.3235
0.3225
0.3225
0.3205
0.3175
0.3165
0.3175
0.317
0.3165
0.317
0.3135
0.314
0.3165
0.3185
0.318
0.315
0.318
0.3195
0.317
0.314
0.312
0.3105
0.3095
0.3095
0.308
0.3045
0.306
0.3165
0.3185
0.314
0.312
0.31
0.3125
0.3115
0.3115
0.315
0.3115
0.311
0.3105
0.3135
0.3115
0.301
0.3045
0.314
0.316
0.311
0.3125
0.3125
0.3105
0.3125
0.31
0.31
0.309
0.308
0.311
0.308
0.298
0.296
0.3065
0.323
0.3255
0.3185
0.32
0.3145
0.3065
0.3045
0.3065
0.3085
0.3085
0.306
0.304
0.3045
0.3055
0.307
0.3035
0.3045
0.3055
0.3065
0.3095
0.305
0.304
0.302
0.304
0.3065
0.306
0.307
0.3025
0.297
0.293
0.301
0.3075
0.307
0.3075
0.306
0.311
0.311
0.305
0.3055
0.3065
0.306
0.3085
0.3105
0.3115
0.3095
0.305
0.301
0.3
0.298
0.295
0.2935
0.2925
0.2905
0.2995
0.311
0.3045
0.297
0.2945
0.3025
0.3175
0.314
0.3065
0.3035
0.3025
0.305
0.305
0.3075
0.3105
0.3115
0.313
0.311
0.306
0.3035
0.305
0.3055
0.306
0.31
0.3085
0.3055
0.3055
0.3055
0.3095
0.31
0.308
0.309
0.301
0.295
0.298
0.3
0.305
0.311
0.3105
0.3055
0.3055
0.3065
0.2965
0.2975
0.304
0.304
0.3045
0.3025
0.3
0.3
0.304
0.3015
0.3
0.3025
0.297
0.293
0.302
0.3035
0.2985
0.3035
0.306
0.3025
0.3045
0.306
0.3045
0.3075
0.3045
0.3035
0.3055
0.303
0.3035
0.303
0.3005
0.301
0.3
0.298
0.303
0.309
0.3085
0.307
0.304
0.3025
0.3015
0.2975
0.2975
0.3015
0.3105
0.314
0.3105
0.305
0.3035
0.3065
0.307
0.3095
0.311
0.316
0.317
0.315
0.3165
0.3125
0.3155
0.315
0.314
0.3125
0.313
0.326
0.323
0.319
0.325
0.328
0.3325
0.33
0.3315
0.337
0.339
0.3415
0.344
0.343
0.337
0.344
0.3535
0.3475
0.346
0.3425
0.3375
0.34
0.343
0.346
0.3445
0.3425
0.3425
0.3505
0.3575
0.357
0.3555
0.365
0.3755
0.3815
0.3805
0.372
0.373
0.3725
0.3755
0.3755
0.376
0.381
0.3825
0.376
0.372
0.378
0.379
0.3785
0.376
0.374
0.375
0.372
0.364
0.355
0.355
0.3575
0.358
0.3545
0.354
0.3565
0.359
0.3615
0.3615
0.3645
0.366
0.3645
0.364
0.363
0.3605
0.36
0.361
0.359
0.3525
0.3465
0.3495
0.348
0.3425
0.3335
0.3215
0.3145
0.3085
0.305
0.301
0.303
0.3045
0.299
0.296
0.293
0.288
0.2845
0.285
0.288
0.2905
0.2825
0.279
0.2845
0.2925
0.294
0.2875
0.2855
0.2835
0.286
0.285
0.2795
0.278
0.283
0.2865
0.2835
0.2855
0.28
0.277
0.28
0.282
0.28
0.2775
0.2815
0.278
0.2735
0.274
0.2745
0.2735
0.2735
0.276
0.277
0.2735
0.2705
0.274
0.2715
0.274
0.2765
0.2765
0.2795
0.278
0.2755
0.2685
0.271
0.275
0.2675
0.2575
0.2675
0.2845
0.2805
0.2765
0.2735
0.2695
0.269
0.2705
0.268
0.2635
0.2645
0.266
0.269
0.2705
0.262
0.258
0.2575
0.255
0.253
0.2475
0.244
0.234
0.232
0.236
0.2285
0.224
0.2235
0.2255
0.2285
0.235
0.247
0.2555
0.2565
0.268
0.2905
0.32
0.352
0.3805
0.418
0.46
0.499
0.536
0.5725
0.6135
0.6495
0.685
0.728
0.766
0.806
0.85
0.8865
0.907
0.926
0.9465
0.9535
0.963
0.9625
0.951
0.9435
0.94
0.94
0.939
0.9345
0.927
0.909
0.8705
0.823
0.7675
0.6995
0.6295
0.5605
0.506
0.4485
0.373
0.311
0.2675
0.2235
0.184
0.161
0.135
0.1035
0.089
0.097
0.1045
0.1055
0.1055
0.112
0.123
0.1295
0.138
0.1425
0.1605
0.183
0.192
0.205
0.224
0.239
0.248
0.2535
0.2615
0.27
0.2765
0.279
0.2785
0.2845
0.288
0.2835
0.2865
0.2905
0.292
0.2985
0.299
0.3
0.302
0.3005
0.299
0.301
0.305
0.2985
0.294
0.303
0.311
0.3115
0.3105
0.3105
0.307
0.306
0.311
0.3125
0.31
0.309
0.312
0.3135
0.314
0.317
0.314
0.315
0.318
0.3195
0.3245
0.3255
0.328
0.3295
0.3305
0.3285
0.322
0.325
0.324
0.322
0.326
0.3305
0.338
0.337
0.332
0.334
0.3315
0.331
0.335
0.332
0.3295
0.3315
0.3335
0.3385
0.341
0.339
0.335
0.3355
0.3405
0.344
0.3485
0.349
0.3455
0.3435
0.3445
0.347
0.3455
0.3415
0.347
0.3535
0.3565
0.3585
0.358
0.358
0.359
0.3585
0.3545
0.36
0.3635
0.3585
0.3595
0.3535
0.352
0.366
0.372
0.366
0.363
0.361
0.362
0.3605
0.3585
0.369
0.3715
0.3705
0.3725
0.3715
0.377
0.384
0.3785
0.3735
0.3785
0.378
0.379
0.3825
0.382
0.3835
0.3865
0.3885
0.3885
0.387
0.389
0.3925
0.391
0.389
0.394
0.398
0.3985
0.399
0.397
0.3985
0.4005
0.402
0.3995
0.4005
0.4045
0.4075
0.411
0.411
0.41
0.412
0.4135
0.4135
0.4115
0.411
0.4185
0.4265
0.426
0.427
0.4255
0.424
0.426
0.4285
0.428
0.4275
0.4405
0.4475
0.4415
0.4405
0.4465
0.4485
0.454
0.4615
0.464
0.463
0.4615
0.4675
0.4725
0.477
0.4765
0.472
0.4785
0.4835
0.479
0.48
0.484
0.4875
0.489
0.4865
0.4875
0.488
0.4965
0.5075
0.513
0.516
0.5165
0.519
0.5175
0.5185
0.52
0.528
0.5385
0.54
0.541
0.549
0.5555
0.5495
0.5535
0.562
0.5625
0.5615
0.5655
0.5745
0.58
0.581
0.5835
0.591
0.5935
0.599
0.607
0.6075
0.6105
0.6135
0.6125
0.612
0.6115
0.6205
0.6285
0.6305
0.6325
0.631
0.633
0.638
0.6405
0.6445
0.65
0.65
0.6545
0.6575
0.6565
0.652
0.6465
0.6605
0.67
0.6655
0.664
0.6645
0.6635
0.6645
0.67
0.667
0.668
0.6745
0.6755
0.67
0.666
0.669
0.6695
0.67
0.6675
0.6615
0.6585
0.658
0.655
0.6505
0.644
0.6385
0.6355
0.6285
0.625
0.621
0.6135
0.6175
0.6125
0.602
0.598
0.5905
0.582
0.5685
0.5565
0.5485
0.5365
0.5355
0.5435
0.5405
0.5285
0.5215
0.52
0.513
0.5055
0.499
0.4905
0.478
0.465
0.4685
0.4665
0.458
0.4525
0.446
0.437
0.428
0.4265
0.4235
0.417
0.4135
0.413
0.404
0.393
0.389
0.3855
0.3875
0.387
0.3775
0.374
0.3675
0.364
0.367
0.3615
0.362
0.3615
0.3535
0.3495
0.3505
0.357
0.354
0.353
0.3515
0.3465
0.3435
0.3345
0.3395
0.3425
0.342
0.3385
0.334
0.3375
0.3375
0.341
0.3395
0.335
0.3325
0.329
0.33
0.327
0.3195
0.3275
0.3405
0.341
0.335
0.329
0.3265
0.3285
0.3295
0.328
0.326
0.3295
0.328
0.3225
0.325
0.33
0.335
0.3355
0.3245
0.307
0.3065
0.3145
0.3195
0.321
0.3205
0.3205
0.3235
0.3295
0.3285
0.327
0.325
0.3235
0.326
0.3245
0.329
0.337
0.3335
0.3315
0.333
0.326
0.3235
0.325
0.3285
0.329
0.3195
0.322
0.329
0.3275
0.3225
0.322
0.3195
0.319
0.322
0.327
0.328
0.323
0.325
0.3305
0.3355
0.337
0.336
0.329
0.3265
0.325
0.322
0.326
0.327
0.323
0.319
0.323
0.324
0.3275
0.3335
0.3295
0.3305
0.3325
0.329
0.3265
0.326
0.33
0.332
0.334
0.338
0.334
0.3365
0.335
0.3215
0.3175
0.323
0.333
0.334
0.331
0.3275
0.3235
0.331
0.339
0.333
0.324
0.3235
0.328
0.331
0.331
0.322
0.3195
0.3265
0.325
0.3165
0.3255
0.3435
0.341
0.3305
0.332
0.336
0.3325
0.33
0.3255
0.327
0.331
0.3315
0.3325
0.3315
0.327
0.3285
0.333
0.331
0.332
0.33
0.332
0.326
0.316
0.3275
0.331
0.327
0.3295
0.3325
0.3315
0.3265
0.3255
0.325
0.3305
0.3355
0.3285
0.322
0.3275
0.335
0.33
0.3255
0.3255
0.327
0.3255
0.325
0.3305
0.328
0.3245
0.3245
0.3225
0.3235
0.3275
0.3265
0.3275
0.3295
0.324
0.32
0.321
0.322
0.3205
0.322
0.3245
0.3205
0.3155
0.323
0.325
0.314
0.3115
0.3165
0.3205
0.3235
0.323
0.3225
0.321
0.3155
0.3245
0.328
0.319
0.325
0.326
0.3135
0.31
0.3155
0.315
0.317
0.3245
0.3225
0.32
0.319
0.3225
0.3265
0.32
0.3185
0.3195
0.308
0.3045
0.3095
0.308
0.3105
0.3155
0.3225
0.3225
0.312
0.3105
0.312
0.3125
0.318
0.313
0.309
0.316
0.317
0.3155
0.3205
0.3235
0.3205
0.32
0.316
0.3115
0.316
0.318
0.3185
0.3135
0.3105
0.3065
0.301
0.3015
0.2995
0.3025
0.309
0.3135
0.3135
0.313
0.314
0.309
0.306
0.314
0.313
0.313
0.318
0.3185
0.314
0.3085
0.306
0.298
0.2965
0.31
0.32
0.3115
0.3035
0.305
0.3135
0.3165
0.313
0.31
0.303
0.3045
0.3115
0.3145
0.311
0.312
0.3125
0.3135
0.319
0.3155
0.3125
0.3125
0.313
0.3135
0.3075
0.304
0.2975
0.299
0.3085
0.305
0.3045
0.3105
0.3175
0.317
0.316
0.3095
0.304
0.3055
0.303
0.3055
0.3055
0.307
0.3115
0.307
0.3015
0.3075
0.3165
0.3125
0.307
0.3075
0.3035
0.306
0.3115
0.308
0.308
0.309
0.307
0.3025
0.3075
0.3145
0.3115
0.3135
0.314
0.312
0.3055
0.3065
0.308
0.305
0.3045
0.289
0.295
0.3135
0.3115
0.3125
0.316
0.3205
0.319
0.3135
0.313
0.311
0.3125
0.309
0.306
0.3055
0.3075
0.311
0.31
0.311
0.3085
0.3055
0.312
0.3145
0.3065
0.2995
0.304
0.311
0.3105
0.3075
0.3015
0.302
0.3075
0.306
0.306
0.308
0.3015
0.3015
0.309
0.3045
0.3045
0.309
0.3055
0.3065
0.304
0.3095
0.313
0.31
0.3115
0.3075
0.305
0.304
0.3015
0.3045
0.307
0.2995
0.3015
0.3125
0.3105
0.3095
0.314
0.314
0.314
0.311
0.3145
0.322
0.3145
0.314
0.316
0.312
0.313
0.3185
0.322
0.32
0.313
0.309
0.3195
0.3255
0.33
0.3305
0.331
0.347
0.3505
0.3465
0.3495
0.348
0.352
0.3585
0.355
0.3485
0.3465
0.348
0.3435
0.344
0.344
0.3405
0.346
0.3475
0.3455
0.3465
0.3475
0.3525
0.358
0.3655
0.372
0.371
0.374
0.3695
0.362
0.374
0.379
0.3685
0.3665
0.372
0.3725
0.3775
0.385
0.374
0.374
0.381
0.3715
0.37
0.3715
0.366
0.3665
0.3715
0.3665
0.3585
0.355
0.3545
0.3565
0.357
0.3595
0.3575
0.3605
0.3615
0.3615
0.3645
0.363
0.3605
0.3535
0.353
0.3585
0.361
0.356
0.3525
0.348
0.337
0.328
0.3225
0.3175
0.311
0.306
0.3085
0.311
0.308
0.304
0.3005
