ECG
0.0325
0.029
0.0265
0.027
0.0265
0.0305
0.0325
0.0315
0.0335
0.0325
0.0335
0.0315
0.03
0.0315
0.0325
0.0345
0.0315
0.0305
0.031
0.03
0.031
0.028
0.0265
0.0265
0.0275
0.028
0.0255
0.023
0.0245
0.0275
0.026
0.0265
0.0325
0.037
0.034
0.034
0.037
0.0355
0.033
0.032
0.033
0.0335
0.031
0.0305
0.032
0.0335
0.033
0.034
0.033
0.0315
0.0335
0.032
0.0285
0.028
0.03
0.03
0.0275
0.025
0.0265
0.025
0.023
0.024
0.0235
0.0215
0.02
0.024
0.0275
0.0265
0.027
0.035
0.037
0.0365
0.0335
0.03
0.037
0.0395
0.0335
0.03
0.0315
0.0305
0.03
0.027
0.028
0.0325
0.0305
0.028
0.0275
0.0295
0.027
0.026
0.0265
0.026
0.029
0.029
0.0245
0.023
0.023
0.0215
0.0205
0.0205
0.0245
0.027
0.0245
0.022
0.0275
0.0315
0.0265
0.029
0.0315
0.0265
0.021
0.0165
0.0165
0.0195
0.017
0.0155
0.014
0.0135
0.0205
0.021
0.018
0.016
0.0175
0.0195
0.015
0.0185
0.021
0.0185
0.0205
0.0195
0.0195
0.024
0.026
0.024
0.0205
0.021
0.022
0.022
0.024
0.0225
0.024
0.029
0.0315
0.0285
0.026
0.025
0.026
0.0285
0.027
0.0255
0.027
0.0235
0.0225
0.02
0.0175
0.02
0.0195
0.0195
0.0215
0.027
0.0265
0.0205
0.0215
0.027
0.029
0.026
0.0265
0.0235
0.021
0.0275
0.026
0.02
0.0205
0.022
0.021
0.0235
0.019
0.017
0.0205
0.023
0.024
0.0225
0.022
0.023
0.0225
0.0175
0.0205
0.0225
0.0195
0.027
0.0325
0.027
0.0285
0.0355
0.033
0.0335
0.035
0.036
0.0405
0.0455
0.0465
0.0435
0.046
0.047
0.0465
0.0495
0.051
0.0475
0.044
0.041
0.04
0.039
0.04
0.045
0.0455
0.046
0.042
0.041
0.046
0.047
0.048
0.047
0.045
0.043
0.0455
0.041
0.033
0.0385
0.0415
0.0425
0.047
0.0535
0.063
0.0625
0.062
0.0635
0.0605
0.054
0.0515
0.0515
0.052
0.059
0.064
0.0635
0.058
0.0535
0.055
0.057
0.057
0.0585
0.0595
0.06
0.067
0.0775
0.0815
0.0805
0.0745
0.0775
0.0855
0.081
0.0745
0.0695
0.0665
0.0625
0.057
0.055
0.0515
0.0445
0.0385
0.0365
0.0345
0.0285
0.0205
0.019
0.02
0.02
0.0215
0.02
0.0185
0.02
0.017
0.013
0.0135
0.0145
0.017
0.016
0.016
0.019
0.0175
0.019
0.02
0.0215
0.0215
0.0185
0.0165
0.0165
0.016
0.0125
0.017
0.019
0.0135
0.0115
0.012
0.012
0.015
0.013
0.009
0.016
0.011
0.002
0.006
0.008
0.016
0.023
0.0195
0.018
0.019
0.0195
0.0195
0.0195
0.02
0.019
0.0205
0.0225
0.0195
0.0155
0.0175
0.0165
0.0135
0.019
0.019
0.0205
0.024
0.022
0.0195
0.0185
0.0215
0.024
0.026
0.028
0.028
0.0275
0.0255
0.0235
0.0255
0.0225
0.0195
0.0175
0.015
0.0115
0.007
0.008
0.0095
0.01
0.0135
0.0215
0.026
0.029
0.0355
0.042
0.0525
0.061
0.073
0.096
0.1135
0.1305
0.151
0.163
0.178
0.189
0.2
0.2105
0.225
0.2485
0.2715
0.2935
0.3125
0.34
0.3595
0.371
0.382
0.401
0.425
0.423
0.4195
0.4165
0.395
0.374
0.3455
0.3065
0.282
0.271
0.255
0.222
0.19
0.1685
0.1435
0.113
0.0935
0.077
0.0525
0.0325
0.0085
-0.01
-0.006
-0.005
-0.0145
-0.015
-0.01
-0.0035
0.007
0.0255
0.041
0.0575
0.0795
0.0965
0.1065
0.1115
0.1175
0.118
0.1225
0.126
0.1275
0.1275
0.123
0.122
0.1185
0.111
0.0995
0.0955
0.099
0.0995
0.0995
0.0985
0.0925
0.088
0.0855
0.084
0.083
0.0795
0.0795
0.078
0.0715
0.0715
0.0735
0.0745
0.0785
0.076
0.074
0.074
0.072
0.0765
0.076
0.0695
0.0715
0.072
0.0705
0.0715
0.0685
0.0655
0.066
0.066
0.0645
0.0635
0.064
0.0675
0.068
0.0665
0.0655
0.0635
0.068
0.0715
0.0705
0.0705
0.0705
0.072
0.074
0.074
0.0735
0.074
0.074
0.074
0.074
0.074
0.0765
0.078
0.079
0.0815
0.0785
0.077
0.076
0.078
0.079
0.077
0.081
0.079
0.0755
0.078
0.0805
0.0855
0.0875
0.0885
0.087
0.0825
0.083
0.0855
0.088
0.086
0.084
0.0855
0.082
0.082
0.0855
0.085
0.085
0.086
0.086
0.0865
0.0885
0.0905
0.0915
0.0885
0.089
0.0935
0.094
0.0955
0.098
0.099
0.0985
0.096
0.0975
0.104
0.107
0.1085
0.11
0.1075
0.105
0.1055
0.1045
0.103
0.1045
0.1055
0.107
0.112
0.1105
0.109
0.1155
0.1145
0.1125
0.115
0.127
0.137
0.1395
0.141
0.137
0.1335
0.133
0.136
0.139
0.139
0.1415
0.1425
0.1435
0.148
0.1525
0.1525
0.154
0.156
0.16
0.161
0.162
0.171
0.1725
0.169
0.1705
0.1735
0.173
0.1745
0.1805
0.184
0.1875
0.192
0.193
0.196
0.2005
0.201
0.2045
0.207
0.211
0.2135
0.2135
0.2165
0.2175
0.218
0.2185
0.219
0.2235
0.225
0.2225
0.227
0.233
0.2385
0.2425
0.246
0.2455
0.2445
0.251
0.2555
0.259
0.2595
0.254
0.2525
0.2565
0.259
0.257
0.255
0.2565
0.259
0.2595
0.261
0.2585
0.256
0.2595
0.2625
0.2645
0.2645
0.2635
0.2585
0.253
0.255
0.2565
0.2555
0.2535
0.2525
0.2565
0.2545
0.246
0.244
0.2415
0.2355
0.235
0.232
0.2265
0.22
0.2165
0.2215
0.221
0.2105
0.2035
0.198
0.1895
0.1865
0.182
0.1745
0.1725
0.1685
0.1625
0.1605
0.1585
0.153
0.1505
0.152
0.1485
0.1385
0.1335
0.1305
0.131
0.128
0.118
0.1125
0.1075
0.1055
0.109
0.103
0.0935
0.096
0.096
0.0955
0.092
0.0835
0.0865
0.0855
0.0825
0.0825
0.0805
0.0755
0.0715
0.0715
0.068
0.067
0.0665
0.068
0.07
0.067
0.0655
0.063
0.0615
0.06
0.0565
0.062
0.064
0.0605
0.058
0.06
0.0645
0.06
0.062
0.0645
0.0655
0.068
0.0645
0.062
0.061
0.064
0.0635
0.06
0.057
0.051
0.0505
0.054
0.0565
0.0545
0.054
0.056
0.055
0.054
0.0535
0.053
0.0575
0.0615
0.06
0.064
0.0605
0.0575
0.0585
0.0565
0.059
0.061
0.0625
0.062
0.06
0.0595
0.063
0.0625
0.061
0.0595
0.06
0.0665
0.067
0.0635
0.0685
0.068
0.0625
0.064
0.062
0.0585
0.0585
0.0535
0.043
0.0455
0.0525
0.0545
0.0555
0.0505
0.0515
0.0545
0.051
0.049
0.049
0.0545
0.06
0.06
0.059
0.0605
0.0645
0.0635
0.0605
0.06
0.0615
0.064
0.061
0.06
0.06
0.065
0.0675
0.0625
0.061
0.0595
0.061
0.058
0.058
0.062
0.0585
0.0595
0.06
0.059
0.06
0.061
0.0605
0.0605
0.063
0.061
0.06
0.062
0.0605
0.0585
0.0605
0.059
0.0595
0.0635
0.064
0.065
0.067
0.069
0.068
0.0665
0.0645
0.064
0.0635
0.0655
0.073
0.0705
0.0685
0.068
0.0685
0.071
0.0705
0.0705
0.069
0.07
0.0675
0.0675
0.0685
0.0695
0.0725
0.0715
0.071
0.0695
0.071
0.0715
0.0715
0.074
0.074
0.0735
0.0685
0.07
0.075
0.0715
0.0675
0.0675
0.0675
0.0715
0.073
0.0675
0.0685
0.07
0.0685
0.067
0.0695
0.0715
0.067
0.067
0.0685
0.067
0.0685
0.067
0.062
0.058
0.06
0.063
0.063
0.064
0.062
0.0605
0.0645
0.064
0.064
0.066
0.065
0.063
0.06
0.0615
0.06
0.054
0.062
0.069
0.071
0.0675
0.0645
0.07
0.0685
0.0655
0.066
0.0745
0.0765
0.067
0.065
0.066
0.065
0.063
0.0605
0.0605
0.0635
0.064
0.063
0.063
0.0645
0.0675
0.063
0.0645
0.068
0.0645
0.0665
0.0735
0.073
0.0695
0.0675
0.0615
0.06
0.0635
0.067
0.067
0.063
0.0625
0.064
0.0655
0.0645
0.065
0.065
0.0635
0.0645
0.0625
0.063
0.062
0.0645
0.0605
0.0535
0.058
0.06
0.0585
0.059
0.0605
0.0615
0.0665
0.0655
0.0585
0.0565
0.062
0.061
0.061
0.0595
0.0545
0.062
0.063
0.065
0.071
0.0695
0.067
0.065
0.061
0.06
0.0605
0.055
0.054
0.054
0.0555
0.056
0.0515
0.051
0.051
0.051
0.0505
0.053
0.057
0.0545
0.0535
0.053
0.054
0.0595
0.061
0.0595
0.0575
0.0545
0.053
0.0535
0.0545
0.0525
0.05
0.0555
0.061
0.059
0.056
0.0575
0.061
0.059
0.0535
0.0545
0.057
0.0575
0.055
0.054
0.056
0.0545
0.0535
0.0505
0.0525
0.0535
0.0485
0.0495
0.052
0.056
0.0525
0.0495
0.05
0.048
0.051
0.051
0.0595
0.0645
0.057
0.0565
0.056
0.058
0.0625
0.064
0.064
0.064
0.0635
0.059
0.0585
0.06
0.0625
0.0665
0.0675
0.068
0.068
0.065
0.062
0.0645
0.0635
0.0585
0.057
0.0555
0.056
0.0565
0.0595
0.063
0.0625
0.064
0.0635
0.0665
0.0655
0.064
0.065
0.0665
0.072
0.0725
0.071
0.0695
0.0645
0.0635
0.069
0.0695
0.067
0.07
0.0685
0.066
0.0665
0.0695
0.069
0.0645
0.0635
0.0655
0.07
0.0705
0.071
0.069
0.067
0.07
0.0695
0.071
0.069
0.067
0.0705
0.071
0.0695
0.067
0.067
0.0715
0.072
0.0685
0.0715
0.074
0.0765
0.082
0.085
0.083
0.0855
0.0865
0.0885
0.0925
0.085
0.0865
0.088
0.083
0.082
0.0785
0.075
0.0775
0.077
0.077
0.076
0.0745
0.0825
0.085
0.083
0.078
0.075
0.081
0.08
0.0785
0.0765
0.0735
0.0805
0.09
0.097
0.094
0.0985
0.108
0.1085
0.108
0.106
0.106
0.0985
0.0945
0.094
0.101
0.11
0.108
0.107
0.1055
0.1035
0.098
0.095
0.0975
0.1005
0.1095
0.117
0.1215
0.1235
0.125
0.1225
0.121
0.123
0.12
0.1205
0.1155
0.107
0.1045
0.102
0.098
0.0925
0.09
0.081
0.0745
0.07
0.067
0.0655
0.0645
0.0675
0.065
0.0635
0.061
0.0625
0.063
0.0565
0.0515
0.0495
0.0515
0.0535
0.053
0.053
0.054
0.0515
0.055
0.057
0.0565
0.057
0.0555
0.0555
0.049
0.051
0.059
0.0565
0.051
0.0515
0.0545
0.053
0.053
0.0535
0.0565
0.057
0.0565
0.057
0.055
0.0525
0.051
0.052
0.05
0.05
0.0525
0.0515
0.05
0.0495
0.0465
0.0445
0.046
0.0475
0.0465
0.047
0.0495
0.048
0.0455
0.0405
0.043
0.0455
0.044
0.0445
0.0395
0.0395
0.0405
0.038
0.036
0.037
0.034
0.033
0.0355
0.033
0.0355
0.042
0.0425
0.034
0.0285
0.026
0.0275
0.0295
0.0295
0.029
0.0265
0.037
0.045
0.046
0.0465
0.051
0.0615
0.0685
0.079
0.0905
0.1055
0.1255
0.1435
0.1635
0.1785
0.195
0.21
0.222
0.236
0.2435
0.2655
0.2925
0.3155
0.3345
0.3575
0.383
0.3955
0.4105
0.422
0.4445
0.4575
0.4505
0.4485
0.4385
0.424
0.398
0.3675
0.3385
0.324
0.314
0.2905
0.253
0.2155
0.1975
0.169
0.1405
0.118
0.0945
0.077
0.052
0.0295
0.0205
0.0165
0.009
0.007
0.0105
0.0155
0.029
0.0435
0.0555
0.071
0.091
0.11
0.121
0.1295
0.1405
0.1465
0.144
0.1445
0.1425
0.139
0.138
0.141
0.1465
0.144
0.1345
0.128
0.129
0.1245
0.1195
0.1185
0.118
0.116
0.1085
0.106
0.107
0.108
0.1055
0.1025
0.1005
0.099
0.0965
0.0945
0.095
0.0965
0.099
0.0965
0.0925
0.0915
0.091
0.0925
0.0955
0.092
0.0915
0.094
0.092
0.0925
0.091
0.0915
0.091
0.092
0.0945
0.0955
0.0945
0.0955
0.1035
0.106
0.1025
0.0965
0.0975
0.0995
0.099
0.106
0.1095
0.1055
0.1025
0.101
0.1045
0.1045
0.1015
0.1045
0.1045
0.104
0.107
0.109
0.1045
0.101
0.102
0.103
0.105
0.105
0.105
0.105
0.1085
0.1095
0.1075
0.111
0.1095
0.108
0.1115
0.109
0.1095
0.1075
0.1045
0.1055
0.1065
0.1075
0.108
0.1085
0.107
0.107
0.1085
0.1125
0.1135
0.1175
0.121
0.122
0.12
0.117
0.122
0.122
0.122
0.1225
0.119
0.12
0.125
0.13
0.1295
0.1255
0.1275
0.13
0.128
0.1255
0.1245
0.1255
0.128
0.1295
0.1295
0.131
0.132
0.134
0.1405
0.146
0.1415
0.139
0.1445
0.1485
0.1545
0.156
0.157
0.1595
0.159
0.1605
0.16
0.165
0.1675
0.1625
0.164
0.1615
0.1615
0.1675
0.1715
0.1735
0.179
0.183
0.179
0.186
0.191
0.19
0.1925
0.19
0.1915
0.1965
0.2
0.2055
0.207
0.208
0.2115
0.211
0.213
0.217
0.2205
0.2215
0.221
0.2225
0.229
0.2315
0.234
0.2395
0.2385
0.2445
0.2495
0.2475
0.251
0.2525
0.252
0.2555
0.2575
0.2625
0.2665
0.265
0.267
0.2645
0.264
0.2675
0.2695
0.2705
0.2695
0.2695
0.27
0.271
0.2695
0.2695
0.275
0.277
0.2765
0.276
0.276
0.2765
0.2765
0.275
0.27
0.273
0.277
0.277
0.2765
0.2715
0.27
0.2735
0.2755
0.271
0.265
0.2625
0.262
0.258
0.2545
0.2565
0.2555
0.2555
0.247
0.2365
0.239
0.2405
0.231
0.221
0.216
0.2095
0.2075
0.2065
0.207
0.206
0.201
0.2005
0.199
0.191
0.1775
0.1725
0.1685
0.1665
0.163
0.1525
0.1495
0.149
0.144
0.1405
0.1365
0.1305
0.126
0.121
0.1165
0.1095
0.1005
0.098
0.101
0.1
0.096
0.094
0.092
0.088
0.088
0.088
0.0825
0.081
0.0795
0.0775
0.0745
0.0765
0.081
0.0805
0.0845
0.0855
0.0815
0.0765
0.0755
0.0785
0.078
0.075
0.074
0.074
0.0745
0.073
0.071
0.07
0.0735
0.074
0.0675
0.0715
0.077
0.074
0.0755
0.075
0.0715
0.073
0.075
0.074
0.073
0.073
0.072
0.0735
0.0725
0.07
0.071
0.0705
0.0685
0.067
0.0675
0.07
0.0695
0.067
0.067
0.0675
0.0705
0.0695
0.067
0.0675
0.069
0.066
0.0645
0.0655
0.063
0.065
0.066
0.063
0.0605
0.059
0.0615
0.061
0.0615
0.0625
0.061
0.0665
0.0625
0.0575
0.0615
0.0635
0.0665
0.0675
0.0635
0.063
0.067
0.066
0.0635
0.064
0.066
0.066
0.0665
0.0665
0.068
0.0705
0.07
0.07
0.0665
0.0645
0.0665
0.0685
0.069
0.0645
0.0665
0.0705
0.0685
0.066
0.064
0.064
0.064
0.062
0.063
0.0645
0.0635
0.064
0.0645
0.065
0.067
0.0675
0.0675
0.069
0.0715
0.0695
0.0675
0.071
0.0715
0.066
0.0665
0.0705
0.0685
0.066
0.0665
0.0665
0.0655
0.0695
0.0725
0.0715
0.0705
0.072
0.072
0.072
0.073
0.073
0.072
0.074
0.0775
0.0755
0.0725
0.0745
0.078
0.0745
0.072
0.074
0.0745
0.074
0.0695
0.068
0.071
0.071
0.0745
0.0765
0.069
0.0695
0.077
0.081
0.0805
0.078
0.076
0.077
0.0825
0.079
0.0725
0.0765
0.08
0.077
0.077
0.077
0.0735
0.071
0.072
0.074
0.072
0.072
0.068
0.0655
0.0675
0.0675
0.066
0.064
0.064
0.069
0.0775
0.0785
0.0745
0.072
0.071
0.07
0.07
0.07
0.071
0.0715
0.0725
0.0745
0.073
0.0735
0.074
0.074
0.0735
0.0735
0.078
0.0745
0.0745
0.0735
0.067
0.0715
0.076
0.0735
0.0705
0.0705
0.071
0.071
0.072
0.07
0.0695
0.072
0.073
0.0695
0.0675
0.068
0.0655
0.0655
0.0645
0.0615
0.0605
0.0635
0.065
0.063
0.0605
0.059
0.061
0.0605
0.0665
0.0715
0.0715
0.0745
0.072
0.07
0.07
0.063
0.0575
0.059
0.063
0.0655
0.066
0.067
0.066
0.064
0.066
0.0645
0.0645
0.064
0.064
0.0665
0.064
0.069
0.068
0.0685
0.0705
0.068
0.07
0.065
0.0645
0.062
0.0565
0.0575
0.0575
0.0575
0.0605
0.064
0.0635
0.0625
0.065
0.0615
0.06
0.066
0.0615
0.0615
0.0685
0.069
0.0605
0.0575
0.0635
0.0645
0.0635
0.0635
0.064
0.0615
0.0605
0.064
0.064
0.064
0.0615
0.06
0.064
0.0645
0.0635
0.063
0.0605
0.06
0.062
0.0635
0.0645
0.064
0.06
0.0595
0.061
0.06
0.0595
0.0555
0.057
0.0635
0.0635
0.0655
0.0665
0.066
0.0625
0.061
0.0635
0.0605
0.06
0.0605
0.0615
0.061
0.0625
0.067
0.0675
0.0655
0.059
0.0575
0.061
0.0645
0.068
0.0655
0.065
0.06
0.054
0.0595
0.06
0.062
0.066
0.0675
0.0625
0.0595
0.06
0.0625
0.0665
0.058
0.054
0.0615
0.0645
0.0635
0.0655
0.0645
0.065
0.0665
0.063
0.0645
0.0665
0.062
0.0605
0.064
0.061
0.0585
0.0595
0.06
0.0605
0.0605
0.0605
0.0615
0.059
0.0585
0.066
0.0655
0.066
0.067
0.0625
0.0585
0.059
0.064
0.061
0.0615
0.067
0.062
0.0555
0.0585
0.0605
0.0545
0.0545
0.0565
0.0585
0.059
0.052
0.0505
0.053
0.058
0.065
0.067
0.067
0.0675
0.068
0.067
0.0665
0.065
0.063
0.0655
0.069
0.0695
0.0645
0.061
0.0605
0.0605
0.0605
0.065
0.067
0.0645
0.063
0.062
0.066
0.0755
0.073
0.0645
0.0685
0.073
0.0715
0.066
0.0635
0.0645
0.065
0.0705
0.074
0.072
0.069
0.065
0.064
0.0655
0.0665
0.0675
0.0705
0.0725
0.0745
0.0765
0.072
0.0715
0.0745
0.0715
0.0715
0.0755
0.075
0.073
0.068
0.064
0.0715
0.074
0.067
0.0665
0.0695
0.0685
0.0675
0.0685
0.067
0.0685
0.0715
0.0755
0.0765
0.0735
0.0755
0.0775
0.077
0.08
0.0855
0.0805
0.079
0.085
0.076
0.0665
0.0695
0.075
0.085
0.0915
0.088
0.087
0.0895
0.089
0.0865
0.085
0.0875
0.0875
0.0855
0.0905
0.0915
0.091
0.0965
0.0985
0.1025
0.105
0.1075
0.1155
0.115
0.108
0.1075
0.108
0.109
0.1135
0.1145
0.1095
0.102
0.098
0.093
0.0915
0.0965
0.093
0.096
0.1045
0.108
0.116
0.122
0.123
0.1235
0.121
0.122
0.1235
0.1225
0.121
0.1135
0.1115
0.1165
0.115
0.1115
0.1125
0.114
0.111
0.105
0.094
0.0845
0.0845
0.0805
0.073
0.073
0.074
0.07
0.069
0.0705
0.0695
0.0625
0.059
0.061
0.0605
0.0605
0.066
0.069
0.065
0.0675
0.0665
0.0635
0.065
0.067
0.0675
0.0655
0.067
0.0675
0.063
0.059
0.0595
0.0605
0.0605
0.0615
0.0575
0.0555
0.0615
0.063
0.0615
0.06
0.0575
0.0575
0.063
0.06
0.054
0.056
0.056
0.051
0.0505
0.048
0.0435
0.0475
0.047
0.0485
0.046
0.044
0.0485
0.0515
0.055
0.0525
0.0565
0.056
0.0505
0.0505
0.05
0.052
0.053
0.0475
0.0455
0.0535
0.0535
0.0525
0.054
0.0485
0.0465
0.044
0.041
0.04
0.0375
0.037
0.0335
0.0325
0.033
0.036
0.0385
0.037
0.0435
0.048
0.057
0.0775
0.0915
0.106
0.1245
0.137
0.156
0.184
0.2025
0.214
0.222
0.2365
0.253
0.262
0.2775
0.3025
0.3295
0.3465
0.3705
0.393
0.41
0.4265
0.4355
0.458
0.4625
0.4555
0.456
0.4445
0.4265
0.399
0.362
0.3265
0.317
0.3075
0.271
0.2345
0.205
0.1825
0.1605
0.1335
0.1115
0.09
0.0675
0.0445
0.022
0.0155
0.016
0.011
0.004
0.004
0.0075
0.0105
0.025
0.043
0.063
0.081
0.097
0.1125
0.124
0.1315
0.1385
0.1435
0.145
0.1475
0.149
0.1535
0.1555
0.151
0.145
0.1375
0.1335
0.132
0.128
0.122
0.119
0.113
0.109
0.1125
0.1075
0.1
0.0965
0.0985
0.101
0.0965
0.0945
0.098
0.099
0.098
0.0985
0.1005
0.0995
0.0955
0.094
0.0935
0.0935
0.095
0.1005
0.0955
0.087
0.089
0.0865
0.0895
0.0925
0.0895
0.086
0.09
0.094
0.09
0.0875
0.088
0.0925
0.0925
0.096
0.105
0.109
0.1065
0.098
0.0975
0.0965
0.0915
0.0935
0.097
0.097
0.098
0.0955
0.094
0.0955
0.0925
0.091
0.0935
0.098
0.106
0.1105
0.1035
0.1005
0.101
0.102
0.102
0.0995
0.0975
0.0955
0.107
0.1145
0.1065
0.1065
0.109
0.1045
0.109
0.1155
0.1145
0.1105
0.1065
0.1125
0.113
0.1135
0.1085
0.1075
0.1185
0.1195
0.121
0.123
0.1215
0.1195
0.121
0.122
0.1215
0.1225
0.123
0.125
0.1255
0.124
0.1265
0.1335
0.133
0.1315
0.135
0.1355
0.138
0.1355
0.1355
0.137
0.1375
0.137
0.1385
0.143
0.143
0.1435
0.1415
0.146
0.147
0.1485
0.153
0.153
0.1545
0.1525
0.1525
0.1575
0.1645
0.164
0.1665
0.17
0.17
0.176
0.178
0.176
0.1765
0.1775
0.18
0.1805
0.179
0.18
0.182
0.1835
0.185
0.187
0.193
0.1975
0.2
0.204
0.207
0.2035
0.2045
0.215
0.2135
0.2135
0.22
0.2215
0.221
0.2255
0.2295
0.2255
0.2245
0.2315
0.236
0.2415
0.249
0.256
0.2605
0.26
0.26
0.2595
0.26
0.2595
0.262
0.2655
0.265
0.2655
0.268
0.269
0.2675
0.2735
0.2765
0.2785
0.2845
0.2855
0.2925
0.29
0.28
0.2795
0.284
0.287
0.289
0.293
0.292
0.2865
0.2835
0.2805
0.28
0.282
0.2825
0.2805
0.2735
0.269
0.2785
0.288
0.2815
0.276
0.278
0.28
0.2725
0.267
0.269
0.265
0.2585
0.2515
0.252
0.249
0.24
0.2385
0.237
0.2355
0.2295
0.218
0.2175
0.2235
0.2225
0.2125
0.2
0.2
0.203
0.1925
0.1825
0.1785
0.174
0.172
0.1655
0.1605
0.159
0.1505
0.1495
0.1475
0.1365
0.1355
0.135
0.1265
0.1175
0.1215
0.122
0.1085
0.107
0.1115
0.1065
0.0985
0.0945
0.095
0.093
0.093
0.0925
0.09
0.089
0.09
0.089
0.0845
0.083
0.0785
0.0715
0.0735
0.0745
0.0785
0.079
0.076
0.082
0.083
0.0845
0.079
0.069
0.076
0.082
0.0815
0.083
0.087
0.084
0.0795
0.081
0.0825
0.082
0.077
0.0745
0.078
0.074
0.0705
0.0715
0.072
0.0705
0.0675
0.072
0.076
0.077
0.0685
0.067
0.0705
0.0695
0.0745
0.074
0.0715
0.0685
0.0735
0.0815
0.078
0.074
0.0715
0.067
0.0665
0.073
0.0725
0.0715
0.0805
0.0805
0.0725
0.066
0.0665
0.0705
0.0665
0.0655
0.071
0.072
0.069
0.068
0.072
0.0645
0.063
0.075
0.074
0.068
0.0655
0.07
0.0685
0.067
0.0675
0.0675
0.069
0.065
0.0635
0.0645
0.0665
0.068
0.074
0.0815
0.081
0.0755
0.069
0.0725
0.078
0.073
0.072
0.073
0.07
0.0745
0.0755
0.0715
0.0715
0.0705
0.068
0.0725
0.0765
0.071
0.073
0.078
0.0765
0.078
0.075
0.071
0.072
0.0715
0.0745
0.071
0.074
0.0775
0.075
0.0765
0.068
0.065
0.0665
0.066
0.0685
0.0665
0.0645
0.0675
0.074
0.076
0.079
0.0815
0.0775
0.079
0.0775
0.074
0.0765
0.0805
0.083
0.08
0.0785
0.0785
0.075
0.0785
0.08
0.0775
0.077
0.0735
0.0745
0.0695
0.0675
0.0735
0.0765
0.076
0.0735
0.0735
0.0715
0.074
0.073
0.0695
0.0695
0.068
0.0725
0.078
0.0795
0.08
0.078
0.0775
0.0755
0.0735
0.0765
0.078
0.078
0.0755
0.0735
0.0745
0.0765
0.0735
0.0725
0.0735
0.0705
0.0755
0.077
0.075
0.08
0.0785
0.072
0.0735
0.0765
0.0745
0.073
0.0735
0.0745
0.074
0.072
0.071
0.0735
0.073
0.0705
0.074
0.0765
0.075
0.0705
0.0685
0.068
0.065
0.061
0.064
0.0725
0.073
0.065
0.069
0.0785
0.0765
0.081
0.082
0.081
0.078
0.0735
0.078
0.0765
0.0675
0.065
0.0685
0.0735
0.071
0.069
0.072
0.0705
0.071
0.0715
0.0705
0.071
0.071
0.071
0.0735
0.07
0.067
0.0695
0.072
0.0735
0.072
0.0735
0.0755
0.0745
0.071
0.0735
0.0705
0.0645
0.064
0.0625
0.0655
0.065
0.0655
0.068
0.0595
0.058
0.0665
0.0655
0.0645
0.067
0.067
0.069
0.0705
0.0655
0.064
0.0675
0.067
0.067
0.0595
0.0595
0.068
0.0675
0.064
0.058
0.063
0.071
0.0645
0.064
0.071
0.069
0.0695
0.0705
0.071
0.0725
0.068
0.0665
0.0675
0.0705
0.065
0.0655
0.0755
0.0775
0.076
0.067
0.064
0.0685
0.071
0.0735
0.076
0.071
0.068
0.071
0.0665
0.062
0.0625
0.069
0.0735
0.072
0.069
0.064
0.0675
0.0715
0.068
0.066
0.0615
0.06
0.061
0.0645
0.0675
0.0675
0.0655
0.06
0.062
0.057
0.0545
0.065
0.0665
0.061
0.061
0.0605
0.0565
0.0615
0.065
0.068
0.071
0.0645
0.064
0.0695
0.0705
0.074
0.071
0.07
0.0775
0.0695
0.06
0.0635
0.0635
0.0595
0.062
0.068
0.068
0.0655
0.063
0.0635
0.069
0.0645
0.0575
0.0635
0.064
0.06
0.061
0.0655
0.0675
0.0645
0.062
0.061
0.0625
0.0605
0.0625
0.071
0.066
0.062
0.0635
0.064
0.0695
0.071
0.0675
0.0675
0.0655
0.067
0.072
0.073
0.073
0.07
0.067
0.0705
0.0705
0.066
0.0655
0.065
0.0665
0.068
0.067
0.0665
0.072
0.0765
0.078
0.0805
0.0785
0.0795
0.081
0.083
0.0805
0.079
0.0775
0.079
0.084
0.077
0.0735
0.072
0.0695
0.071
0.067
0.07
0.077
0.0705
0.07
0.0795
0.0805
0.0805
0.083
0.08
0.078
0.0805
0.0755
0.0715
0.074
0.0795
0.087
0.087
0.0895
0.092
0.0915
0.0965
0.099
0.0975
0.0985
0.099
0.098
0.1015
0.1045
0.106
0.104
0.0945
0.0885
0.086
0.088
0.0965
0.1015
0.104
0.107
0.109
0.11
0.119
0.1285
0.127
0.125
0.1265
0.122
0.116
0.12
0.1185
0.109
0.101
0.096
0.097
0.098
0.092
0.078
0.0745
0.0725
0.064
0.0625
0.0645
0.0675
0.0615
0.058
0.0615
0.058
0.055
0.054
0.0505
0.0515
0.057
0.057
0.0535
0.051
0.0495
0.051
0.055
0.0595
0.0635
0.058
0.0505
0.05
0.051
0.053
0.0535
0.0545
0.056
0.0535
0.05
0.0505
0.052
0.049
0.049
0.051
0.054
0.054
0.0485
0.05
0.051
0.049
0.05
0.0465
0.0415
0.0395
0.043
0.0415
0.0425
0.0475
0.0455
0.0405
0.042
0.044
0.043
0.044
0.0425
0.045
0.044
0.049
0.062
0.06
0.055
0.053
0.051
0.0475
0.0465
0.045
0.046
0.0465
0.0435
0.0465
0.0465
0.044
0.0395
0.036
0.035
0.036
0.0385
0.0385
0.0405
0.0435
0.0465
0.047
0.049
0.0575
0.066
0.074
0.0855
0.0985
0.1195
0.135
0.151
0.1735
0.1825
0.194
0.2055
0.2185
0.2345
0.2505
0.2715
0.292
0.308
0.3255
0.3485
0.359
0.371
0.3765
0.392
0.408
0.4065
0.4015
0.393
0.381
0.3615
0.34
0.3
0.2665
0.2505
0.23
0.2045
0.1705
0.15
0.1335
0.108
0.0875
0.0705
0.0605
0.045
0.0265
0.0105
-0.0005
0.005
0.0055
0.0035
0.005
0.006
0.01
0.0205
0.037
0.0555
0.076
0.093
0.1045
0.115
0.1265
0.1295
0.133
0.1395
0.1385
0.1365
0.1435
0.145
0.1375
0.1355
0.1285
0.1245
0.1235
0.1165
0.1145
0.119
0.1195
0.1155
0.114
0.109
0.107
0.108
0.1025
0.0975
0.092
0.0875
0.0905
0.0885
0.088
0.0945
0.1
0.1045
0.1055
0.098
0.0965
0.1015
0.1
0.1005
0.1
0.0995
0.1015
0.1045
0.1045
0.099
0.101
0.103
0.1
0.0995
0.1
0.0975
0.094
0.0955
0.0995
0.0975
0.0955
0.098
0.0975
0.0945
0.0945
0.098
0.101
0.1025
0.0995
0.102
0.105
0.1045
0.108
0.105
0.102
0.0995
0.1
0.098
0.0965
0.0975
0.0955
0.1
0.1
0.0985
0.0995
0.098
0.1025
0.1075
0.108
0.0995
0.0985
0.1055
0.1055
0.1035
0.101
0.103
0.1065
0.109
0.106
0.1025
0.1045
0.1075
0.107
0.108
0.114
0.1215
0.1215
0.119
0.122
0.122
0.122
0.1225
0.1215
0.124
0.1225
0.1175
0.121
0.1225
0.125
0.1245
0.1215
0.1255
0.1325
0.1325
0.1335
0.139
0.139
0.14
0.141
0.142
0.14
0.1385
0.1415
0.146
0.146
0.1415
0.14
0.144
0.1495
0.151
0.1485
0.1485
0.15
0.152
0.153
0.1565
0.1615
0.1685
0.173
0.1695
0.168
0.1695
0.172
0.1725
0.1755
0.181
0.179
0.177
0.1825
0.1865
0.188
0.193
0.2
0.201
0.2015
0.2005
0.202
0.2045
0.2045
0.2115
0.214
0.2195
0.2275
0.231
0.229
0.226
0.229
0.2355
0.2415
0.2435
0.2435
0.244
0.2525
0.252
0.248
0.2525
0.2555
0.2555
0.258
0.261
0.26
0.2625
0.2645
0.267
0.2675
0.264
0.27
0.276
0.275
0.2745
0.2795
0.281
0.278
0.2805
0.2835
0.283
0.2805
0.2795
0.276
0.2765
0.281
0.289
0.2925
0.2865
0.2855
0.2865
0.289
0.286
0.2785
0.2795
0.28
0.278
0.2735
0.2675
0.2635
0.2595
0.256
0.255
0.2515
0.2445
0.242
0.24
0.233
0.2295
0.224
0.218
0.2165
0.209
0.206
0.202
0.197
0.1925
0.188
0.187
0.1815
0.175
0.171
0.1645
0.1575
0.156
0.149
0.146
0.145
0.139
0.132
0.1235
0.122
0.123
0.1245
0.1205
0.1135
0.1115
0.1095
0.112
0.1105
0.1075
0.1045
0.102
0.103
0.0955
0.094
0.097
0.0895
0.079
0.081
0.084
0.0835
0.0855
0.075
0.0705
0.071
0.068
0.071
0.0685
0.066
0.0655
0.06
0.0615
0.066
0.066
0.066
0.0615
0.0625
0.0645
0.063
0.065
0.0655
0.0615
0.0615
0.0715
0.0755
0.0675
0.0615
0.06
0.0605
0.0605
0.0615
0.062
0.064
0.064
0.066
0.0675
0.0655
0.0615
0.0615
0.0665
0.0625
0.0595
0.0615
0.0605
0.06
0.0605
0.061
0.0635
0.0645
0.0635
0.063
0.0625
0.0665
0.0665
0.0645
0.069
0.0725
0.069
0.059
0.056
0.063
0.0625
0.0575
0.0585
0.06
0.059
0.06
0.058
0.0565
0.0605
0.063
0.0635
0.0665
0.067
0.064
0.0675
0.0695
0.0615
0.0605
0.063
0.0605
0.0625
0.0645
0.0615
0.06
0.0655
0.0665
0.064
0.064
0.064
0.0665
0.063
0.055
0.055
0.0635
0.064
0.064
0.0755
0.079
0.0755
0.0765
0.0765
0.0745
0.074
0.074
0.074
0.0725
0.074
0.07
0.063
0.0655
0.073
0.077
0.074
0.072
0.072
0.073
0.0725
0.0705
0.073
0.0785
0.076
0.069
0.0655
0.068
0.066
0.065
0.069
0.0665
0.069
0.073
0.073
0.072
0.0735
0.0805
0.08
0.0725
0.0725
0.074
0.069
0.07
0.071
0.0675
0.074
0.075
0.068
0.0695
0.072
0.076
0.073
0.0705
0.076
0.075
0.074
0.0775
0.0775
0.075
0.08
0.08
0.077
0.077
0.071
0.0765
0.084
0.081
0.0815
0.084
0.08
0.077
0.077
0.077
0.078
0.074
0.078
0.084
0.076
0.072
0.077
0.081
0.0805
0.0785
0.0805
0.08
0.077
0.077
0.074
0.0715
0.07
0.0745
0.08
0.077
0.0765
0.075
0.073
0.073
0.0725
0.073
0.075
0.077
0.0775
0.0795
0.0765
0.073
0.074
0.0735
0.074
0.0765
0.078
0.076
0.072
0.0715
0.0735
0.0695
0.07
0.07
0.067
0.07
0.0735
0.079
0.0795
0.0745
0.076
0.0745
0.075
0.0785
0.0805
0.0845
0.081
0.0735
0.0755
0.0825
0.0785
0.0735
0.077
0.0775
0.075
0.071
0.071
0.074
0.074
0.0735
0.071
0.0725
0.0715
0.0705
0.0775
0.0755
0.068
0.064
0.0665
0.0665
0.067
0.071
0.0715
0.0715
0.071
0.07
0.0685
0.066
0.0675
0.071
0.071
0.07
0.065
0.0635
0.063
0.0645
0.0615
0.0535
0.0595
0.066
0.0695
0.067
0.0625
0.0655
0.0655
0.068
0.066
0.06
0.0605
0.063
0.066
0.0635
0.061
0.059
0.0615
0.066
0.0635
0.0625
0.063
0.061
0.057
0.0585
0.061
0.0605
0.066
0.07
0.0675
0.063
0.0655
0.0655
0.061
0.0645
0.0645
0.0665
0.067
0.0675
0.071
0.0635
0.0585
0.0595
0.061
0.0635
0.0655
0.0635
0.0585
0.061
0.0605
0.0585
0.057
0.0575
0.0635
0.0695
0.07
0.0665
0.0665
0.0635
0.064
0.064
0.064
0.0655
0.0605
0.061
0.0635
0.0645
0.0665
0.0655
0.063
0.0615
0.0665
0.069
0.066
0.0655
0.0695
0.0705
0.0715
0.0695
0.066
0.0705
0.069
0.0675
0.066
0.063
0.0645
0.064
0.068
0.0625
0.0575
0.0645
0.0655
0.063
0.0605
0.057
0.0575
0.0625
0.0645
0.0635
0.0625
0.062
0.0645
0.065
0.064
0.064
0.0675
0.0715
0.07
0.0675
0.068
0.07
0.0705
0.07
0.067
0.0675
0.069
0.0685
0.073
0.075
0.07
0.07
0.071
0.067
0.066
0.067
0.067
0.0705
0.07
0.0665
0.07
0.071
0.07
0.071
0.0695
0.0675
0.067
0.067
0.0695
0.0745
0.0765
0.075
0.074
0.0755
0.077
0.077
0.079
0.0745
0.079
0.086
0.0855
0.0865
0.081
0.083
0.086
0.08
0.0805
0.081
0.0775
0.077
0.0775
0.074
0.0715
0.08
0.085
0.0855
0.087
0.084
0.083
0.0785
0.0785
0.0815
0.0815
0.087
0.089
0.093
0.0945
0.096
0.0985
0.0975
0.098
0.1005
0.107
0.107
0.105
0.1025
0.103
0.103
0.1035
0.1005
0.092
0.094
0.0955
0.095
0.1
0.104
0.105
0.1095
0.114
0.119
0.126
0.1295
0.1315
0.1315
0.127
0.1235
0.126
0.122
0.11
0.1045
0.1035
0.0995
0.0985
0.1005
0.0995
0.093
0.0845
0.0775
0.07
0.066
0.067
0.067
0.064
0.0665
0.065
0.058
0.059
0.0565
0.0535
0.052
0.0535
0.0555
0.0565
0.06
0.063
0.058
0.056
0.0575
0.057
0.057
0.0555
0.059
0.0615
0.065
0.0675
0.0665
0.07
0.0735
0.0745
0.0705
0.067
0.0685
0.0685
0.066
0.0675
0.0655
0.0595
0.0625
0.0635
0.0615
0.061
0.062
0.0665
0.066
0.0635
0.059
0.0595
0.0645
0.0645
0.067
0.0675
0.0655
0.0635
0.0685
0.067
0.0625
0.0635
0.0635
0.063
0.0595
0.058
0.056
0.058
0.0585
0.062
0.062
0.0535
0.056
0.058
0.0575
0.0555
0.05
0.048
0.0445
0.0405
0.0375
0.0355
0.04
0.0455
0.047
0.049
0.056
0.0625
0.0665
0.0705
0.081
0.0975
0.109
0.1235
0.142
0.159
0.183
0.2045
0.2145
0.2215
0.2375
0.249
0.2565
0.283
0.313
0.3365
0.36
0.3855
0.3995
0.412
0.425
0.4415
0.462
0.46
0.4575
0.454
0.437
0.419
0.393
0.351
0.321
0.3105
0.292
0.263
0.234
0.2155
0.1875
0.1545
0.1345
0.1105
0.0875
0.071
0.054
0.0335
0.027
0.031
0.0265
0.03
0.0335
0.037
0.0475
0.062
0.0785
0.097
0.1185
0.135
0.1495
0.1515
0.15
0.1575
0.16
0.161
0.1635
0.163
0.1605
0.1595
0.1575
0.1485
0.1435
0.141
0.1375
0.134
0.1295
0.1255
0.123
0.1205
0.1185
0.117
0.1145
0.111
0.105
0.1035
0.105
0.105
0.1055
0.1045
0.1065
0.1065
0.1035
0.1045
0.107
0.1085
0.108
0.106
0.106
0.109
0.11
0.108
0.1065
0.107
0.1085
0.111
0.109
0.108
0.1085
0.1145
0.1145
0.1075
0.1095
0.109
0.109
0.1115
0.1095
0.108
0.1115
0.116
0.114
0.112
0.1155
0.115
0.1135
0.114
0.1155
0.113
0.111
0.1125
0.1145
0.1135
0.1125
0.1195
0.1225
0.1225
0.124
0.1215
0.1165
0.1115
0.112
0.112
0.1115
0.113
0.1135
0.113
0.112
0.114
0.1215
0.126
0.1245
0.1295
0.133
0.137
0.1375
0.1325
0.132
0.1295
0.131
0.1335
0.1355
0.134
0.1325
0.1365
0.139
0.1385
0.139
0.139
0.142
0.1455
0.1425
0.141
0.1425
0.139
0.1405
0.1425
0.142
0.146
0.143
0.1395
0.145
0.1465
0.1485
0.1505
0.1475
0.1485
0.152
0.1535
0.156
0.156
0.1535
0.157
0.1595
0.1615
0.164
0.165
0.167
0.1665
0.1665
0.167
0.171
0.173
0.174
0.177
0.1765
0.1785
0.1815
0.184
0.185
0.191
0.1935
0.1955
0.201
0.2
0.199
0.199
0.202
0.206
0.207
0.21
0.213
0.2165
0.2215
0.223
0.221
0.224
0.2295
0.2305
0.2285
0.2345
0.237
0.237
0.2435
0.2455
0.2455
0.245
0.25
0.2555
0.258
0.2615
0.263
0.265
0.2635
0.2635
0.262
0.263
0.2675
0.2725
0.2775
0.28
0.2805
0.282
0.2815
0.2815
0.2825
0.285
0.2975
0.2985
0.2965
0.298
0.2985
0.3
0.2995
0.299
0.2965
0.299
0.3015
0.2975
0.2985
0.299
0.2925
0.296
0.3
0.2985
0.3015
0.2985
0.294
0.293
0.2935
0.2905
0.286
0.2855
0.283
0.2795
0.275
0.2725
0.2685
0.264
0.262
0.256
0.2525
0.2485
0.242
0.24
0.2365
0.234
0.2275
0.2205
0.217
0.2125
0.2065
0.201
0.1975
0.1915
0.184
0.1805
0.178
0.1755
0.1715
0.166
0.164
0.1595
0.156
0.154
0.15
0.144
0.1415
0.1395
0.1325
0.1315
0.134
0.1315
0.126
0.122
0.118
0.119
0.1205
0.1165
0.111
0.1075
0.109
0.1125
0.1105
0.105
0.1085
0.106
0.1005
0.103
0.1025
0.1015
0.102
0.1005
0.099
0.098
0.098
0.0975
0.095
0.094
0.0915
0.0905
0.0895
0.0875
0.087
0.088
0.088
0.089
0.091
0.0875
0.087
0.0875
0.085
0.083
0.08
0.0785
0.0835
0.0845
0.085
0.088
0.086
0.087
0.086
0.0815
0.0815
0.083
0.085
0.08
0.075
0.0785
0.077
0.0745
0.0735
0.0755
0.08
0.081
0.0855
0.0865
0.0845
0.0825
0.078
0.0795
0.084
0.0885
0.0845
0.0795
0.08
0.0815
0.0845
0.0845
0.084
0.082
0.085
0.085
0.0785
0.079
0.0835
0.0885
0.087
0.087
0.0915
0.09
0.0855
0.0825
0.0835
0.0845
0.085
0.0805
0.079
0.081
0.081
0.078
0.074
0.0745
0.078
0.0795
0.0795
0.081
0.0755
0.0755
0.086
0.09
0.083
0.078
0.085
0.0895
0.0895
0.088
0.085
0.0845
0.0805
0.0775
0.077
0.078
0.0785
0.0785
0.08
0.082
0.0895
0.0875
0.0835
0.0845
0.0835
0.084
0.0835
0.086
0.0845
0.085
0.088
0.085
0.0835
0.082
0.0805
0.0815
0.0835
0.0855
0.0855
0.0865
0.088
0.087
0.0845
0.084
0.086
0.088
0.0865
0.082
0.081
0.0825
0.085
0.0845
0.085
0.0905
0.09
0.087
0.0875
0.0885
0.094
0.0965
0.0935
0.092
0.089
0.088
0.09
0.088
0.088
0.0865
0.0855
0.088
0.0875
0.0895
0.086
0.0825
0.08
0.0755
0.0745
0.0705
0.072
0.067
0.0685
0.0735
0.0705
0.0725
0.063
0.061
0.062
0.0555
0.061
0.067
0.0885
0.102
0.0855
0.0795
0.082
0.086
0.0885
0.0805
0.077
0.0825
0.0905
0.09
0.0925
0.09
0.0825
0.0865
0.0875
0.087
0.0835
0.0825
0.083
0.0815
0.083
0.085
0.083
0.0825
0.083
0.079
0.0815
0.0855
0.087
0.0895
0.0915
0.09
0.0875
0.087
0.0875
0.0865
0.083
0.083
0.0795
0.08
0.0805
0.078
0.0815
0.0825
0.081
0.0795
0.08
0.083
0.0835
0.0825
0.08
0.0795
0.0795
0.077
0.079
0.0815
0.085
0.09
0.091
0.09
0.0855
0.0845
0.088
0.087
0.086
0.0855
0.088
0.0915
0.091
0.0915
0.0845
0.084
0.091
0.09
0.091
0.0915
0.086
0.0825
0.0855
0.089
0.089
0.0855
0.0805
0.0815
0.0815
0.0815
0.084
0.0845
0.0835
0.082
0.083
0.0845
0.089
0.0875
0.0845
0.0875
0.0865
0.0875
0.084
0.084
0.086
0.084
0.0865
0.0885
0.0875
0.088
0.0855
0.0815
0.0775
0.0745
0.0775
0.083
0.089
0.093
0.086
0.078
0.0775
0.0805
0.081
0.078
0.078
0.087
0.0915
0.0885
0.0875
0.088
0.086
0.0855
0.088
0.088
0.086
0.086
0.085
0.0835
0.0845
0.0825
0.087
0.091
0.091
0.089
0.089
0.092
0.095
0.094
0.091
0.095
0.093
0.091
0.0895
0.0855
0.086
0.083
0.0825
0.0845
0.085
0.084
0.0835
0.0845
0.0825
0.079
0.078
0.078
0.081
0.082
0.0825
0.082
0.081
0.0795
0.0765
0.0785
0.081
0.075
0.0725
0.0805
0.0855
0.081
0.077
0.079
0.0775
0.0775
0.0805
0.08
0.08
0.081
0.0825
0.0845
0.0815
0.077
0.079
0.078
0.076
0.079
0.0785
0.0775
0.0765
0.0775
0.0775
0.0775
0.0735
0.071
0.0765
0.078
0.0775
0.078
0.0735
0.074
0.077
0.0795
0.08
0.078
0.079
0.0745
0.074
0.075
0.071
0.07
0.0675
0.0675
0.0735
0.0775
0.0775
0.078
0.0825
0.0845
0.0875
0.0885
0.088
0.087
0.0855
0.0865
0.088
0.0895
0.0845
0.0825
0.085
0.0845
0.0835
0.077
0.079
0.0835
0.0855
0.091
0.0895
0.088
0.0885
0.088
0.09
0.0895
0.09
0.0945
0.0945
0.09
0.087
0.089
0.094
0.0945
0.0925
0.0965
0.101
0.1015
0.097
0.095
0.0995
0.1045
0.1065
0.1025
0.0995
0.098
0.098
0.0995
0.0975
0.1005
0.101
0.096
0.096
0.1035
0.105
0.0995
0.0995
0.0985
0.096
0.096
0.096
0.098
0.101
0.1045
0.111
0.115
0.116
0.1185
0.1235
0.125
0.121
0.123
0.1245
0.1275
0.1265
0.125
0.1315
0.1285
0.1195
0.1155
0.1145
0.115
0.1165
0.12
0.1225
0.128
0.1315
0.1355
0.143
0.1435
0.149
0.149
0.147
0.1495
0.1425
0.145
0.1495
0.1425
0.1355
0.1335
0.1315
0.132
0.131
0.124
0.1185
0.107
0.101
0.1
0.0925
0.089
0.084
0.082
0.0805
0.0785
0.081
0.079
0.078
0.0785
0.0805
0.079
0.074
0.08
0.081
0.0805
0.087
0.0805
0.0735
0.0795
0.0845
0.086
0.081
0.0745
0.0775
0.0755
0.0705
0.0725
0.0725
0.074
0.076
0.0785
0.076
0.074
0.0785
0.08
0.0795
0.0755
0.0725
0.074
0.075
0.071
0.072
0.0745
0.074
0.0725
0.0705
0.072
0.07
0.071
0.071
0.071
0.072
0.0675
0.07
0.069
0.0685
0.076
0.0745
0.0715
0.0745
0.078
0.079
0.074
0.074
0.0715
0.0675
0.0715
0.0715
0.0695
0.0645
0.062
0.067
0.0735
0.0755
0.0715
0.063
0.0575
0.059
0.0635
0.068
0.0675
0.0685
0.072
0.078
0.084
0.093
0.102
0.113
0.134
0.1535
0.1765
0.2015
0.2135
0.2235
0.234
0.2505
0.2645
0.2735
0.2965
0.322
0.3475
0.3645
0.389
0.416
0.427
0.44
0.4535
0.479
0.4845
0.4765
0.4805
0.4655
0.4475
0.426
0.392
0.3615
0.346
0.33
0.3015
0.27
0.2425
0.2215
0.19
0.1635
0.142
0.115
0.096
0.0725
0.053
0.0475
0.044
0.0405
0.0375
0.041
0.0505
0.0585
0.0705
0.0885
0.109
0.1225
0.1415
0.159
0.1625
0.171
0.1765
0.1785
0.179
0.1765
0.1805
0.179
0.175
0.1735
0.168
0.161
0.156
0.151
0.149
0.1495
0.146
0.1445
0.1445
0.1425
0.14
0.139
0.136
0.1295
0.1255
0.1265
0.124
0.124
0.128
0.1285
0.127
0.1285
0.129
0.1285
0.125
0.1195
0.1205
0.1225
0.126
0.1275
0.1275
0.13
0.1285
0.123
0.1265
0.131
0.1275
0.1225
0.1235
0.126
0.1195
0.1205
0.1225
0.122
0.124
0.125
0.1265
0.127
0.1255
0.1235
0.1275
0.1265
0.119
0.119
0.1185
0.122
0.123
0.1195
0.1245
0.1335
0.138
0.129
0.1255
0.1305
0.1335
0.136
0.135
0.134
0.13
0.123
0.1245
0.125
0.1245
0.1285
0.13
0.134
0.137
0.1375
0.1345
0.1315
0.133
0.134
0.1325
0.132
0.133
0.132
0.131
0.132
0.1315
0.134
0.1375
0.1385
0.1395
0.1375
0.1395
0.1455
0.152
0.1555
0.1525
0.152
0.152
0.153
0.1525
0.153
0.153
0.1525
0.155
0.1555
0.158
0.1585
0.1575
0.159
0.1595
0.1595
0.1615
0.1655
0.1635
0.1665
0.171
0.1675
0.1665
0.166
0.1705
0.1735
0.1735
0.1765
0.177
0.1795
0.183
0.184
0.184
0.183
0.183
0.1845
0.186
0.187
0.192
0.1955
0.198
0.2015
0.2035
0.2045
0.206
0.208
0.2115
0.2145
0.2175
0.223
0.2255
0.227
0.2285
0.228
0.228
0.232
0.2295
0.228
0.2335
0.24
0.2455
0.252
0.2555
0.2505
0.255
0.2595
0.259
0.2625
0.264
0.2655
0.27
0.273
0.275
0.2795
0.282
0.286
0.2925
0.292
0.29
0.293
0.2905
0.293
0.297
0.296
0.3005
0.301
0.2975
0.299
0.304
0.3035
0.304
0.306
0.3055
0.3065
0.307
0.308
0.3065
0.3085
0.3105
0.31
0.3095
0.312
0.3125
0.3085
0.3115
0.309
0.303
0.303
0.301
0.2955
0.294
0.296
0.29
0.2865
0.289
0.284
0.2755
0.269
0.269
0.2665
0.2625
0.262
0.2575
0.254
0.251
0.2475
0.245
0.245
0.2435
0.239
0.2335
0.2265
0.2225
0.218
0.2125
0.208
0.2
0.1905
0.187
0.187
0.184
0.179
0.176
0.1715
0.166
0.16
0.1565
0.1595
0.152
0.1425
0.144
0.145
0.138
0.133
0.132
0.1275
0.122
0.119
0.121
0.1175
0.115
0.1135
0.112
0.1125
0.1085
0.105
0.107
0.108
0.1045
0.1055
0.107
0.1055
0.1025
0.098
0.0975
0.1025
0.0975
0.09
0.0905
0.091
0.095
0.0955
0.0915
0.095
0.095
0.0945
0.093
0.0865
0.085
0.084
0.0855
0.086
0.0865
0.089
0.0905
0.0945
0.092
0.0865
0.086
0.087
0.088
0.0905
0.0915
0.0915
0.091
0.091
0.089
0.0875
0.088
0.09
0.0925
0.093
0.092
0.092
0.0895
0.0885
0.092
0.093
0.0955
0.0935
0.0895
0.0915
0.0945
0.0945
0.0935
0.0945
0.094
0.094
0.094
0.094
0.095
0.0945
0.094
0.093
0.0945
0.0915
0.089
0.09
0.088
0.088
0.088
0.094
0.097
0.0975
0.0975
0.0935
0.0915
0.09
0.0965
0.099
0.0985
0.0995
0.0995
0.1005
0.092
0.093
0.095
0.0935
0.0945
0.0935
0.092
0.0965
0.1025
0.0915
0.0895
0.0955
0.0945
0.0985
0.1035
0.1085
0.109
0.1045
0.103
0.102
0.103
0.103
0.1015
0.102
0.098
0.0945
0.095
0.0975
0.0955
0.0945
0.0975
0.1
0.1035
0.102
0.099
0.1
0.1005
0.1015
0.101
0.1005
0.1025
0.0995
0.098
0.1015
0.1015
0.0995
0.095
0.0965
0.098
0.094
0.097
0.1015
0.1015
0.098
0.0975
0.097
0.0975
0.1015
0.095
0.092
0.0945
0.0965
0.099
0.096
0.097
0.097
0.0945
0.094
0.094
0.095
0.095
0.0945
0.096
0.0955
0.0925
0.0955
0.0965
0.098
0.0955
0.0945
0.096
0.0945
0.093
0.0935
0.0945
0.0945
0.092
0.093
0.0975
0.098
0.0995
0.103
0.1015
0.095
0.0985
0.1015
0.1015
0.0965
0.093
0.096
0.098
0.098
0.095
0.0945
0.0935
0.0895
0.089
0.092
0.0905
0.0915
0.092
0.088
0.091
0.0935
0.0915
0.0935
0.0945
0.099
0.1
0.098
0.096
0.0845
0.086
0.088
0.088
0.0885
0.085
0.089
0.0925
0.0945
0.0905
0.0875
0.089
0.0925
0.097
0.101
0.105
0.104
0.101
0.096
0.0905
0.088
0.0875
0.0875
0.0885
0.091
0.089
0.0895
0.092
0.088
0.0865
0.087
0.084
0.0865
0.091
0.095
0.0925
0.0905
0.095
0.092
0.091
0.09
0.0875
0.088
0.0875
0.0855
0.085
0.087
0.0845
0.084
0.0845
0.0865
0.088
0.09
0.089
0.083
0.086
0.088
0.0845
0.083
0.086
0.0875
0.086
0.0865
0.0845
0.084
0.0885
0.0925
0.0945
0.0905
0.087
0.0905
0.092
0.0955
0.096
0.0915
0.091
0.0905
0.092
0.095
0.094
0.086
0.085
0.0895
0.0895
0.0905
0.089
0.0865
0.085
0.085
0.0865
0.0865
0.086
0.0845
0.0855
0.0875
0.0925
0.092
0.0895
0.0915
0.091
0.0865
0.086
0.091
0.091
0.0885
0.085
0.084
0.083
0.0835
0.085
0.0825
0.0825
0.0865
0.088
0.08
0.076
0.0865
0.0865
0.0815
0.0805
0.0755
0.074
0.0755
0.081
0.0875
0.0875
0.0825
0.081
0.0805
0.0825
0.085
0.084
0.0855
0.0805
0.0755
0.0755
0.076
0.078
0.0795
0.076
0.075
0.0795
0.0825
0.084
0.0895
0.094
0.091
0.0865
0.0835
0.0825
0.086
0.09
0.0885
0.0875
0.0885
0.085
0.0795
0.0805
0.079
0.0815
0.0875
0.084
0.086
0.088
0.0905
0.0895
0.0815
0.083
0.084
0.083
0.0855
0.0835
0.0815
0.082
0.0805
0.0835
0.084
0.081
0.0805
0.08
0.0775
0.078
0.077
0.0745
0.078
0.0775
0.0795
0.0815
0.0775
0.0805
0.0835
0.082
0.081
0.079
0.077
0.079
0.0835
0.0845
0.0855
0.086
0.0845
0.0845
0.0825
0.0815
0.081
0.081
0.081
0.081
0.08
0.078
0.0805
0.084
0.082
0.0795
0.081
0.0775
0.075
0.079
0.082
0.082
0.081
0.0785
0.075
0.0745
0.077
0.078
0.0755
0.074
0.077
0.0805
0.0815
0.0805
0.0825
0.0865
0.092
0.094
0.0915
0.0935
0.099
0.106
0.1045
0.105
0.1065
0.1
0.0945
0.0955
0.0985
0.095
0.092
0.0915
0.093
0.0945
0.0915
0.0935
0.0955
0.094
0.0945
0.097
0.103
0.105
0.102
0.1035
0.0975
0.094
0.0995
0.101
0.1045
0.113
0.114
0.1115
0.1145
0.115
0.117
0.1185
0.118
0.115
0.116
0.1245
0.127
0.122
0.1145
0.1115
0.109
0.1065
0.113
0.1115
0.1125
0.1225
0.1285
0.1365
0.1365
0.1375
0.139
0.1345
0.137
0.141
0.137
0.1315
0.127
0.12
0.1165
0.1095
0.112
0.11
0.1025
0.1
0.092
0.0855
0.077
0.0725
0.072
0.0675
0.069
0.0695
0.0685
0.0665
0.0635
0.063
0.059
0.059
0.0675
0.069
0.0625
0.0605
0.0605
0.063
0.0635
0.0625
0.0625
0.0595
0.065
0.0675
0.0655
0.067
0.0625
0.0595
0.0585
0.0585
0.063
0.061
0.0575
0.0595
0.0625
0.064
0.0635
0.0605
0.06
0.0625
0.0655
0.069
0.067
0.063
0.0595
0.0595
0.0615
0.059
0.0585
0.06
0.0595
0.0615
0.0615
0.063
0.067
0.0615
0.058
0.058
0.0565
0.0575
0.06
0.0595
0.0585
0.0595
0.057
0.056
0.055
0.0525
0.056
0.062
0.066
0.0615
0.055
0.0525
0.0505
0.053
0.0525
0.05
0.049
0.0525
0.056
0.058
0.063
0.0635
0.07
0.078
0.0855
0.101
0.115
0.136
0.154
0.173
0.195
0.208
0.22
0.234
0.253
0.2625
0.279
0.3035
0.326
0.351
0.3665
0.3925
0.4125
0.4235
0.433
0.445
0.471
0.4705
0.4615
0.4535
0.4385
0.418
0.387
0.3545
0.324
0.315
0.3
0.262
0.2265
0.204
0.1845
0.1555
0.1395
0.128
0.098
0.0725
0.048
0.028
0.029
0.0295
0.025
0.026
0.0275
0.0285
0.039
0.058
0.0755
0.0925
0.1115
0.1245
0.1335
0.1445
0.158
0.164
0.1635
0.163
0.1615
0.156
0.156
0.1625
0.1515
0.1425
0.142
0.1455
0.1465
0.1355
0.1365
0.139
0.137
0.1325
0.1265
0.1255
0.117
0.115
0.1135
0.1075
0.1095
0.11
0.108
0.11
0.1145
0.1155
0.115
0.11
0.112
0.113
0.1115
0.1145
0.111
0.111
0.1105
0.113
0.1135
0.1105
0.1105
0.1125
0.1135
0.1095
0.1065
0.105
0.104
0.1095
0.1115
0.107
0.108
0.11
0.1145
0.119
0.1145
0.115
0.118
0.1155
0.115
0.1175
0.118
0.1115
0.107
0.1165
0.12
0.1145
0.1155
0.1155
0.1135
0.1145
0.1215
0.12
0.117
0.118
0.1155
0.1235
0.129
0.1255
0.119
0.118
0.121
0.1215
0.124
0.1225
0.1235
0.127
0.132
0.1315
0.126
0.122
0.118
0.123
0.13
0.128
0.127
0.1285
0.128
0.131
0.1325
0.131
0.1315
0.135
0.1405
0.136
0.132
0.1355
0.1375
0.1365
0.136
0.135
0.138
0.1385
0.1375
0.1435
0.1405
0.1415
0.1455
0.1465
0.1495
0.1495
0.1505
0.15
0.1535
0.156
0.1555
0.1565
0.156
0.1595
0.1655
0.165
0.165
0.168
0.1725
0.17
0.1665
0.173
0.1805
0.184
0.1815
0.1805
0.1825
0.185
0.1925
0.196
0.197
0.1965
0.1915
0.195
0.2015
0.204
0.2055
0.209
0.2115
0.211
0.2105
0.212
0.2155
0.2175
0.2245
0.229
0.2335
0.2325
0.232
0.24
0.2415
0.2385
0.239
0.247
0.251
0.251
0.256
0.267
0.2745
0.273
0.2705
0.275
0.278
0.275
0.277
0.282
0.2855
0.2865
0.2855
0.285
0.287
0.2895
0.2865
0.293
0.2935
0.2895
0.296
0.2975
0.2955
0.2995
0.299
0.298
0.3005
0.2965
0.293
0.2905
0.2895
0.293
0.301
0.303
0.3025
0.307
0.303
0.2995
0.3
0.301
0.2995
0.293
0.2925
0.292
0.2925
0.2935
0.291
0.2895
0.2835
0.2815
0.2805
0.275
0.2725
0.2695
0.262
0.258
0.2505
0.243
0.2415
0.241
0.243
0.2365
0.225
0.2225
0.221
0.217
0.2135
0.2035
0.1965
0.192
0.188
0.1855
0.1835
0.181
0.172
0.171
0.166
0.1635
0.167
0.157
0.1505
0.1445
0.1405
0.1465
0.1385
0.1285
0.129
0.123
0.1155
0.111
0.1135
0.1155
0.1115
0.105
0.103
0.106
0.103
0.103
0.1085
0.1085
0.0995
0.104
0.112
0.109
0.105
0.092
0.0895
0.098
0.097
0.096
0.093
0.0915
0.092
0.091
0.091
0.0875
0.089
0.0885
0.085
0.0845
0.0845
0.083
0.084
0.086
0.082
0.082
0.0805
0.0815
0.086
0.0835
0.0835
0.0835
0.0845
0.087
0.085
0.0845
0.087
0.088
0.085
0.082
0.082
0.0785
0.079
0.0835
0.08
0.075
0.0725
0.0775
0.083
0.083
0.087
0.091
0.0835
0.0815
0.0845
0.0885
0.0925
0.086
0.085
0.083
0.079
0.0855
0.0875
0.0845
0.085
0.082
0.082
0.0875
0.088
0.0825
0.084
0.082
0.0805
0.0855
0.078
0.0775
0.0785
0.074
0.0765
0.0815
0.087
0.084
0.0845
0.0875
0.083
0.084
0.083
0.0845
0.0905
0.0845
0.08
0.08
0.0765
0.0755
0.0795
0.081
0.074
0.068
0.0745
0.083
0.082
0.08
0.08
0.0815
0.084
0.0815
0.081
0.0775
0.0735
0.077
0.0765
0.0715
0.0795
0.085
0.0825
0.0845
0.0795
0.077
0.076
0.076
0.0755
0.0785
0.085
0.0825
0.0825
0.077
0.077
0.0865
0.091
0.091
0.088
0.091
0.0895
0.088
0.0855
0.0885
0.097
0.0915
0.09
0.0865
0.0835
0.0845
0.0865
0.096
0.0955
0.0915
0.0905
0.0855
0.084
0.0855
0.088
0.0905
0.0915
0.091
0.091
0.0905
0.086
0.0815
0.078
0.081
0.089
0.0885
0.0855
0.0865
0.083
0.0815
0.091
0.0945
0.091
0.0905
0.0905
0.089
0.087
0.088
0.086
0.081
0.0835
0.0885
0.0855
0.0835
0.0865
0.0895
0.088
0.0855
0.0835
0.0785
0.0835
0.0815
0.0775
0.0835
0.0845
0.087
0.0885
0.0865
0.0835
0.081
0.0825
0.0835
0.0825
0.085
0.0845
0.0845
0.0865
0.0835
0.0815
0.084
0.0875
0.083
0.082
0.0885
0.0855
0.0825
0.085
0.085
0.083
0.0795
0.0775
0.0785
0.0795
0.077
0.081
0.0885
0.0885
0.0845
0.084
0.082
0.0805
0.0855
0.086
0.0835
0.0825
0.0865
0.089
0.079
0.073
0.0805
0.0795
0.071
0.073
0.074
0.0745
0.069
0.066
0.0715
0.0695
0.068
0.068
0.0695
0.065
0.0615
0.0685
0.07
0.0665
0.067
0.066
0.064
0.0665
0.0685
0.0775
0.077
0.0695
0.069
0.063
0.063
0.063
0.0605
0.064
0.0725
0.075
0.0665
0.0585
0.0555
0.06
0.0615
0.0655
0.0685
0.0645
0.06
0.0605
0.0655
0.065
0.0665
0.0625
0.0625
0.0675
0.067
0.0665
0.06
0.0615
0.0625
0.06
0.066
0.064
0.0655
0.066
0.068
0.069
0.0605
0.0635
0.0645
0.064
0.0695
0.071
0.0675
0.066
0.066
0.0675
0.0695
0.063
0.0575
0.062
0.067
0.061
0.0595
0.062
0.056
0.059
0.0615
0.0615
0.061
0.0555
0.061
0.066
0.065
0.062
0.059
0.0605
0.058
0.0605
0.066
0.0675
0.074
0.0715
0.0645
0.063
0.0615
0.063
0.0655
0.068
0.066
0.0615
0.0605
0.0575
0.061
0.0605
0.063
0.07
0.0655
0.06
0.058
0.067
0.0715
0.0635
0.0565
0.0555
0.057
0.0595
0.062
0.057
0.056
0.0595
0.0565
0.058
0.059
0.0605
0.064
0.066
0.0665
0.0695
0.069
0.0685
0.069
0.066
0.069
0.071
0.07
0.0715
0.073
0.0725
0.0745
0.078
0.076
0.079
0.083
0.078
0.0775
0.079
0.0775
0.081
0.0765
0.074
0.08
0.0765
0.0765
0.0785
0.0765
0.0745
0.075
0.0745
0.072
0.0705
0.0715
0.0715
0.0715
0.081
0.0825
0.0855
0.09
0.088
0.0925
0.098
0.1025
0.101
0.095
0.0945
0.097
0.0985
0.1045
0.106
0.095
0.0905
0.0875
0.0895
0.096
0.0965
0.0915
0.094
0.101
0.108
0.119
0.116
0.1135
0.1155
0.116
0.1155
0.1125
0.112
0.1045
0.099
0.095
0.095
0.1015
0.095
0.084
0.0815
0.0785
0.0735
0.0685
0.057
0.0515
0.055
0.056
0.0585
0.0595
0.0565
0.0505
0.047
0.0485
0.0425
0.0395
0.045
0.046
0.045
0.047
0.0465
0.047
0.046
0.0415
0.04
0.0385
0.0375
0.036
0.038
0.0375
0.036
0.04
0.038
0.04
0.041
0.0335
0.0335
0.039
0.037
0.044
0.0405
0.0325
0.0335
0.0315
0.0375
0.0395
0.04
0.0375
0.0345
0.0395
0.0385
0.0415
0.046
0.044
0.043
0.043
0.0445
0.0435
0.0435
0.041
0.039
0.042
0.0445
0.04
0.036
0.04
0.0375
0.033
0.0325
0.035
0.041
0.039
0.033
0.031
0.035
0.0345
0.0325
0.034
0.0325
0.0295
0.032
0.0295
0.0225
0.0275
0.033
0.041
0.049
0.051
0.06
0.064
0.0715
0.0855
0.1
0.127
0.1445
0.1555
0.17
0.185
0.204
0.22
0.227
0.237
0.26
0.284
0.3065
0.3205
0.336
0.354
0.3685
0.377
0.3845
0.408
0.4095
0.4055
0.403
0.3895
0.3735
0.3475
0.3215
0.284
0.2655
0.257
0.23
0.194
0.1575
0.1365
0.119
0.107
0.0865
0.0655
0.052
0.0355
0.0215
0.0065
0.0015
0.0025
0.0035
0.005
0.0035
0.0055
0.0085
0.0215
0.0375
0.0585
0.086
0.0975
0.1015
0.1125
0.1235
0.1315
0.135
0.139
0.135
0.13
0.1325
0.1285
0.1255
0.125
0.127
0.118
0.112
0.111
0.1095
0.112
0.1065
0.1025
0.103
0.105
0.102
0.097
0.0935
0.094
0.0945
0.091
0.0885
0.0875
0.0915
0.0915
0.093
0.092
0.0915
0.091
0.0875
0.0935
0.097
0.098
0.0975
0.0985
0.101
0.0965
0.0965
0.097
0.0975
0.1
0.098
0.0955
0.089
0.0895
0.0955
0.096
0.0915
0.098
0.102
0.095
0.095
0.0935
0.091
0.0915
0.0915
0.091
0.0925
0.0885
0.091
0.0895
0.082
0.0875
0.084
0.0885
0.1005
0.0935
0.0865
0.092
0.099
0.103
0.1125
0.121
0.119
0.109
0.1095
0.1115
0.111
0.117
0.1165
0.1125
0.1085
0.109
0.1135
0.118
0.12
0.1165
0.1145
0.112
0.1135
0.113
0.111
0.1155
0.1185
0.1195
0.1185
0.1195
0.1195
0.1165
0.1175
0.1215
0.1245
0.1235
0.123
0.118
0.121
0.122
0.1195
0.1295
0.131
0.129
0.132
0.1345
0.1335
0.1355
0.1415
0.14
0.1385
0.142
0.144
0.142
0.1455
0.148
0.151
0.154
0.1505
0.15
0.1535
0.155
0.156
0.159
0.1595
0.1585
0.161
0.1675
0.1685
0.166
0.1665
0.1725
0.174
0.1695
0.1705
0.176
0.1805
0.184
0.1845
0.1875
0.1915
0.1915
0.1925
0.1995
0.204
0.2055
0.2175
0.225
0.226
0.227
0.228
0.229
0.2295
0.2355
0.2385
0.2415
0.243
0.245
0.247
0.248
0.25
0.252
0.2575
0.2625
0.2605
0.2585
0.261
0.265
0.2655
0.266
0.27
0.2725
0.272
0.276
0.2795
0.282
0.286
0.285
0.2855
0.284
0.2795
0.2825
0.293
0.294
0.289
0.2945
0.298
0.2965
0.2965
0.292
0.286
0.286
0.288
0.2895
0.2935
0.2915
0.285
0.2885
0.292
0.2875
0.286
0.286
0.279
0.275
0.278
0.2785
0.274
0.272
0.271
0.268
0.2665
0.263
0.257
0.252
0.2485
0.2455
0.2385
0.2285
0.2205
0.216
0.212
0.21
0.206
0.1975
0.194
0.193
0.188
0.181
0.1735
0.1675
0.1635
0.1625
0.1565
0.152
0.153
0.1475
0.1415
0.1345
0.131
0.129
0.1285
0.1325
0.1285
0.12
0.12
0.1195
0.115
0.1135
0.11
0.105
0.107
0.1055
0.1005
0.105
0.1015
0.095
0.091
0.0835
0.082
0.0845
0.087
0.088
0.086
0.084
0.083
0.084
0.0855
0.0835
0.0805
0.0805
0.078
0.0745
0.0745
0.0835
0.0865
0.0795
0.0775
0.073
0.071
0.07
0.073
0.0715
0.065
0.0705
0.072
0.0715
0.0715
0.0665
0.0685
0.0755
0.08
0.0835
0.0795
0.078
0.079
0.074
0.071
0.068
0.068
0.072
0.074
0.0755
0.0765
0.076
0.073
0.0695
0.0675
0.067
0.068
0.07
0.073
0.075
0.0815
0.079
0.066
0.065
0.067
0.0695
0.0705
0.066
0.072
0.074
0.0665
0.0635
0.064
0.067
0.065
0.0645
0.0675
0.0685
0.0735
0.075
0.074
0.073
0.072
0.0685
0.0655
0.0665
0.0675
0.071
0.0645
0.057
0.064
0.0675
0.071
0.0705
0.071
0.074
0.073
0.0755
0.0755
0.0725
0.072
0.0765
0.0785
0.074
0.0705
0.071
0.071
0.0705
0.0755
0.071
0.068
0.07
0.068
0.0725
0.0785
0.0795
0.0725
0.072
0.073
0.07
0.073
0.0765
0.0745
0.072
0.07
0.069
0.072
0.0675
0.062
0.063
0.065
0.0625
0.0635
0.0625
0.064
0.0665
0.0615
0.0605
0.064
0.0675
0.066
0.0725
0.07
0.0625
0.067
0.073
0.0815
0.0785
0.0715
0.077
0.0815
0.087
0.092
0.0855
0.08
0.081
0.0785
0.074
0.0735
0.072
0.078
0.0845
0.0835
0.081
0.0775
0.079
0.0815
0.081
0.0775
0.0765
0.078
0.077
0.0745
0.074
0.0775
0.079
0.0775
0.0755
0.0775
0.076
0.077
0.072
0.0675
0.0725
0.0685
0.066
0.0735
0.078
0.0745
0.076
0.073
0.0715
0.081
0.08
0.0805
0.081
0.08
0.0815
0.081
0.0805
0.078
0.0755
0.075
0.078
0.084
0.083
0.079
0.0795
0.076
0.0705
0.0765
0.082
0.077
0.073
0.066
0.0655
0.0675
0.0665
0.067
0.0675
0.0705
0.07
0.0755
0.0755
0.069
0.071
0.071
0.068
0.07
0.0675
0.0685
0.07
0.068
0.067
0.07
0.0705
0.0635
0.062
0.0615
0.059
0.0565
0.06
0.0675
0.074
0.0765
0.073
0.072
0.072
0.0705
0.07
0.0665
0.061
0.0665
0.0675
0.0665
0.0665
0.063
0.0675
0.0675
0.0595
0.0595
0.065
0.0645
0.066
0.0705
0.0655
0.064
0.067
0.073
0.0665
0.057
0.0685
0.0655
0.06
0.0595
0.0605
0.0675
0.0625
0.064
0.0625
0.061
0.065
0.062
0.061
0.0595
0.0605
0.058
0.056
0.056
0.0525
0.05
0.053
0.062
0.063
0.058
0.0535
0.0515
0.052
0.056
0.068
0.0715
0.0655
0.0635
0.0645
0.0615
0.058
0.0645
0.0645
0.055
0.059
0.0645
0.062
0.064
0.064
0.0665
0.0685
0.062
0.06
0.063
0.072
0.0735
0.061
0.0635
0.061
0.0565
0.0605
0.055
0.054
0.0595
0.061
0.057
0.0555
0.0535
0.055
0.058
0.056
0.0575
0.0585
0.056
0.06
0.062
0.066
0.067
0.0635
0.064
0.0615
0.064
0.059
0.0635
0.0675
0.061
0.066
0.0695
0.0715
0.066
0.0645
0.069
0.0685
0.066
0.0675
0.0785
0.074
0.068
0.0685
0.0655
0.0615
0.061
0.066
0.074
0.0755
0.071
0.073
0.065
0.066
0.074
0.077
0.081
0.078
0.0825
0.0845
0.0885
0.093
0.09
0.09
0.0915
0.096
0.095
0.092
0.09
0.087
0.0915
0.093
0.094
0.091
0.0845
0.085
0.083
0.0835
0.0885
0.097
0.102
0.1025
0.1125
0.1145
0.114
0.1185
0.119
0.1205
0.117
0.1135
0.1105
0.1055
0.1035
0.101
0.0975
0.0985
0.0955
0.084
0.078
0.073
0.0675
0.065
0.061
0.0585
0.057
0.054
0.0545
0.055
0.054
0.0495
0.048
0.054
0.0555
0.0535
0.0495
0.052
0.0545
0.053
0.054
0.053
0.0545
0.053
0.0515
0.0515
0.045
0.049
0.0495
0.0475
0.05
0.045
0.047
0.0505
0.05
0.0545
0.052
0.0465
0.051
0.0545
0.0525
0.0485
0.0495
0.0505
0.049
0.052
0.059
0.0615
0.058
0.0565
0.0555
0.0565
0.051
0.0535
0.0635
0.0595
0.056
0.0555
0.053
0.053
0.0525
0.046
0.052
0.062
0.0585
0.051
0.0515
0.0565
0.0525
0.058
0.056
0.0465
0.052
0.053
0.0465
0.0495
0.0515
0.04
0.0335
0.039
0.041
0.0345
0.0385
0.0425
0.0395
0.0395
0.044
0.057
0.0655
0.0705
0.0875
0.107
0.1245
0.1405
0.1595
0.172
0.1835
0.1945
0.2005
0.221
0.2365
0.256
0.279
0.2885
0.3035
0.3275
0.3455
0.359
0.368
0.382
0.3975
0.397
0.401
0.395
0.372
0.347
0.3295
0.3065
0.2605
0.2385
0.2285
0.2025
0.173
0.145
0.132
0.107
0.0825
0.0695
0.0545
0.041
0.0225
0.011
0.009
0.01
0.005
0.005
0.008
0.004
0.009
0.0165
0.0235
0.0425
0.0635
0.0795
0.0945
0.1
0.1035
0.1135
0.124
0.132
0.13
0.131
0.1355
0.1295
0.1235
0.114
0.11
0.1095
0.1035
0.1045
0.1005
0.095
0.0985
0.097
0.0955
0.098
0.097
0.0905
0.088
0.0885
0.0845
0.0835
0.087
0.0855
0.083
0.0875
0.0885
0.099
0.1025
0.089
0.0885
0.092
0.0885
0.0845
0.085
0.083
0.088
0.09
0.084
0.085
0.0825
0.084
0.0825
0.081
0.0845
0.0845
0.0825
0.0775
0.083
0.091
0.091
0.0895
0.0855
0.081
0.085
0.091
0.0915
0.092
0.0945
0.09
0.09
0.096
0.095
0.0935
0.089
0.09
0.0945
0.0975
0.0975
0.0895
0.0875
0.088
0.0855
0.089
0.097
0.0975
0.101
0.1055
0.105
0.104
0.103
0.1005
0.097
0.101
0.1005
0.103
0.1145
0.118
0.116
0.109
0.1095
0.1155
0.1135
0.107
0.106
0.1085
0.111
0.116
0.117
0.119
0.1195
0.114
0.113
0.1195
0.1185
0.1205
0.121
0.1205
0.1235
0.1215
0.1245
0.126
0.1315
0.1335
0.1315
0.132
0.1345
0.1395
0.1455
0.151
0.145
0.1425
0.1455
0.1425
0.1425
0.146
0.145
0.144
0.1465
0.1455
0.1475
0.1505
0.148
0.1545
0.156
0.156
0.1605
0.158
0.157
0.161
0.1655
0.1635
0.166
0.171
0.1645
0.165
0.173
0.1745
0.1835
0.187
0.1805
0.18
0.183
0.1945
0.198
0.1955
0.198
0.194
0.2015
0.2075
0.209
0.211
0.2115
0.2175
0.222
0.225
0.225
0.2305
0.235
0.2305
0.2345
0.2385
0.2385
0.2405
0.238
0.2415
0.2465
0.2485
0.2485
0.255
0.2585
0.2555
0.2565
0.2555
0.2625
0.267
0.268
0.272
0.2745
0.273
0.27
0.2705
0.275
0.277
0.2745
0.27
0.268
0.2735
0.2805
0.2695
0.262
0.271
0.27
0.271
0.2735
0.268
0.2655
0.2745
0.269
0.262
0.2655
0.262
0.26
0.2565
0.251
0.247
0.2465
0.248
0.245
0.241
0.241
0.239
0.2315
0.226
0.221
0.213
0.211
0.207
0.196
0.19
0.184
0.1765
0.173
0.17
0.1665
0.163
0.1585
0.153
0.1495
0.148
0.143
0.137
0.129
0.1255
0.1255
0.123
0.1205
0.1145
0.1075
0.107
0.1065
0.099
0.095
0.094
0.0875
0.0855
0.081
0.079
0.08
0.084
0.0915
0.086
0.0805
0.079
0.0785
0.0735
0.069
0.07
0.0695
0.0675
0.0725
0.0685
0.063
0.0635
0.058
0.0565
0.0575
0.061
0.0615
0.0675
0.068
0.0675
0.064
0.0535
0.0555
0.0535
0.0545
0.057
0.056
0.0555
0.0565
0.0585
0.054
0.0545
0.056
0.052
0.048
0.0465
0.0495
0.052
0.0535
0.051
0.0495
0.048
0.049
0.0595
0.056
0.051
0.057
0.0575
0.062
0.058
0.0535
0.057
0.0555
0.0565
0.056
0.054
0.0565
0.0595
0.056
0.053
0.0555
0.057
0.0565
0.051
0.0505
0.05
0.05
0.0545
0.0515
0.052
0.0535
0.0535
0.055
0.052
0.0485
0.046
0.048
0.0565
0.059
0.057
0.058
0.053
0.0585
0.067
0.0675
0.0655
0.0585
0.0555
0.05
0.0515
0.0605
0.062
0.0585
0.058
0.055
0.05
0.05
0.048
0.0485
0.0495
0.045
0.0435
0.049
0.0545
0.052
0.0505
0.053
0.051
0.0495
0.0505
0.0515
0.056
0.0635
0.0675
0.0675
0.0665
0.066
0.0655
0.061
0.0565
0.0535
0.0585
0.063
0.0605
0.059
0.0555
0.055
0.056
0.056
0.0575
0.057
0.0575
0.0575
0.058
0.061
0.0575
0.057
0.0575
0.0565
0.059
0.0565
0.0605
0.0615
0.0545
0.057
0.059
0.0595
0.0565
0.054
0.056
0.0565
0.0575
0.057
0.0535
0.0555
0.057
0.0535
0.0535
0.0565
0.0575
0.0555
0.057
0.0555
0.054
0.057
0.061
0.0635
0.06
0.059
0.058
0.056
0.054
0.0525
0.0605
0.0675
0.0675
0.0645
0.0585
0.059
0.058
0.0605
0.062
0.06
0.0655
0.066
0.064
0.0635
0.0645
0.0635
0.0625
0.064
0.0605
0.0595
0.0615
0.0635
0.064
0.0635
0.0645
0.064
0.0605
0.0655
0.0725
0.0645
0.062
0.0685
0.0725
0.0675
0.0625
0.064
0.069
0.0685
0.061
0.0615
0.063
0.0645
0.0645
0.0635
0.064
0.0635
0.06
0.0615
0.063
0.0605
0.063
0.0625
0.058
0.0595
0.0635
0.0635
0.0615
0.056
0.0565
0.0575
0.057
0.0555
0.0535
0.0545
0.0515
0.056
0.063
0.064
0.0625
0.059
0.06
0.0615
0.062
0.059
0.0575
0.0595
0.0575
0.057
0.054
0.0565
0.06
0.0585
0.061
0.062
0.0595
0.054
0.0515
0.0495
0.057
0.0585
0.049
0.049
0.0555
0.0605
0.0595
0.057
0.0545
0.0535
0.0555
0.052
0.051
0.054
0.0535
0.0535
0.0535
0.0555
0.057
0.057
0.0555
0.0535
0.0545
0.0595
0.0605
0.0525
0.0525
0.0555
0.0525
0.0535
0.0545
0.0565
0.0595
0.0525
0.046
0.0475
0.0505
0.0535
0.053
0.053
0.0535
0.054
0.053
0.048
0.0505
0.055
0.055
0.054
0.0505
0.047
0.049
0.0505
0.0505
0.0485
0.0505
0.053
0.0505
0.0485
0.0485
0.0505
0.053
0.052
0.05
0.05
0.0535
0.0575
0.055
0.055
0.0525
0.0505
0.051
0.048
0.0525
0.0555
0.0535
0.054
0.0515
0.05
0.048
0.0475
0.0505
0.0505
0.051
0.0535
0.053
0.052
0.0515
0.052
0.0535
0.0555
0.055
0.0535
0.0535
0.0535
0.0525
0.0485
0.0525
0.057
0.0565
0.057
0.054
0.0545
0.057
0.055
0.0555
0.0585
0.0655
0.068
0.066
0.066
0.0715
0.0735
0.071
0.071
0.0665
0.065
0.063
0.0615
0.059
0.0645
0.073
0.067
0.0605
0.0605
0.064
0.0635
0.066
0.069
0.065
0.061
0.061
0.065
0.071
0.0755
0.0875
0.0865
0.0775
0.086
0.0865
0.0835
0.085
0.0845
0.079
0.08
0.0845
0.0745
0.0725
0.073
0.073
0.0825
0.0805
0.075
0.077
0.075
0.0725
0.0735
0.08
0.092
0.101
0.1025
0.1055
0.1105
0.1095
0.107
0.102
0.0985
0.1
0.101
0.0995
0.094
0.0875
0.081
0.0765
0.0745
0.0685
0.063
0.056
0.0505
0.0495
0.0475
0.052
0.0535
0.0535
0.051
0.0465
0.042
0.037
0.035
0.039
0.0395
0.0385
0.0435
0.0425
0.0405
0.0435
0.0465
0.0505
0.05
0.0465
0.049
0.0485
0.049
0.0495
0.0475
0.0495
0.053
0.056
0.051
0.049
0.0505
0.053
0.0525
0.048
0.047
0.048
0.048
0.044
0.045
0.0465
0.043
0.0425
0.0425
0.0405
0.0375
0.039
0.04
0.0365
0.0355
0.0345
0.0355
0.046
0.0545
0.052
0.0465
0.0475
0.047
0.0475
0.0465
0.044
0.043
0.0425
0.046
0.0445
0.0475
0.0465
0.04
0.042
0.044
0.0425
0.037
0.0375
0.037
0.0325
0.0335
0.0325
0.031
0.0365
0.0405
0.0415
0.05
0.0575
0.0595
0.0635
0.0715
0.0825
0.0935
0.1105
0.124
0.137
0.158
0.17
0.18
0.1915
0.2025
0.213
0.2215
0.2415
0.263
0.281
0.3055
0.336
0.3565
0.371
0.3845
0.3935
0.4135
0.422
0.4115
0.4105
0.404
0.3845
0.364
0.3285
0.2905
0.2765
0.265
0.241
0.2075
0.1795
0.1655
0.134
0.1065
0.095
0.0765
0.058
0.0365
0.0195
0.014
0.016
0.011
0.012
0.017
0.02
0.0265
0.0345
0.0505
0.0665
0.0785
0.0945
0.108
0.1185
0.128
0.13
0.13
0.1345
0.1365
0.136
0.131
0.129
0.129
0.121
0.119
0.116
0.109
0.1125
0.1145
0.1105
0.1065
0.104
0.1025
0.1005
0.1045
0.101
0.099
0.1
0.095
0.0945
0.0955
0.0945
0.092
0.09
0.0905
0.085
0.0855
0.088
0.084
0.0915
0.094
0.0945
0.0915
0.087
0.0875
0.0855
0.09
0.094
0.0995
0.104
0.103
0.099
0.0975
0.098
0.096
0.0965
0.099
0.1015
0.101
0.1045
0.106
0.1005
0.0955
0.091
0.0915
0.0945
0.0955
0.099
0.1035
0.105
0.0995
0.098
0.1
0.0985
0.103
0.1045
0.1065
0.1085
0.1085
0.1115
0.112
0.111
0.11
0.1125
0.1125
0.1095
0.111
0.1125
0.1165
0.118
0.1095
0.105
0.11
0.113
0.1145
0.1165
0.116
0.1145
0.1155
0.119
0.116
0.111
0.1125
0.116
0.1185
0.12
0.1225
0.122
0.123
0.124
0.12
0.1205
0.1225
0.1215
0.1195
0.1185
0.123
0.1255
0.1265
0.128
0.128
0.1295
0.1305
0.13
0.129
0.133
0.139
0.1385
0.1375
0.139
0.139
0.1425
0.1425
0.143
0.1455
0.1435
0.14
0.1415
0.144
0.146
0.1495
0.1495
0.153
0.1555
0.155
0.1605
0.162
0.156
0.1585
0.164
0.1705
0.1755
0.1755
0.1745
0.176
0.1825
0.1845
0.188
0.192
0.1955
0.1975
0.1965
0.2015
0.205
0.2025
0.2
0.2025
0.206
0.207
0.2085
0.2105
0.211
0.211
0.2125
0.214
0.215
0.2175
0.218
0.221
0.229
0.234
0.2335
0.236
0.235
0.233
0.242
0.246
0.2465
0.2465
0.2485
0.253
0.255
0.2555
0.253
0.257
0.261
0.257
0.258
0.2585
0.2585
0.262
0.26
0.2585
0.2605
0.261
0.263
0.262
0.26
0.259
0.2595
0.263
0.2625
0.2635
0.265
0.2635
0.2695
0.2715
0.2685
0.2655
0.26
0.258
0.254
0.252
0.252
0.25
0.25
0.244
0.237
0.236
0.2335
0.232
0.227
0.2185
0.211
0.2105
0.2145
0.21
0.202
0.194
0.19
0.191
0.188
0.192
0.194
0.183
0.174
0.168
0.1635
0.1575
0.1485
0.1435
0.145
0.1445
0.1385
0.1345
0.1325
0.1305
0.124
0.118
0.114
0.1125
0.1115
0.1025
0.0945
0.0955
0.096
0.0935
0.093
0.0905
0.089
0.083
0.0815
0.0845
0.084
0.081
0.076
0.078
0.076
0.073
0.078
0.0755
0.074
0.0715
0.0635
0.0645
0.067
0.0665
0.0705
0.0755
0.072
0.063
0.0635
0.0665
0.0665
0.0655
0.0605
0.0645
0.064
0.0645
0.0725
0.0765
0.0745
0.0705
0.072
0.0745
0.074
0.0705
0.0665
0.064
0.0635
0.065
0.0645
0.059
0.0555
0.0565
0.058
0.059
0.058
0.058
0.057
0.054
0.059
0.065
0.0625
0.061
0.061
0.06
0.0605
0.064
0.063
0.0565
0.0575
0.0635
0.0685
0.072
0.0705
0.067
0.0675
0.065
0.065
0.0665
0.07
0.067
0.0605
0.064
0.069
0.0675
0.0655
0.0675
0.067
0.066
0.067
0.069
0.071
0.071
0.068
0.0705
0.0695
0.0705
0.073
0.0705
0.0695
0.0695
0.0745
0.0745
0.071
0.071
0.071
0.0725
0.074
0.0735
0.07
0.0705
0.069
0.07
0.0735
0.0705
0.068
0.0705
0.0755
0.0755
0.074
0.0715
0.0705
0.0695
0.0675
0.071
0.0745
0.0735
0.0685
0.0675
0.071
0.074
0.0805
0.0845
0.082
0.076
0.073
0.075
0.079
0.08
0.081
0.081
0.0785
0.076
0.0725
0.0725
0.0705
0.068
0.0695
0.0715
0.0665
0.0615
0.0635
0.066
0.0705
0.0725
0.07
0.073
0.073
0.067
0.067
0.0655
0.066
0.068
0.0695
0.0685
0.064
0.0655
0.0665
0.066
0.069
0.072
0.0705
0.0735
0.0745
0.073
0.0725
0.07
0.073
0.0775
0.0735
0.0715
0.0725
0.0725
0.0745
0.0745
0.0815
0.08
0.0775
0.082
0.0785
0.077
0.074
0.075
0.076
0.074
0.0755
0.074
0.079
0.08
0.077
0.0775
0.0775
0.081
0.0805
0.077
0.0735
0.0745
0.0775
0.0775
0.0775
0.077
0.078
0.078
0.076
0.077
0.0775
0.0765
0.0745
0.077
0.0775
0.0745
0.072
0.067
0.0725
0.0725
0.0715
0.071
0.0635
0.0695
0.07
0.0725
0.0735
0.0705
0.075
0.0675
0.0675
0.077
0.0755
0.069
0.0675
0.073
0.0755
0.0725
0.0685
0.0685
0.0665
0.067
0.071
0.0715
0.071
0.065
0.065
0.0675
0.068
0.0705
0.073
0.075
0.075
0.0725
0.068
0.0695
0.07
0.0635
0.0605
0.0645
0.065
0.0605
0.0605
0.0635
0.065
0.0725
0.078
0.075
0.0695
0.0635
0.0655
0.066
0.0655
0.0725
0.075
0.0695
0.0675
0.068
0.069
0.071
0.066
0.064
0.068
0.07
0.068
0.065
0.0635
0.0625
0.064
0.0705
0.068
0.0645
0.0675
0.069
0.071
0.066
0.065
0.066
0.0645
0.0675
0.0705
0.0695
0.065
0.064
0.0615
0.059
0.059
0.0625
0.0675
0.0675
0.064
0.0595
0.0625
0.0655
0.067
0.067
0.063
0.061
0.0615
0.0605
0.06
0.0575
0.056
0.0565
0.054
0.055
0.059
0.0565
0.0545
0.0575
0.0575
0.057
0.0545
0.0495
0.047
0.0505
0.05
0.049
0.0565
0.057
0.054
0.055
0.0545
0.051
0.0505
0.0555
0.0575
0.0565
0.057
0.0565
0.056
0.052
0.0475
0.0465
0.0435
0.0465
0.0495
0.0495
0.056
0.0575
0.056
0.054
0.051
0.0535
0.0525
0.0505
0.056
0.059
0.0565
0.0575
0.057
0.061
0.0665
0.066
0.062
0.059
0.057
0.0565
0.0585
0.0595
0.0595
0.059
0.0575
0.0585
0.0635
0.064
0.0625
0.06
0.0605
0.0635
0.065
0.067
0.064
0.065
0.0675
0.0675
0.0675
0.0675
0.073
0.0695
0.0645
0.062
0.062
0.0715
0.076
0.069
0.065
0.065
0.0635
0.064
0.065
0.0675
0.0635
0.0575
0.0575
0.061
0.066
0.0715
0.0715
0.073
0.077
0.081
0.0845
0.085
0.0865
0.0885
0.095
0.096
0.094
0.087
0.0825
0.0885
0.089
0.088
0.0885
0.0905
0.0895
0.087
0.088
0.0855
0.0815
0.086
0.087
0.0895
0.099
0.1055
0.113
0.1155
0.1145
0.117
0.1155
0.117
0.1195
0.119
0.124
0.126
0.1205
0.1145
0.104
0.096
0.0925
0.0855
0.0795
0.0735
0.068
0.0635
0.064
0.062
0.0615
0.0645
0.0605
0.063
0.062
0.059
0.058
0.057
0.0585
0.058
0.0545
0.0535
0.055
0.0545
0.0555
0.058
0.056
0.053
0.051
0.051
0.054
0.0535
0.0545
0.0565
0.0595
0.062
0.062
0.0635
0.059
0.0565
0.055
0.0565
0.057
0.052
0.053
0.0565
0.0535
0.0495
0.051
0.056
0.054
0.0515
0.054
0.0535
0.0505
0.0545
0.0555
0.046
0.046
0.055
0.059
0.0545
0.055
0.056
0.0515
0.0525
0.05
0.0495
0.0475
0.045
0.049
0.0495
0.051
0.0535
0.054
0.058
0.0575
0.054
0.0475
0.0435
0.043
0.0365
0.0335
0.0345
0.0325
0.0315
0.037
0.043
0.0445
0.0475
0.055
0.06
0.066
0.0815
0.096
0.109
0.125
0.1425
0.159
0.175
0.1925
0.2085
0.223
0.234
0.2475
0.2665
0.2815
0.302
0.322
0.347
0.378
0.3925
0.402
0.4125
0.435
0.449
0.442
0.438
0.4245
0.409
0.3905
0.3575
0.3225
0.307
0.2995
0.276
0.2395
0.2105
0.196
0.168
0.1435
0.123
0.0945
0.076
0.0535
0.035
0.0285
0.0295
0.0295
0.025
0.0315
0.0355
0.0395
0.052
0.071
0.09
0.1035
0.121
0.136
0.1405
0.15
0.1585
0.156
0.1605
0.1615
0.154
0.1535
0.155
0.1515
0.1485
0.144
0.136
0.1355
0.1345
0.13
0.127
0.123
0.12
0.1175
0.1145
0.116
0.116
0.1125
0.1095
0.107
0.1055
0.1045
0.1055
0.108
0.1075
0.109
0.109
0.108
0.111
0.11
0.107
0.104
0.102
0.0995
0.0965
0.0985
0.0995
0.1005
0.0995
0.098
0.098
0.1005
0.102
0.101
0.1015
0.103
0.106
0.1115
0.1095
0.105
0.1095
0.11
0.1055
0.105
0.1045
0.107
0.1065
0.106
0.108
0.106
0.1115
0.115
0.11
0.113
0.1115
0.1105
0.117
0.115
0.1115
0.1105
0.111
0.111
0.1095
0.1075
0.108
0.111
0.1085
0.1035
0.1055
0.1065
0.109
0.1105
0.109
0.11
0.109
0.1115
0.117
0.1185
0.1175
0.12
0.1225
0.1265
0.129
0.125
0.124
0.1225
0.1245
0.1275
0.1255
0.129
0.1295
0.1255
0.1255
0.1255
0.1275
0.1295
0.1255
0.128
0.1345
0.1375
0.1405
0.139
0.1365
0.1385
0.14
0.143
0.143
0.1395
0.1415
0.1435
0.147
0.148
0.146
0.1505
0.153
0.1525
0.156
0.157
0.156
0.158
0.1595
0.16
0.161
0.1655
0.167
0.1635
0.1635
0.1665
0.17
0.176
0.1765
0.178
0.1805
0.183
0.186
0.189
0.1915
0.191
0.195
0.196
0.203
0.2055
0.2045
0.206
0.2055
0.208
0.211
0.2135
0.217
0.222
0.2205
0.2225
0.2265
0.228
0.2275
0.228
0.2365
0.245
0.2505
0.2525
0.248
0.247
0.251
0.2535
0.255
0.2585
0.259
0.2585
0.2635
0.2665
0.2635
0.263
0.266
0.2705
0.273
0.277
0.28
0.28
0.278
0.2785
0.2795
0.277
0.276
0.276
0.2785
0.2795
0.28
0.282
0.2865
0.2895
0.2865
0.286
0.2845
0.283
0.282
0.285
0.288
0.288
0.284
0.2765
0.2795
0.283
0.2805
0.278
0.2725
0.2665
0.2655
0.2635
0.2625
0.26
0.2535
0.2515
0.2505
0.2505
0.2475
0.243
0.236
0.229
0.2265
0.22
0.2165
0.2155
0.207
0.2
0.2015
0.196
0.185
0.1795
0.1775
0.171
0.1625
0.158
0.1555
0.1545
0.1515
0.147
0.1425
0.139
0.1325
0.126
0.126
0.1235
0.12
0.1175
0.118
0.1155
0.1105
0.1075
0.104
0.106
0.105
0.1025
0.099
0.094
0.0965
0.095
0.096
0.102
0.0975
0.095
0.094
0.0915
0.0925
0.09
0.0855
0.084
0.087
0.0855
0.0805
0.082
0.082
0.083
0.094
0.099
0.091
0.086
0.082
0.0815
0.086
0.087
0.0845
0.084
0.0825
0.0815
0.087
0.091
0.0885
0.087
0.0855
0.0825
0.0775
0.0745
0.0775
0.0805
0.0815
0.083
0.086
0.088
0.0895
0.093
0.0935
0.0885
0.0835
0.0855
0.0875
0.0865
0.0885
0.0885
0.0885
0.0875
0.085
0.0845
0.088
0.088
0.0815
0.079
0.081
0.0835
0.0845
0.0825
0.0845
0.0825
0.08
0.0815
0.0835
0.0855
0.087
0.086
0.0825
0.078
0.08
0.081
0.08
0.082
0.084
0.085
0.083
0.082
0.0795
0.0775
0.0815
0.085
0.086
0.083
0.077
0.074
0.0765
0.077
0.074
0.077
0.0775
0.077
0.078
0.081
0.0855
0.09
0.092
0.085
0.08
0.082
0.085
0.084
0.083
0.0875
0.088
0.09
0.0925
0.088
0.0905
0.09
0.0855
0.089
0.0865
0.0865
0.0895
0.0875
0.09
0.0895
0.087
0.0885
0.0905
0.09
0.088
0.087
0.087
0.0875
0.0885
0.092
0.0925
0.0895
0.089
0.092
0.093
0.094
0.0945
0.095
0.094
0.093
0.094
0.095
0.095
0.094
0.095
0.0935
0.091
0.089
0.086
0.088
0.0915
0.097
0.0965
0.091
0.0915
0.094
0.0965
0.103
0.1035
0.103
0.103
0.101
0.106
0.1045
0.1005
0.1005
0.102
0.1
0.0975
0.0975
0.099
0.1005
0.0975
0.097
0.099
0.098
0.093
0.091
0.092
0.091
0.0915
0.091
0.089
0.0875
0.088
0.0875
0.0825
0.084
0.0875
0.088
0.087
0.086
0.089
0.0825
0.0795
0.083
0.0825
0.0835
0.0845
0.077
0.0755
0.082
0.0805
0.0775
0.08
0.081
0.074
0.0765
0.0755
0.0735
0.075
0.073
0.077
0.077
0.079
0.084
0.0825
0.0845
0.0905
0.093
0.094
0.089
0.0845
0.0845
0.085
0.083
0.0775
0.08
0.0815
0.0785
0.0785
0.078
0.0765
0.078
0.0775
0.0795
0.084
0.083
0.08
0.076
0.0735
0.0715
0.0735
0.078
0.077
0.0765
0.0785
0.0785
0.0755
0.0765
0.082
0.0875
0.0875
0.0875
0.0895
0.0915
0.091
0.09
0.0875
0.0855
0.0895
0.0885
0.0875
0.088
0.084
0.0855
0.084
0.0825
0.0835
0.0815
0.0815
0.0825
0.087
0.088
0.087
0.088
0.0875
0.0885
0.09
0.0885
0.0865
0.0845
0.085
0.0845
0.082
0.08
0.081
0.0865
0.084
0.0775
0.0785
0.0835
0.0845
0.0835
0.081
0.087
0.0965
0.0955
0.093
0.09
0.091
0.0905
0.0875
0.088
0.085
0.0845
0.0835
0.0825
0.088
0.0885
0.089
0.092
0.089
0.0885
0.0925
0.096
0.0965
0.093
0.089
0.0875
0.0885
0.09
0.0935
0.094
0.0915
0.091
0.0915
0.089
0.0855
0.0845
0.0855
0.0875
0.088
0.091
0.091
0.088
0.0905
0.091
0.089
0.0895
0.0875
0.084
0.083
0.0815
0.0835
0.084
0.087
0.092
0.0895
0.089
0.0935
0.095
0.0935
0.092
0.0905
0.0895
0.09
0.0865
0.087
0.088
0.086
0.086
0.0895
0.0895
0.087
0.091
0.0925
0.0875
0.087
0.094
0.095
0.0945
0.095
0.0915
0.091
0.0915
0.091
0.092
0.088
0.087
0.0905
0.085
0.083
0.0875
0.088
0.088
0.0875
0.0865
0.0865
0.0845
0.085
0.0875
0.0875
0.088
0.085
0.085
0.087
0.092
0.101
0.102
0.1
0.1
0.1005
0.104
0.104
0.1
0.0995
0.1035
0.107
0.107
0.106
0.105
0.1035
0.103
0.101
0.1025
0.1035
0.102
0.1
0.098
0.098
0.097
0.1
0.1025
0.101
0.1015
0.104
0.1025
0.102
0.102
0.101
0.1055
0.109
0.1105
0.1125
0.1155
0.1185
0.1175
0.118
0.1205
0.1225
0.1255
0.128
0.1235
0.122
0.1285
0.1295
0.129
0.1305
0.1325
0.132
0.127
0.1255
0.1255
0.126
0.1295
0.136
0.1415
0.144
0.1475
0.151
0.1525
0.153
0.155
0.1565
0.1545
0.151
0.1475
0.1405
0.135
0.133
0.1275
0.1215
0.116
0.1095
0.1045
0.098
0.0915
0.089
0.088
0.087
0.085
0.085
0.0845
0.0835
0.081
0.0765
0.078
0.0765
0.08
0.0825
0.081
0.0845
0.084
0.088
0.091
0.0885
0.088
0.085
0.0815
0.0815
0.0815
0.081
0.0795
0.077
0.0775
0.0805
0.0825
0.08
0.0785
0.079
0.0785
0.0785
0.081
0.0795
0.079
0.0805
0.081
0.0825
0.0775
0.0775
0.079
0.0765
0.077
0.075
0.0725
0.073
0.0735
0.0745
0.074
0.0715
0.0735
0.073
0.0725
0.075
0.073
0.072
0.0785
0.0815
0.082
0.085
0.0815
0.0765
0.075
0.0755
0.0755
0.072
0.0745
0.0785
0.076
0.074
0.0735
0.071
0.068
0.067
0.066
0.0635
0.0635
0.071
0.082
0.0855
0.0845
0.087
0.0915
0.0995
0.112
0.1255
0.143
0.1575
0.178
0.2055
0.22
0.231
0.2435
0.2605
0.2665
0.2775
0.3015
0.322
0.3495
0.37
0.395
0.4165
0.435
0.4515
0.4625
0.484
0.4825
0.4795
0.4765
0.4565
0.4405
0.4165
0.3815
0.355
0.3455
0.3315
0.302
0.2655
0.239
0.2175
0.1865
0.166
0.146
0.1165
0.0965
0.0745
0.0595
0.0565
0.0535
0.054
0.05
0.054
0.065
0.074
0.087
0.097
0.116
0.138
0.151
0.159
0.169
0.1785
0.181
0.1835
0.182
0.1865
0.1855
0.178
0.171
0.166
0.1645
0.1585
0.156
0.1415
0.136
0.1435
0.1405
0.14
0.139
0.134
0.132
0.133
0.132
0.1275
0.124
0.1265
0.1275
0.1225
0.12
0.1185
0.1175
0.1185
0.1165
0.1145
0.1145
0.116
0.1145
0.1085
0.1055
0.107
0.112
0.1215
0.129
0.129
0.1255
0.1205
0.1185
0.1185
0.12
0.12
0.117
0.1145
0.1145
0.1145
0.118
0.1285
0.1285
0.121
0.1205
0.122
0.122
0.1215
0.1235
0.1235
0.1235
0.123
0.1215
0.126
0.123
0.1225
0.1305
0.1315
0.132
0.1315
0.131
0.1305
0.13
0.1325
0.1325
0.133
0.133
0.135
0.136
0.1345
0.132
0.135
0.134
0.1325
0.1315
0.1305
0.137
0.1365
0.1375
0.139
0.139
0.137
0.136
0.1405
0.141
0.1445
0.1435
0.142
0.143
0.1395
0.143
0.1435
0.142
0.1455
0.147
0.15
0.152
0.156
0.162
0.1605
0.156
0.154
0.1595
0.161
0.1615
0.1655
0.167
0.1705
0.1705
0.1685
0.1695
0.167
0.167
0.17
0.17
0.172
0.1725
0.1725
0.169
0.166
0.1715
0.1785
0.183
0.182
0.183
0.1895
0.1985
0.204
0.202
0.197
0.1935
0.1965
0.1975
0.1975
0.2025
0.204
0.2045
0.209
0.2115
0.2155
0.218
0.218
0.2225
0.2285
0.232
0.233
0.2335
0.2345
0.236
0.2375
0.2395
0.2405
0.2425
0.245
0.246
0.251
0.2505
0.2505
0.2535
0.2585
0.264
0.2655
0.2655
0.269
0.2755
0.276
0.2775
0.282
0.284
0.28
0.2785
0.284
0.2865
0.29
0.297
0.2985
0.298
0.2995
0.297
0.2955
0.2975
0.2995
0.298
0.302
0.307
0.3025
0.302
0.3035
0.3035
0.309
0.3125
0.309
0.309
0.308
0.3095
0.312
0.3075
0.3045
0.3035
0.3015
0.3
0.3
0.3
0.298
0.295
0.293
0.2855
0.282
0.282
0.2825
0.2835
0.2755
0.2675
0.262
0.264
0.265
0.261
0.2625
0.257
0.2455
0.242
0.2375
0.229
0.2285
0.2275
0.219
0.2135
0.2155
0.214
0.2025
0.1935
0.19
0.1855
0.1835
0.1835
0.1815
0.178
0.176
0.1705
0.1635
0.1615
0.1555
0.1465
0.1425
0.141
0.1415
0.138
0.133
0.131
0.13
0.1235
0.121
0.126
0.1245
0.1205
0.1185
0.112
0.1105
0.1135
0.1075
0.106
0.1035
0.1015
0.102
0.099
0.097
0.0935
0.091
0.093
0.097
0.098
0.098
0.0965
0.095
0.0945
0.0955
0.0975
0.0975
0.096
0.0915
0.0915
0.095
0.094
0.095
0.0985
0.0965
0.0935
0.0905
0.0895
0.0915
0.09
0.0895
0.0905
0.089
0.089
0.0895
0.0865
0.0885
0.091
0.094
0.1
0.1
0.1
0.0985
0.0905
0.088
0.087
0.086
0.088
0.088
0.086
0.086
0.088
0.0855
0.084
0.0855
0.087
0.0835
0.086
0.086
0.0855
0.0905
0.091
0.0915
0.0895
0.088
0.087
0.0875
0.09
0.0885
0.0875
0.0875
0.0875
0.0855
0.088
0.087
0.091
0.099
0.098
0.095
0.0905
0.0915
0.0895
0.0875
0.0905
0.0915
0.0945
0.0945
0.0945
0.094
0.091
0.093
0.0945
0.0925
0.091
0.0885
0.0885
0.0905
0.0945
0.098
0.098
0.098
0.0985
0.0935
0.0885
0.094
0.099
0.1005
0.096
0.0925
0.0955
0.095
0.0955
0.096
0.094
0.093
0.093
0.0905
0.0895
0.0915
0.094
0.098
0.0965
0.0945
0.0925
0.088
0.0895
0.0925
0.095
0.09
0.086
0.0915
0.0955
0.0945
0.0955
0.095
0.095
0.0975
0.0965
0.0965
0.095
0.0935
0.097
0.1015
0.104
0.103
0.1005
0.094
0.093
0.0975
0.0975
0.0945
0.0915
0.0965
0.097
0.094
0.096
0.0985
0.097
0.0985
0.1005
0.095
0.0945
0.0945
0.097
0.097
0.098
0.1005
0.098
0.098
0.095
0.0945
0.095
0.0995
0.101
0.0955
0.0935
0.0905
0.0895
0.091
0.0915
0.091
0.093
0.0975
0.099
0.0975
0.095
0.094
0.093
0.0945
0.0945
0.093
0.0965
0.1
0.0955
0.0875
0.091
0.0965
0.0945
0.0955
0.0975
0.096
0.095
0.092
0.0915
0.093
0.0945
0.094
0.092
0.09
0.085
0.0875
0.089
0.0885
0.0925
0.092
0.097
0.097
0.093
0.0935
0.093
0.0925
0.09
0.09
0.0875
0.0815
0.08
0.083
0.088
0.0905
0.0895
0.0855
0.0825
0.0875
0.0905
0.092
0.091
0.0845
0.0835
0.0845
0.0825
0.081
0.082
0.0835
0.0845
0.0835
0.084
0.0855
0.0865
0.091
0.0895
0.086
0.0845
0.0825
0.08
0.0785
0.0835
0.088
0.0905
0.089
0.0835
0.083
0.0845
0.0805
0.082
0.0845
0.0825
0.0805
0.079
0.08
0.086
0.0885
0.0855
0.0845
0.0845
0.0815
0.0815
0.081
0.0815
0.0795
0.079
0.0845
0.0885
0.092
0.09
0.0875
0.092
0.0935
0.092
0.0945
0.0925
0.087
0.088
0.088
0.0845
0.086
0.086
0.0835
0.082
0.0815
0.082
0.0845
0.0885
0.0915
0.09
0.086
0.0845
0.0865
0.093
0.094
0.0915
0.087
0.0855
0.094
0.092
0.0875
0.086
0.0845
0.0865
0.085
0.083
0.082
0.0865
0.091
0.094
0.094
0.094
0.093
0.088
0.0845
0.0845
0.086
0.091
0.0925
0.09
0.0885
0.086
0.084
0.0845
0.084
0.0815
0.081
0.082
0.0835
0.0845
0.09
0.0945
0.0895
0.0855
0.0895
0.0915
0.091
0.0915
0.0885
0.0875
0.085
0.084
0.084
0.085
0.082
0.0805
0.083
0.085
0.0895
0.086
0.0885
0.0945
0.093
0.088
0.0865
0.088
0.085
0.085
0.0855
0.084
0.0855
0.0835
0.081
0.083
0.084
0.0855
0.0905
0.097
0.0985
0.0975
0.0945
0.097
0.094
0.088
0.089
0.0905
0.096
0.0975
0.1005
0.1075
0.107
0.1055
0.103
0.1005
0.098
0.096
0.095
0.097
0.097
0.094
0.097
0.0965
0.095
0.098
0.1005
0.096
0.0935
0.1015
0.105
0.1035
0.1045
0.11
0.1145
0.117
0.1175
0.124
0.1325
0.1295
0.125
0.121
0.12
0.123
0.123
0.118
0.117
0.123
0.1225
0.1235
0.12
0.115
0.114
0.1125
0.115
0.1225
0.129
0.1295
0.14
0.1475
0.144
0.142
0.143
0.1455
0.146
0.144
0.1405
0.136
0.1315
0.129
0.123
0.1195
0.116
0.1055
0.1
0.102
0.093
0.0835
0.0875
0.085
0.0855
0.091
0.086
0.0845
0.0835
0.0765
0.0675
0.068
0.071
0.066
0.0685
0.0705
0.0675
0.07
0.0715
0.069
0.071
0.0735
0.0715
0.0735
0.0745
0.079
0.083
0.0795
0.075
0.0765
0.0805
0.0785
0.075
0.073
0.07
0.0675
0.067
0.0655
0.0665
0.067
0.064
0.065
0.067
0.0705
0.0715
0.071
0.071
0.0675
0.0675
0.0655
0.0645
0.063
0.0605
0.0655
0.067
0.069
0.069
0.062
0.0605
0.0605
0.0605
0.062
0.0585
0.0585
0.0605
0.0625
0.0615
0.0605
0.06
0.0565
0.058
0.0575
0.054
0.054
0.053
0.05
0.048
0.0465
0.0445
0.043
0.042
0.0475
0.049
0.0535
0.064
0.0705
0.0815
0.088
0.0955
0.1085
0.122
0.141
0.1595
0.1805
0.2015
0.2185
0.232
0.2445
0.2545
0.263
0.2835
0.306
0.33
0.3485
0.37
0.4005
0.414
0.4295
0.4405
0.4555
0.473
0.4735
0.4695
0.4555
0.4335
0.4105
0.377
0.3415
0.3285
0.3175
0.2935
0.2665
0.2365
0.214
0.1855
0.1555
0.131
0.1095
0.0905
0.0625
0.0395
0.0295
0.035
0.0345
0.025
0.0285
0.033
0.0365
0.051
0.07
0.087
0.11
0.1275
0.1365
0.1455
0.1525
0.1575
0.1585
0.16
0.163
0.163
0.161
0.158
0.1525
0.1505
0.15
0.1475
0.1445
0.1385
0.1355
0.1335
0.1325
0.131
0.125
0.118
0.1205
0.122
0.115
0.1115
0.113
0.118
0.116
0.1155
0.117
0.1135
0.114
0.1155
0.1125
0.108
0.111
0.1165
0.1185
0.121
0.1195
0.116
0.1185
0.1145
0.112
0.1195
0.119
0.1185
0.1225
0.1185
0.115
0.1155
0.115
0.1215
0.123
0.118
0.118
0.1185
0.1185
0.122
0.126
0.1255
0.1205
0.1205
0.126
0.122
0.1145
0.116
0.119
0.124
0.126
0.1195
0.1175
0.1205
0.1245
0.125
0.1175
0.117
0.1205
0.119
0.115
0.1215
0.1325
0.126
0.125
0.1305
0.1355
0.132
0.1215
0.1245
0.135
0.14
0.137
0.135
0.1295
0.128
0.1335
0.133
0.133
0.136
0.139
0.1375
0.1365
0.1445
0.1415
0.133
0.136
0.136
0.136
0.137
0.1365
0.1335
0.1315
0.1325
0.134
0.138
0.1425
0.1425
0.1415
0.1455
0.146
0.1465
0.1495
0.151
0.1515
0.153
0.1555
0.157
0.162
0.1625
0.159
0.1605
0.162
0.162
0.1635
0.1715
0.1775
0.174
0.175
0.179
0.185
0.1895
0.1915
0.191
0.188
0.1905
0.1925
0.1915
0.1885
0.191
0.197
0.197
0.2025
0.206
0.2045
0.202
0.2005
0.204
0.211
0.2185
0.221
0.224
0.225
0.228
0.2305
0.2305
0.235
0.2385
0.2405
0.2435
0.247
0.249
0.2495
0.254
0.2585
0.256
0.257
0.2615
0.262
0.2605
0.2645
0.269
0.2675
0.27
0.269
0.2705
0.2765
0.2765
0.2865
0.2925
0.287
0.2855
0.2885
0.29
0.29
0.293
0.294
0.296
0.2945
0.2935
0.297
0.296
0.297
0.293
0.292
0.2965
0.296
0.2945
0.296
0.2945
0.289
0.2905
0.2855
0.2795
0.2825
0.285
0.287
0.286
0.2815
0.2795
0.278
0.278
0.277
0.271
0.2705
0.2685
0.259
0.2555
0.2505
0.244
0.2435
0.2415
0.2385
0.2335
0.2265
0.2205
0.2155
0.2125
0.2065
0.2015
0.1995
0.194
0.1905
0.184
0.1805
0.177
0.17
0.167
0.1665
0.165
0.1575
0.152
0.145
0.137
0.1355
0.135
0.1305
0.1245
0.125
0.119
0.109
0.1135
0.1125
0.1085
0.1065
0.105
0.0995
0.0915
0.0965
0.0975
0.097
0.095
0.0945
0.0985
0.096
0.0945
0.093
0.088
0.085
0.085
0.0835
0.082
0.0825
0.085
0.0855
0.0845
0.083
0.08
0.083
0.0825
0.078
0.084
0.082
0.072
0.0715
0.0765
0.085
0.0895
0.0865
0.082
0.0795
0.0795
0.0765
0.074
0.078
0.0795
0.0825
0.084
0.0755
0.073
0.0755
0.0725
0.072
0.0785
0.0795
0.0835
0.084
0.0775
0.0765
0.0785
0.078
0.076
0.0755
0.074
0.074
0.072
0.0705
0.0685
0.064
0.0675
0.0725
0.075
0.075
0.074
0.0735
0.07
0.072
0.0765
0.0795
0.084
0.0875
0.0875
0.085
0.089
0.0865
0.0815
0.081
0.08
0.0795
0.078
0.074
0.0705
0.0705
0.066
0.065
0.0705
0.07
0.074
0.081
0.075
0.0765
0.0815
0.085
0.0835
0.079
0.078
0.0775
0.0785
0.079
0.084
0.0875
0.082
0.0815
0.092
0.0945
0.0915
0.095
0.089
0.0875
0.09
0.085
0.083
0.0795
0.0865
0.087
0.082
0.088
0.0825
0.0815
0.085
0.086
0.082
0.0785
0.0885
0.095
0.094
0.0925
0.0905
0.0865
0.084
0.081
0.084
0.088
0.0905
0.0965
0.0945
0.09
0.088
0.088
0.0895
0.0945
0.0945
0.094
0.09
0.0875
0.087
0.087
0.0925
0.0925
0.1005
0.105
0.1005
0.098
0.092
0.087
0.0855
0.088
0.0895
0.093
0.092
0.0875
0.0825
0.0805
0.0815
0.081
0.0875
0.091
0.0915
0.092
0.0915
0.097
0.096
0.0945
0.092
0.0835
0.0825
0.088
0.096
0.0935
0.088
0.0815
0.078
0.0845
0.0875
0.084
0.0865
0.0975
0.098
0.0955
0.0925
0.09
0.0855
0.0855
0.0935
0.094
0.089
0.088
0.0865
0.0825
0.081
0.081
0.081
0.081
0.0795
0.0805
0.0835
0.085
0.0835
0.078
0.075
0.0765
0.079
0.0775
0.0795
0.0875
0.084
0.0775
0.08
0.081
0.0785
0.074
0.076
0.0805
0.078
0.077
0.0775
0.075
0.0745
0.078
0.0775
0.0775
0.079
0.077
0.078
0.0765
0.0715
0.076
0.0775
0.0745
0.072
0.0705
0.07
0.065
0.0675
0.066
0.067
0.071
0.0675
0.0645
0.064
0.0685
0.072
0.08
0.076
0.0735
0.0775
0.0735
0.071
0.067
0.07
0.0735
0.071
0.068
0.071
0.075
0.074
0.077
0.077
0.076
0.0775
0.078
0.077
0.0735
0.067
0.0635
0.0635
0.066
0.0695
0.0705
0.0735
0.0805
0.081
0.0725
0.067
0.0645
0.0655
0.0675
0.0695
0.071
0.0705
0.067
0.063
0.07
0.075
0.074
0.0715
0.0725
0.08
0.087
0.0865
0.0835
0.083
0.0815
0.083
0.0865
0.0855
0.082
0.084
0.09
0.09
0.086
0.0865
0.0935
0.1045
0.1025
0.0975
0.099
0.093
0.0925
0.0965
0.0945
0.0895
0.0885
0.089
0.081
0.0845
0.0875
0.088
0.0925
0.0935
0.094
0.0965
0.1005
0.101
0.106
0.1095
0.108
0.111
0.1115
0.112
0.115
0.1145
0.112
0.109
0.1105
0.1115
0.1155
0.1175
0.1155
0.12
0.1175
0.111
0.1105
0.1095
0.1085
0.1085
0.111
0.1205
0.131
0.139
0.1415
0.141
0.1385
0.1405
0.141
0.138
0.138
0.131
0.129
0.1285
0.124
0.1195
0.1155
0.114
0.103
0.0905
0.087
0.0785
0.0735
0.0795
0.0855
0.0855
0.0815
0.0775
0.0725
0.0665
0.0645
0.064
0.0635
0.068
0.07
0.0675
0.0715
0.072
0.073
0.071
0.0675
0.068
0.0675
0.07
0.0715
0.0675
0.0645
0.0645
0.0635
0.063
0.064
0.064
0.065
0.07
0.0715
0.068
0.066
0.064
0.064
0.063
0.0645
0.0715
0.0745
0.0735
0.0715
0.0695
0.0655
0.066
0.0645
0.063
0.067
0.0705
0.0735
0.068
0.064
0.0635
0.067
0.071
0.069
0.0665
0.0655
0.065
0.0615
0.06
0.0605
0.0595
0.058
0.059
0.059
0.0565
0.0575
0.0555
0.055
0.0545
0.053
0.056
0.06
0.058
0.051
0.0465
0.0465
0.0515
0.0555
0.0595
0.0635
0.0635
0.0745
0.0855
0.093
0.109
0.1255
0.146
0.165
0.1845
0.201
0.211
0.2255
0.244
0.2545
0.268
0.2885
0.3105
0.334
0.349
0.375
0.3985
0.413
0.427
0.4385
0.46
0.468
0.4655
0.4585
0.4415
0.4265
0.403
0.3585
0.3235
0.311
0.294
0.263
0.2285
0.203
0.1765
0.1415
0.118
0.1
0.084
0.0675
0.0445
0.023
0.0155
0.018
0.013
0.012
0.0105
0.015
0.0245
0.041
0.064
0.08
0.096
0.111
0.1245
0.1385
0.1465
0.153
0.1595
0.1595
0.1625
0.1675
0.165
0.1625
0.1595
0.1545
0.1495
0.1445
0.139
0.1365
0.135
0.134
0.1305
0.129
0.1255
0.1185
0.119
0.1175
0.119
0.121
0.119
0.1165
0.114
0.1145
0.114
0.1145
0.115
0.114
0.115
0.1145
0.1185
0.1215
0.1175
0.1165
0.1185
0.1235
0.122
0.116
0.114
0.11
0.11
0.115
0.118
0.115
0.1175
0.1165
0.116
0.111
0.1065
0.1165
0.1195
0.122
0.121
0.1175
0.119
0.1155
0.117
0.119
0.1165
0.1185
0.1185
0.1255
0.127
0.1225
0.125
0.121
0.1255
0.131
0.1275
0.1295
0.135
0.136
0.1325
0.1295
0.1285
0.1295
0.1315
0.132
0.131
0.129
0.1285
0.133
0.1345
0.1325
0.133
0.1315
0.132
0.1315
0.1285
0.128
0.132
0.1315
0.13
0.134
0.1365
0.136
0.1375
0.138
0.1365
0.137
0.134
0.134
0.139
0.1425
0.1405
0.1385
0.1405
0.1455
0.15
0.1545
0.1535
0.1525
0.1545
0.1535
0.155
0.1575
0.156
0.153
0.154
0.158
0.1535
0.1475
0.149
0.155
0.1565
0.156
0.159
0.16
0.1605
0.166
0.1675
0.1655
0.1685
0.1735
0.1805
0.1875
0.186
0.1855
0.1845
0.183
0.191
0.1905
0.189
0.198
0.2055
0.209
0.2085
0.2055
0.206
0.2135
0.22
0.2185
0.2185
0.2185
0.2185
0.221
0.2225
0.225
0.2245
0.23
0.235
0.2345
0.234
0.236
0.239
0.243
0.2475
0.2475
0.25
0.2555
0.257
0.2575
0.2575
0.257
0.2635
0.2665
0.265
0.271
0.277
0.276
0.2735
0.28
0.288
0.2865
0.288
0.289
0.283
0.2855
0.292
0.2915
0.291
0.2955
0.2905
0.2905
0.292
0.2895
0.293
0.2915
0.2905
0.2975
0.3
0.3005
0.3
0.2975
0.3
0.3015
0.3015
0.2995
0.291
0.2845
0.2805
0.2815
0.285
0.2845
0.2755
0.266
0.2655
0.2645
0.2605
0.259
0.2565
0.253
0.249
0.2405
0.24
0.2335
0.2215
0.2205
0.214
0.2055
0.2045
0.2025
0.196
0.1905
0.187
0.1795
0.1715
0.1705
0.162
0.155
0.154
0.1525
0.149
0.1455
0.1375
0.1325
0.131
0.123
0.122
0.1195
0.117
0.1155
0.114
0.1065
0.101
0.0985
0.094
0.095
0.094
0.0905
0.087
0.085
0.084
0.084
0.0805
0.0775
0.083
0.0815
0.077
0.0785
0.0835
0.088
0.0815
0.0805
0.084
0.0865
0.092
0.0875
0.0825
0.0785
0.079
0.0785
0.074
0.076
0.074
0.0755
0.077
0.0735
0.0765
0.078
0.0775
0.0755
0.072
0.077
0.081
0.077
0.0775
0.077
0.0775
0.077
0.0735
0.076
0.075
0.0735
0.074
0.0705
0.0735
0.076
0.074
0.067
0.068
0.071
0.072
0.074
0.0705
0.0725
0.074
0.07
0.068
0.0715
0.0745
0.077
0.0755
0.0735
0.074
0.0765
0.081
0.073
0.068
0.0735
0.0745
0.0725
0.0685
0.0665
0.0675
0.0665
0.0685
0.0675
0.0695
0.0745
0.0705
0.071
0.069
0.066
0.068
0.072
0.075
0.067
0.075
0.083
0.075
0.069
0.067
0.0675
0.0705
0.0765
0.08
0.076
0.069
0.0715
0.078
0.0755
0.075
0.077
0.0725
0.0715
0.0705
0.066
0.0665
0.069
0.074
0.077
0.078
0.0735
0.07
0.075
0.072
0.072
0.073
0.0715
0.0695
0.0675
0.071
0.0715
0.0695
0.0715
0.0725
0.0685
0.065
0.0645
0.069
0.068
0.065
0.069
0.073
0.074
0.0685
0.0665
0.0655
0.0625
0.067
0.0675
0.0675
0.0695
0.075
0.0785
0.075
0.076
0.0755
0.072
0.072
0.0765
0.077
0.0795
0.0825
0.0815
0.08
0.0755
0.0735
0.0715
0.0685
0.071
0.0725
0.0675
0.068
0.0665
0.0695
0.0725
0.0655
0.0705
0.071
0.0715
0.0735
0.0715
0.0755
0.0755
0.0715
0.076
0.074
0.07
0.0725
0.0665
0.0635
0.0665
0.071
0.0715
0.0685
0.066
0.067
0.0705
0.0705
0.071
0.0705
0.0715
0.075
0.0775
0.071
0.0675
0.0705
0.069
0.0695
0.0675
0.0695
0.073
0.067
0.055
0.0535
0.061
0.0665
0.0715
0.066
0.063
0.0645
0.0635
0.065
0.0665
0.0645
0.0645
0.067
0.067
0.066
0.069
0.0715
0.07
0.0675
0.0685
0.0715
0.07
0.0685
0.0725
0.072
0.0665
0.0665
0.0695
0.068
0.062
0.0615
0.063
0.0665
0.064
0.059
0.0565
0.055
0.061
0.066
0.0685
0.06
0.058
0.061
0.063
0.068
0.067
0.068
0.074
0.0745
0.076
0.0775
0.0725
0.068
0.0675
0.0765
0.0745
0.0675
0.0695
0.0715
0.075
0.0725
0.072
0.074
0.0765
0.074
0.067
0.0715
0.0685
0.069
0.074
0.067
0.069
0.0725
0.0695
0.0715
0.077
0.084
0.0905
0.0935
0.0955
0.0915
0.092
0.094
0.09
0.0865
0.084
0.086
0.0895
0.091
0.091
0.093
0.089
0.0825
0.081
0.0765
0.081
0.0875
0.085
0.0955
0.111
0.116
0.1145
0.114
0.1155
0.116
0.1185
0.11
0.105
0.1035
0.0985
0.1005
0.096
0.0925
0.0885
0.0835
0.082
0.0785
0.0695
0.059
0.0585
0.065
0.069
0.0685
0.0615
0.056
0.0545
0.0505
0.0515
0.054
0.0505
0.0505
0.0485
0.044
0.0505
0.056
0.0515
0.05
0.051
0.0475
0.048
0.051
0.05
0.048
0.0455
0.041
0.0395
0.042
0.0425
0.0405
0.0395
0.044
0.048
0.053
0.05
0.0445
0.0465
0.0465
0.047
0.0435
0.043
0.045
0.0465
0.0485
0.0485
0.0495
0.0525
0.051
0.0465
0.048
0.053
0.0495
0.044
0.046
0.05
0.0505
0.048
0.0485
0.0475
0.046
0.048
0.0515
0.0535
0.0495
0.045
0.0455
0.0455
0.0475
0.043
0.0355
0.035
0.0305
0.0315
0.028
0.022
0.024
0.0165
0.0175
0.0285
0.035
0.038
0.043
0.047
0.052
0.0625
0.072
0.083
0.101
0.1165
0.1355
0.159
0.1705
0.1865
0.1995
0.2095
0.22
0.235
0.2575
0.277
0.3065
0.3215
0.3415
0.3635
0.3735
0.3885
0.395
0.414
0.4275
0.4335
0.4345
0.413
0.389
0.3635
0.3315
0.2925
0.263
0.245
0.218
0.1845
0.1575
0.1365
0.1155
0.0925
0.0695
0.0515
0.0405
0.0275
0.0055
-0.0095
-0.0095
-0.0055
-0.009
-0.008
-0.009
-0.0085
0.004
0.0185
0.0355
0.056
0.0825
0.1025
0.1125
0.1185
0.12
0.125
0.1275
0.1285
0.1315
0.136
0.142
0.139
0.134
0.124
0.117
0.119
0.1145
0.115
0.112
0.1085
0.1055
0.1015
0.1025
0.103
0.0955
0.088
0.0895
0.089
0.0935
0.096
0.1015
0.1045
0.0965
0.0925
0.0885
0.0885
0.0925
0.0945
0.0945
0.089
0.0835
0.088
0.094
0.091
0.089
0.0885
0.096
0.092
0.077
0.0855
0.0895
0.084
0.087
0.085
0.0915
0.096
0.0925
0.0975
0.0945
0.089
0.0955
0.1025
0.0975
0.097
0.097
0.0965
0.095
0.091
0.0935
0.091
0.096
0.0995
0.0955
0.0965
0.0955
0.096
0.0945
0.099
0.106
0.1015
0.0945
0.0965
0.0945
0.091
0.094
0.0965
0.102
0.105
0.0985
0.0955
0.1005
0.101
0.1005
0.1
0.102
0.099
0.098
0.1025
0.1045
0.106
0.107
0.1065
0.11
0.111
0.111
0.1125
0.1055
0.1065
0.1085
0.1125
0.115
0.1115
0.115
0.113
0.1165
0.122
0.1185
0.1145
0.1105
0.112
0.115
0.115
0.115
0.116
0.1205
0.127
0.1305
0.1335
0.137
0.1295
0.124
0.1305
0.1345
0.135
0.136
0.1345
0.1445
0.1565
0.156
0.154
0.15
0.153
0.1585
0.1585
0.1575
0.1575
0.1565
0.1575
0.1585
0.1615
0.1675
0.166
0.168
0.17
0.1715
0.179
0.185
0.1845
0.1855
0.1915
0.1955
0.199
0.2075
0.2115
0.211
0.213
0.2215
0.22
0.2175
0.2205
0.2185
0.224
0.2215
0.2235
0.229
0.231
0.235
0.235
0.2395
0.2405
0.245
0.252
0.256
0.257
0.2585
0.2605
0.261
0.2625
0.262
0.2655
0.265
0.266
0.269
0.269
0.272
0.2715
0.2715
0.2715
0.2735
0.2745
0.2735
0.277
0.2765
0.2735
0.2725
0.2695
0.2685
0.2715
0.271
0.271
0.273
0.269
0.268
0.2675
0.264
0.2615
0.256
0.2555
0.251
0.2525
0.2555
0.2445
0.2425
0.2435
0.2415
0.2365
0.234
0.2335
0.23
0.2315
0.2245
0.2165
0.21
0.204
0.1995
0.1935
0.1915
0.183
0.18
0.1725
0.16
0.1575
0.153
0.1485
0.143
0.1345
0.129
0.129
0.1235
0.118
0.118
0.112
0.108
0.1085
0.1055
0.1
0.0975
0.0965
0.091
0.0855
0.084
0.0875
0.084
0.08
0.083
0.084
0.085
0.0805
0.078
0.0785
0.077
0.072
0.0715
0.073
0.0655
0.0645
0.0655
0.0615
0.0615
0.0555
0.05
0.053
0.051
0.051
0.052
0.046
0.041
0.0465
0.0575
0.0565
0.0535
0.055
0.058
0.0585
0.0525
0.051
0.053
0.0495
0.051
0.055
0.0505
0.047
0.047
0.047
0.0475
0.046
0.045
0.0425
0.043
0.0465
0.0465
0.045
0.043
0.0435
0.0385
0.0375
0.042
0.045
0.0475
0.045
0.046
0.047
0.048
0.049
0.046
0.046
0.0445
0.0435
0.045
0.0465
0.048
0.0465
0.052
0.0515
0.045
0.047
0.0435
0.045
0.05
0.0505
0.048
0.0455
0.0465
0.045
0.0435
0.05
0.057
0.057
0.053
0.0455
0.045
0.051
0.053
0.054
0.0535
0.0485
0.044
0.043
0.0455
0.051
0.049
0.0515
0.0525
0.048
0.05
0.044
0.0445
0.0495
0.0495
0.0525
0.054
0.0565
0.0505
0.045
0.0435
0.045
0.0465
0.038
0.0445
0.0555
0.049
0.048
0.049
0.0455
0.0435
0.04
0.0445
0.045
0.0425
0.044
0.0415
0.042
0.0525
0.052
0.045
0.0485
0.046
0.044
0.047
0.045
0.0495
0.0565
0.048
0.0495
0.051
0.0425
0.0455
0.0465
0.0445
0.0435
0.042
0.044
0.0455
0.046
0.047
0.042
0.042
0.039
0.0405
0.047
0.0435
0.044
0.0455
0.0485
0.0455
0.0425
0.0455
0.045
0.043
0.044
0.0445
0.0415
0.0385
0.035
0.036
0.042
0.0475
0.045
0.041
0.0435
0.038
0.0375
0.041
0.044
0.0485
0.044
0.0435
0.044
0.041
0.0385
0.039
0.0405
0.0385
0.041
0.0425
0.0365
0.0365
0.045
0.0455
0.043
0.0455
0.04
0.0345
0.0395
0.046
0.042
0.034
0.037
0.036
0.033
0.03
0.0295
0.033
0.032
0.037
0.039
0.0355
0.032
0.0295
0.03
0.0295
0.0305
0.037
0.041
0.0385
0.036
0.037
0.036
0.033
0.04
0.0435
0.0405
0.039
0.0355
0.0365
0.0365
0.0365
0.0345
0.029
0.0265
0.0185
0.0205
0.0345
0.04
0.037
0.033
0.032
0.029
0.0325
0.0315
0.022
0.02
0.02
0.0275
0.0365
0.035
0.028
0.026
0.029
0.03
0.0305
0.033
0.0345
0.034
0.038
0.0385
0.0405
0.044
0.041
0.04
0.04
0.0395
0.0385
0.042
0.046
0.045
0.0395
0.041
0.047
0.0475
0.045
0.045
0.0455
0.044
0.043
0.0405
0.0435
0.0465
0.044
0.0395
0.038
0.0365
0.0335
0.034
0.033
0.033
0.033
0.036
0.0415
0.046
0.055
0.058
0.061
0.0635
0.0615
0.061
0.0645
0.0685
0.064
0.0595
0.056
0.057
0.0635
0.0635
0.0605
0.0595
0.0535
0.047
0.0435
0.0395
0.0415
0.047
0.06
0.072
0.0795
0.086
0.0845
0.085
0.085
0.087
0.085
0.0815
0.0805
0.0745
0.0715
0.068
0.066
0.0645
0.065
0.062
0.049
0.045
0.044
0.0405
0.034
0.033
0.039
0.04
0.036
0.0285
0.022
0.0185
0.024
0.025
0.026
0.026
0.0185
0.02
0.021
0.0235
0.021
0.0165
0.018
0.0155
0.017
0.023
0.018
0.0125
0.019
0.018
0.0135
0.012
0.015
0.015
0.013
0.0225
0.032
0.0305
0.0235
0.0205
0.0195
0.0195
0.0215
0.0215
0.021
0.021
0.0185
0.019
0.025
0.026
0.022
0.025
0.0235
0.0215
0.0255
0.0265
0.025
0.02
0.023
0.024
0.0225
0.02
0.0185
0.0195
0.0155
0.0175
0.02
0.02
0.0175
0.0135
0.0165
0.0155
0.016
0.0145
0.012
0.0085
0.0035
0.0085
0.0075
0.0065
0.0055
0.0025
0.0065
0.0115
0.0125
0.016
0.0265
0.034
0.044
0.057
0.072
0.088
0.104
0.116
0.127
0.141
0.1565
0.1705
0.1855
0.2005
0.213
0.2275
0.2505
0.269
0.2875
0.3075
0.317
0.332
0.337
0.3525
0.376
0.3785
0.383
0.375
0.354
0.328
0.302
0.264
0.226
0.22
0.197
0.1615
0.13
0.1055
0.0965
0.0745
0.0535
0.044
0.031
0.007
-0.0145
-0.03
-0.0365
-0.034
-0.0315
-0.0255
-0.0255
-0.0265
-0.0245
-0.014
-0.0005
0.0175
0.0415
0.062
0.071
0.077
0.086
0.085
0.0915
0.0925
0.09
0.098
0.102
0.0985
0.095
0.0925
0.0845
0.0825
0.081
0.0735
0.071
0.0735
0.075
0.072
0.0685
0.072
0.066
0.063
0.0645
0.0595
0.0585
0.0605
0.061
0.0575
0.055
0.058
0.0585
0.0565
0.0585
0.0565
0.054
0.054
0.0535
0.053
0.0505
0.05
0.0485
0.0495
0.0485
0.048
0.0535
0.052
0.053
0.0575
0.0515
0.053
0.057
0.0525
0.0485
0.0485
0.055
0.057
0.058
0.058
0.0535
0.057
0.058
0.0565
0.0585
0.062
0.067
0.066
0.061
0.063
0.0635
0.061
0.066
0.0635
0.06
0.059
0.0605
0.0655
0.067
0.069
0.067
0.067
0.0715
0.0695
0.068
0.0685
0.067
0.0685
0.068
0.0695
0.0745
0.074
0.0795
0.078
0.072
0.0775
0.077
0.081
0.0805
0.0765
0.081
0.0815
0.0755
0.068
0.0755
0.0765
0.077
0.0815
0.078
0.081
0.082
0.0795
0.0785
0.0805
0.084
0.0795
0.0795
0.0835
0.0865
0.093
0.0975
0.0965
0.0945
0.091
0.0925
0.099
0.104
0.1075
0.1065
0.108
0.11
0.1065
0.108
0.114
0.1125
0.112
0.115
0.1135
0.1105
0.111
0.115
0.1195
0.1215
0.122
0.1255
0.1315
0.141
0.149
0.1485
0.1435
0.142
0.1495
0.146
0.153
0.1665
0.162
0.1615
0.16
0.159
0.1625
0.165
0.1715
0.1765
0.1705
0.1675
0.171
0.1745
0.1825
0.1875
0.188
0.1845
0.185
0.193
0.192
0.188
0.1945
0.1985
0.198
0.201
0.2035
0.2045
0.2005
0.2005
0.2085
0.211
0.2115
0.2125
0.215
0.2145
0.212
0.2145
0.2175
0.22
0.2225
0.222
0.2275
0.2285
0.228
0.2335
0.2325
0.231
0.234
0.235
0.2285
0.2305
0.2315
0.2295
0.2325
0.235
0.2385
0.236
0.2335
0.235
0.2305
0.224
0.2215
0.219
0.2135
0.2135
0.2125
0.207
0.207
0.207
0.201
0.193
0.1935
0.191
0.179
0.1765
0.1745
0.1695
0.1655
0.1575
0.1505
0.1425
0.1375
0.141
0.144
0.1425
0.1315
0.124
0.122
0.1145
0.1105
0.1035
0.103
0.1055
0.0945
0.0915
0.091
0.083
0.0835
0.0855
0.078
0.071
0.069
0.0725
0.0765
0.076
0.0745
0.069
0.066
0.064
0.0585
0.054
0.0485
0.0475
0.0465
0.043
0.0425
0.046
0.0495
0.0435
0.04
0.0435
0.042
0.0405
0.0395
0.0355
0.031
0.036
0.045
0.041
0.0355
0.0335
0.0385
0.0355
0.029
0.031
0.0295
0.0305
0.0315
0.032
0.036
0.036
0.032
0.0285
0.027
0.026
0.0265
0.032
0.0385
0.0375
0.031
0.0295
0.032
0.0315
0.0275
0.03
0.025
0.0155
0.0235
0.027
0.0265
0.026
0.0235
0.0235
0.024
0.03
0.033
0.032
0.0325
0.0285
0.028
0.0295
0.031
0.034
0.03
0.031
0.033
0.027
0.0255
0.029
0.0275
0.0285
0.0295
0.0285
0.03
0.0305
0.033
0.029
0.0235
0.025
0.03
0.028
0.0265
0.029
0.029
0.024
0.019
0.0205
0.0265
0.026
0.0305
0.033
0.0305
0.0315
0.028
0.0285
0.0305
0.031
0.0265
0.0285
0.033
0.0305
0.034
0.037
0.0425
0.0445
0.039
0.033
0.03
0.0335
0.032
0.0335
0.04
0.04
0.0415
0.0485
0.0475
0.0395
0.0405
0.0365
0.0335
0.0375
0.031
0.028
0.0315
0.037
0.036
0.032
0.036
0.037
0.0375
0.035
0.0325
0.0285
0.029
0.0345
0.03
0.0305
0.028
0.0275
0.033
0.0305
0.034
0.037
0.034
0.0385
0.037
0.0265
0.029
0.0315
0.031
0.0365
0.036
0.03
0.03
0.035
0.033
0.033
0.031
0.0315
0.036
0.034
0.042
0.0425
0.0365
0.039
0.044
0.0405
0.037
0.041
0.0435
0.047
0.0455
0.042
0.0425
0.043
0.0405
0.041
0.0415
0.0395
0.0415
0.041
0.037
0.0365
0.0365
0.035
0.035
0.0365
0.0385
0.0345
0.033
0.0315
0.034
0.041
0.04
0.0365
0.033
0.038
0.044
0.049
0.05
0.046
0.0445
0.0415
0.0405
0.038
0.0305
0.0335
0.034
0.0325
0.0335
0.0325
0.0345
0.035
0.034
0.036
0.0375
0.0445
0.0505
0.0515
0.05
0.046
0.043
0.0425
0.0455
0.0465
0.0455
0.0455
0.046
0.041
0.0385
0.037
0.0335
0.0385
0.036
0.0365
0.044
0.0395
0.035
0.033
0.0335
0.038
0.0405
0.0415
0.0345
0.035
0.0395
0.0365
0.036
0.032
0.03
0.0325
0.0315
0.0295
0.0295
0.035
0.0395
0.041
0.039
0.036
0.035
0.028
0.0335
0.034
0.03
0.042
0.04
0.035
0.0345
0.038
0.0425
0.0395
0.0405
0.039
0.036
0.037
0.034
0.03
0.0295
0.0315
0.0345
0.032
0.033
0.036
0.0345
0.0315
0.039
0.0435
0.035
0.031
0.032
0.035
0.0385
0.04
0.04
0.0375
0.0385
0.0415
0.04
0.038
0.0405
0.0395
0.0415
0.0445
0.0375
0.035
0.0395
0.0455
0.047
0.0435
0.043
0.045
0.048
0.0485
0.0465
0.047
0.0465
0.0465
0.0465
0.047
0.0455
0.0425
0.04
0.0405
0.039
0.0395
0.0425
0.038
0.036
0.036
0.042
0.0505
0.045
0.043
0.043
0.04
0.04
0.044
0.049
0.049
0.0545
0.0565
0.0575
0.0645
0.0635
0.066
0.068
0.067
0.0605
0.056
0.054
0.0515
0.0585
0.0535
0.056
0.0685
0.0655
0.058
0.054
0.0485
0.0465
0.0505
0.056
0.068
0.0745
0.074
0.074
0.077
0.077
0.071
0.0745
0.0765
0.0735
0.0745
0.0725
0.072
0.0735
0.0715
0.067
0.059
0.0535
0.0505
0.0465
0.038
0.0325
0.033
0.033
0.0345
0.0375
0.035
0.0335
0.029
0.0225
0.023
0.018
0.016
0.0155
0.0185
0.0235
0.0185
0.0195
0.0195
0.019
0.015
0.0125
0.016
0.013
0.0125
0.017
0.0235
0.0225
0.02
0.017
0.017
0.022
0.023
0.0255
0.027
0.0265
0.026
0.0275
0.028
0.023
0.023
0.0235
0.025
0.0265
0.025
0.0235
0.0185
0.017
0.019
0.021
0.022
0.0225
0.0205
0.018
0.019
0.0145
0.016
0.0205
0.0165
0.02
0.022
0.019
0.019
0.016
0.011
0.007
0.011
0.013
0.012
0.013
0.0125
0.013
0.016
0.016
0.01
0.0095
0.009
0.0085
0.005
0.0045
0.0085
0.008
0.0135
0.0195
0.0255
0.0345
0.042
0.053
0.0645
0.082
0.101
0.119
0.1315
0.144
0.1625
0.173
0.1835
0.1965
0.211
0.2275
0.2465
0.27
0.298
0.322
0.3345
0.351
0.3625
0.3775
0.397
0.395
0.3905
0.375
0.3555
0.343
0.317
0.276
0.245
0.238
0.219
0.186
0.158
0.132
0.106
0.079
0.0605
0.0425
0.021
0.003
-0.013
-0.0285
-0.0255
-0.023
-0.028
-0.025
-0.019
-0.009
-0.005
0.0095
0.0305
0.047
0.063
0.074
0.085
0.0945
0.104
0.109
0.1045
0.103
0.106
0.107
0.1065
0.105
0.103
0.0955
0.0885
0.085
0.082
0.081
0.074
0.072
0.072
0.076
0.079
0.076
0.0755
0.071
0.0715
0.0695
0.066
0.0635
0.0595
0.0585
0.0595
0.062
0.0595
0.057
0.054
0.0545
0.0555
0.0515
0.05
0.0525
0.06
0.061
0.0605
0.0585
0.0605
0.0605
0.057
0.065
0.066
0.064
0.0605
0.059
0.064
0.063
0.0635
0.065
0.064
0.0595
0.0605
0.064
0.062
0.062
0.063
0.064
0.064
0.06
0.062
0.067
0.0645
0.062
0.064
0.0705
0.0745
0.073
0.072
0.07
0.0695
0.0735
0.071
0.0685
0.071
0.0745
0.078
0.0725
0.0655
0.07
0.0745
0.0735
0.076
0.077
0.077
0.078
0.077
0.079
0.082
0.081
0.081
0.0805
0.074
0.075
0.0775
0.075
0.079
0.0815
0.079
0.079
0.0775
0.076
0.0755
0.0735
0.0735
0.074
0.0745
0.0765
0.078
0.0775
0.0805
0.0845
0.0845
0.083
0.087
0.0925
0.0955
0.0945
0.0945
0.0945
0.095
0.098
0.098
0.099
0.1
0.0955
0.093
0.0945
0.1
0.102
0.1025
0.107
0.1055
0.1065
0.1125
0.1155
0.117
0.12
0.1215
0.1235
0.124
0.1255
0.127
0.127
0.133
0.1305
0.1235
0.13
0.1325
0.136
0.14
0.144
0.151
0.1535
0.156
0.158
0.16
0.157
0.1595
0.165
0.1655
0.168
0.1705
0.174
0.1755
0.1785
0.1815
0.185
0.1905
0.189
0.187
0.1925
0.1965
0.1935
0.19
0.191
0.2015
0.2125
0.209
0.2065
0.212
0.211
0.212
0.214
0.213
0.215
0.217
0.2175
0.218
0.217
0.2195
0.221
0.217
0.218
0.2185
0.2175
0.218
0.2195
0.221
0.2175
0.2155
0.2135
0.2085
0.2095
0.2115
0.211
0.2105
0.2075
0.21
0.2065
0.2035
0.205
0.199
0.1965
0.2005
0.1995
0.1965
0.194
0.19
0.179
0.1745
0.176
0.1735
0.17
0.1645
0.1615
0.1585
0.1545
0.1475
0.144
0.146
0.139
0.126
0.126
0.127
0.1215
0.12
0.1125
0.1065
0.1045
0.1
0.0975
0.09
0.088
0.091
0.0845
0.079
0.0765
0.0735
0.0725
0.0685
0.063
0.059
0.0545
0.051
0.0505
0.053
0.053
0.053
0.0515
0.05
0.0505
0.0495
0.0455
0.045
0.0455
0.0455
0.047
0.047
0.0505
0.0505
0.047
0.0435
0.0405
0.043
0.0435
0.0435
0.043
0.0355
0.033
0.0325
0.0275
0.0295
0.029
0.024
0.0245
0.024
0.023
0.0225
0.022
0.0195
0.019
0.017
0.014
0.0245
0.036
0.0325
0.028
0.032
0.032
0.025
0.0225
0.025
0.0245
0.0225
0.0245
0.026
0.029
0.03
0.0265
0.026
0.027
0.0235
0.026
0.032
0.03
0.0295
0.0295
0.0285
0.028
0.024
0.019
0.018
0.021
0.0225
0.0215
0.023
0.0225
0.019
0.021
0.023
0.024
0.0255
0.027
0.0305
0.0275
0.026
0.023
0.025
0.0235
0.016
0.021
0.0235
0.0235
0.0255
0.024
0.025
0.0235
0.025
0.0275
0.028
0.0255
0.023
0.0235
0.0195
0.021
0.0205
0.019
0.018
0.02
0.027
0.024
0.0255
0.029
0.025
0.0225
0.023
0.0235
0.025
0.0245
0.0225
0.0255
0.0265
0.021
0.02
0.023
0.026
0.028
0.033
0.0405
0.04
0.0325
0.0285
0.0315
0.0325
0.031
0.0285
0.03
0.032
0.031
0.0305
0.032
0.0295
0.024
0.0275
0.0315
0.0335
0.033
0.03
0.028
0.0285
0.0275
0.0265
0.0275
0.0255
0.027
0.033
0.0345
0.034
0.031
0.033
0.037
0.036
0.0365
0.0365
0.0365
0.0355
0.0365
0.041
0.0395
0.0345
0.033
0.034
0.0365
0.032
0.0295
0.0385
0.0375
0.036
0.036
0.0335
0.0335
0.0315
0.033
0.0325
0.0305
0.0315
0.0325
0.0345
0.032
0.0315
0.035
0.0355
0.0325
0.028
0.0285
0.0305
0.025
0.023
0.026
0.0255
0.0285
0.0285
0.0255
0.026
0.026
0.0255
0.0265
0.025
0.023
0.023
0.024
0.0285
0.0305
0.0275
0.0225
0.0275
0.036
0.0355
0.0295
0.03
0.035
0.031
0.029
0.0295
0.031
0.034
0.0305
0.0295
0.0335
0.0325
0.028
0.0295
0.03
0.0315
0.034
0.031
0.029
0.0265
0.028
0.029
0.022
0.0215
0.0265
0.0265
0.0205
0.0185
0.02
0.019
0.0195
0.0195
0.0195
0.0225
0.022
0.0265
0.0325
0.0345
0.033
0.0255
0.0245
0.0265
0.0285
0.0275
0.0225
0.0225
0.02
0.0195
0.022
0.017
0.017
0.027
0.0285
0.023
0.0235
0.026
0.026
0.0265
0.025
0.0245
0.0235
0.02
0.0225
0.0235
0.023
0.0215
0.0195
0.0175
0.0185
0.0235
0.021
0.021
0.0195
0.016
0.02
0.018
0.016
0.016
0.016
0.015
0.014
0.015
0.012
0.016
0.0195
0.0195
0.0255
0.026
0.0225
0.0235
0.024
0.0205
0.0185
0.0215
0.0265
0.026
0.026
0.025
0.025
0.027
0.0215
0.0215
0.027
0.0245
0.0195
0.02
0.026
0.026
0.02
0.019
0.02
0.0235
0.0255
0.0215
0.021
0.0225
0.023
0.0235
0.0265
0.0285
0.0225
0.021
0.0245
0.0215
0.019
0.0195
0.019
0.022
0.0225
0.0225
0.02
0.015
0.0175
0.016
0.0165
0.0175
0.015
0.015
0.013
0.0125
0.0125
0.015
0.019
0.0255
0.024
0.0215
0.031
0.0335
0.033
0.0315
0.03
0.029
0.024
0.025
0.022
0.019
0.0195
0.0185
0.0185
0.021
0.023
0.0195
0.0185
0.0195
0.017
0.0155
0.012
0.0095
0.015
0.019
0.024
0.031
0.0335
0.0305
0.0245
0.0225
0.0235
0.022
0.0195
0.018
0.019
0.0195
0.0195
0.022
0.022
0.0175
0.0145
0.0155
0.0185
0.0195
0.0195
0.021
0.0205
0.0185
0.019
0.021
0.0205
0.018
0.0165
0.0155
0.02
0.0205
0.017
0.0215
0.022
0.0185
0.021
0.0225
0.0225
0.023
0.0235
0.025
0.026
0.0205
0.021
0.024
0.021
0.021
0.0175
0.0175
0.022
0.023
0.0255
0.029
0.0305
0.033
0.032
0.0295
0.032
0.0325
0.035
0.037
0.033
0.034
0.038
0.039
0.041
0.039
0.031
0.031
0.039
0.039
0.0355
0.0365
0.0365
0.037
0.0385
0.0405
0.04
0.0395
0.035
0.0305
0.033
0.033
0.0355
0.0385
0.0405
0.043
0.0455
0.046
0.0465
0.049
0.048
0.049
0.0555
0.0595
0.0545
0.053
0.0575
0.057
0.06
0.0605
0.0585
0.061
0.059
0.0585
0.058
0.0575
0.0615
0.068
0.0715
0.0735
0.08
0.0805
0.08
0.0855
0.0885
0.08
0.073
0.0735
0.0695
0.064
0.064
0.062
0.0555
0.0495
0.045
0.044
0.039
0.0375
0.036
0.029
0.0285
0.0255
0.0235
0.0275
0.029
0.025
0.0195
0.0125
0.0015
-0.0005
0.007
0.013
0.0165
0.014
0.0095
0.0105
0.015
0.0155
0.0195
0.0255
0.022
0.0215
0.019
0.0155
0.0125
0.0065
0.013
0.019
0.017
0.0185
0.018
0.016
0.0135
0.013
0.0135
0.011
0.0085
0.008
0.011
0.009
0.0085
0.0095
0.009
0.011
0.011
0.0105
0.0085
0.0105
0.011
0.008
0.008
0.0105
0.0175
0.019
0.0145
0.0135
0.0125
0.013
0.0125
0.0065
0.0075
0.012
0.013
0.0105
0.0085
0.0105
0.012
0.0075
0.0055
0.007
0.008
0.005
0.0025
0.0
-0.0005
0.0
-0.004
0.0
0.0055
0.007
0.0125
0.0135
0.0205
0.0295
0.0405
0.0545
0.066
0.085
0.1005
0.116
0.136
0.15
0.162
0.1715
0.1885
0.197
0.2065
0.2305
0.253
0.278
0.3025
0.332
0.352
0.3675
0.3745
0.3875
0.4085
0.4
0.404
0.3965
0.3715
0.3585
0.3315
0.297
0.276
0.2675
0.2485
0.218
0.185
0.1615
0.1355
0.1045
0.0855
0.0665
0.048
0.0245
0.0005
-0.01
-0.0125
-0.0175
-0.022
-0.018
-0.011
-0.008
0.0005
0.02
0.031
0.047
0.066
0.0795
0.09
0.0975
0.0995
0.0995
0.1045
0.1045
0.1085
0.112
0.1115
0.106
0.102
0.104
0.0975
0.094
0.091
0.0915
0.088
0.0805
0.078
0.0715
0.07
0.0705
0.072
0.0745
0.072
0.069
0.0655
0.063
0.062
0.0615
0.0575
0.0565
0.0565
0.0565
0.061
0.061
0.059
0.057
0.057
0.057
0.056
0.0555
0.0605
0.0645
0.0635
0.059
0.061
0.065
0.061
0.061
0.0605
0.0605
0.0605
0.0605
0.0655
0.0675
0.064
0.0645
0.067
0.07
0.0725
0.0745
0.072
0.067
0.066
0.0685
0.072
0.069
0.066
0.068
0.0695
0.075
0.0755
0.0715
0.071
0.071
0.073
0.0745
0.074
0.0725
0.071
0.0705
0.0675
0.0695
0.073
0.0745
0.071
0.0705
0.073
0.07
0.07
0.0715
0.0725
0.072
0.0795
0.0885
0.0905
0.086
0.081
0.083
0.081
0.084
0.086
0.084
0.0845
0.0835
0.084
0.085
0.0855
0.085
0.0875
0.089
0.087
0.0895
0.0885
0.088
0.092
0.0895
0.087
0.089
0.088
0.0885
0.088
0.088
0.088
0.088
0.093
0.098
0.1005
0.1045
0.108
0.11
0.1065
0.103
0.106
0.1045
0.106
0.109
0.1115
0.118
0.1265
0.129
0.1255
0.1255
0.1225
0.1225
0.1285
0.1325
0.135
0.139
0.1425
0.1395
0.14
0.147
0.1475
0.146
0.1515
0.156
0.159
0.159
0.1605
0.1665
0.1665
0.1685
0.1705
0.173
0.1745
0.176
0.18
0.18
0.1875
0.1935
0.1915
0.1945
0.199
0.1965
0.198
0.2005
0.202
0.2075
0.2105
0.2135
0.2125
0.2105
0.213
0.218
0.2215
0.2175
0.217
0.2185
0.2235
0.2325
0.232
0.231
0.2305
0.228
0.2315
0.232
0.229
0.226
0.2295
0.2295
0.228
0.233
0.23
0.227
0.2245
0.2255
0.2295
0.23
0.231
0.2315
0.2285
0.2255
0.2275
0.2285
0.2245
0.221
0.222
0.219
0.2175
0.2155
0.2095
0.2075
0.207
0.2035
0.196
0.1895
0.188
0.186
0.184
0.181
0.1715
0.1665
0.1625
0.159
0.1595
0.1575
0.1595
0.158
0.1515
0.1435
0.137
0.132
0.1335
0.1305
0.1225
0.1195
0.109
0.1075
0.107
0.102
0.096
0.092
0.088
0.088
0.0905
0.082
0.079
0.075
0.07
0.0695
0.066
0.064
0.0625
0.0605
0.059
0.0585
0.0545
0.051
0.0495
0.0505
0.05
0.053
0.052
0.052
0.0565
0.0525
0.05
0.0485
0.0455
0.0435
0.042
0.0415
0.04
0.044
0.047
0.0475
0.048
0.0445
0.0395
0.0375
0.041
0.0425
0.036
0.034
0.037
0.032
0.029
0.03
0.032
0.036
0.037
0.039
0.042
0.0425
0.0395
0.0365
0.037
0.0415
0.0435
0.041
0.037
0.0395
0.044
0.0405
0.0365
0.0325
0.0335
0.0355
0.0335
0.0355
0.034
0.0325
0.038
0.041
0.0405
0.038
0.0395
0.04
0.037
0.037
0.037
0.0375
0.043
0.043
0.0385
0.0365
0.037
0.038
0.036
0.0375
0.037
0.0365
0.0395
0.0405
0.04
0.0375
0.036
0.037
0.034
0.035
0.0385
0.0365
0.032
0.0295
0.03
0.0305
0.0315
0.0335
0.037
0.0415
0.0445
0.0405
0.0375
0.0405
0.04
0.0415
0.043
0.043
0.047
0.046
0.0445
0.043
0.046
0.045
0.0435
0.045
0.0425
0.042
0.04
0.0405
0.0415
0.042
0.048
0.0505
0.0485
0.045
0.041
0.0395
0.0365
0.0415
0.0535
0.0585
0.053
0.0495
0.0535
0.0525
0.053
0.054
0.0555
0.055
0.05
0.05
0.051
0.05
0.049
0.051
0.051
0.0505
0.0495
0.046
0.048
0.0465
0.0425
0.0445
0.0445
0.0455
0.0445
0.046
0.0505
0.0475
0.043
0.046
0.0455
0.0435
0.0495
0.049
0.044
0.0435
0.045
0.047
0.0485
0.0475
0.0465
0.047
0.0475
0.0465
0.0465
0.0465
0.043
0.0415
0.0395
0.0375
0.0365
0.0355
0.0355
0.0375
0.042
0.042
0.0385
0.0365
0.036
0.0365
0.039
0.0405
0.0425
0.044
0.041
0.037
0.0415
0.0465
0.047
0.0475
0.04
0.0385
0.043
0.038
0.039
0.04
0.0415
0.0425
0.04
0.0455
0.0505
0.048
0.0435
0.04
0.0365
0.0345
0.035
0.0335
0.0325
0.0375
0.043
0.0385
0.033
0.035
0.034
0.036
0.0365
0.039
0.04
0.036
0.035
0.0345
0.0355
0.0345
0.0335
0.0325
0.037
0.0425
0.0405
0.039
0.037
0.039
0.04
0.0405
0.04
0.0405
0.0445
0.039
0.0355
0.034
0.0355
0.0385
0.0355
0.0355
0.039
0.035
0.0305
0.0325
0.0345
0.043
0.0405
0.033
0.0345
0.0315
0.0295
0.0295
0.03
0.0305
0.03
0.0325
0.035
0.0335
0.03
0.032
0.0335
0.0325
0.0315
0.032
0.0325
0.03
0.0315
0.0335
0.033
0.0295
0.0305
0.0385
0.0365
0.0375
0.041
0.0395
0.04
0.0355
0.0305
0.034
0.0355
0.0335
0.038
0.0405
0.0385
0.035
0.03
0.0305
0.0345
0.0355
0.0335
0.033
0.0365
0.035
0.031
0.035
0.038
0.036
0.034
0.033
0.0305
0.0295
0.027
0.026
0.0255
0.0235
0.0255
0.024
0.024
0.0275
0.0325
0.031
0.0275
0.031
0.036
0.0345
0.0275
0.026
0.026
0.026
0.0265
0.026
0.029
0.03
0.0295
0.0295
0.0295
0.034
0.034
0.03
0.028
0.027
0.028
0.0315
0.0325
0.0295
0.0285
0.0275
0.025
0.0205
0.02
0.022
0.0245
0.0255
0.0245
0.025
0.0235
0.023
0.023
0.021
0.021
0.02
0.0195
0.019
0.021
0.0185
0.0125
0.0165
0.0235
0.023
0.019
0.0235
0.0265
0.023
0.024
0.026
0.0245
0.0255
0.0275
0.0295
0.03
0.0295
0.03
0.0295
0.0295
0.027
0.023
0.0235
0.025
0.0215
0.0195
0.024
0.0285
0.0295
0.031
0.0325
0.0335
0.032
0.027
0.025
0.0255
0.028
0.03
0.0315
0.029
0.025
0.0265
0.026
0.021
0.019
0.0215
0.0225
0.0235
0.021
0.0165
0.0165
0.019
0.0255
0.032
0.0335
0.0315
0.027
0.0265
0.0285
0.028
0.029
0.029
0.0275
0.03
0.031
0.0305
0.0295
0.0275
0.0295
0.03
0.0275
0.027
0.0285
0.0295
0.0315
0.036
0.0345
0.0305
0.03
0.0295
0.031
0.0305
0.0265
0.0265
0.0265
0.0245
0.022
0.02
0.02
0.032
0.04
0.039
0.0415
0.0375
0.033
0.037
0.0345
0.0315
0.0335
0.0315
0.03
0.031
0.0295
0.027
0.025
0.0275
0.0315
0.033
0.035
0.0345
0.032
0.03
0.031
0.039
0.0425
0.0445
0.0435
0.039
0.041
0.045
0.0455
0.043
0.0445
0.047
0.0475
0.049
0.052
0.054
0.053
0.0495
0.046
0.048
0.0485
0.0515
0.0575
0.0525
0.047
0.0485
0.0485
0.0455
0.0435
0.0475
0.0495
0.0465
0.0485
0.0515
0.052
0.0495
0.0505
0.051
0.0535
0.063
0.0685
0.0755
0.0755
0.0755
0.0805
0.083
0.084
0.0815
0.077
0.076
0.0785
0.076
0.0775
0.0805
0.0805
0.082
0.079
0.0785
0.075
0.077
0.0855
0.0895
0.0925
0.0915
0.0915
0.091
0.0935
0.093
0.0905
0.0905
0.09
0.0835
0.079
0.0805
0.077
0.071
0.064
0.062
0.055
0.0505
0.0515
0.044
0.039
0.034
0.0325
0.0325
0.032
0.034
0.0355
0.0325
0.0245
0.0235
0.0225
0.0255
0.0305
0.0235
0.021
0.0235
0.023
0.024
0.023
0.0245
0.0295
0.0285
0.026
0.024
0.0255
0.026
0.023
0.0245
0.027
0.0285
0.0255
0.0225
0.023
0.0215
0.0225
0.0245
0.028
0.03
0.03
0.0295
0.027
0.0255
0.0285
0.034
0.031
0.0255
0.0285
0.0295
0.0295
0.037
0.0355
0.0305
0.0285
0.0265
0.0265
0.028
0.029
0.0275
0.029
0.0285
0.0265
0.0215
0.0225
0.024
0.0205
0.022
0.0225
0.0205
0.0145
0.009
0.0075
0.0065
0.007
0.0065
0.005
0.0115
0.022
0.0255
0.026
0.0275
0.0295
0.0355
0.045
0.058
0.074
0.093
0.112
0.1285
0.1475
0.16
0.171
0.1875
0.2015
0.2075
0.222
0.247
0.2675
0.284
0.308
0.341
0.3595
0.3775
0.3915
0.408
0.4225
0.4175
0.4185
0.409
0.3895
0.3725
0.3475
0.312
0.2895
0.28
0.258
0.229
0.19
0.1635
0.1405
0.1165
0.0965
0.068
0.046
0.023
-0.001
-0.016
-0.0185
-0.0215
-0.027
-0.0215
-0.0125
-0.0005
0.013
0.0205
0.0385
0.0565
0.0735
0.0925
0.102
0.1095
0.1125
0.1115
0.1135
0.1165
0.119
0.118
0.115
0.114
0.105
0.095
0.093
0.09
0.0855
0.0855
0.087
0.0805
0.077
0.078
0.075
0.0715
0.0695
0.07
0.0695
0.0665
0.064
0.0625
0.064
0.0635
0.067
0.0705
0.066
0.0615
0.063
0.0645
0.061
0.061
0.0605
0.0615
0.0685
0.0675
0.066
0.0675
0.0615
0.061
0.0575
0.058
0.0635
0.0625
0.0655
0.0655
0.0595
0.06
0.063
0.0745
0.092
0.082
0.0685
0.0675
0.067
0.068
0.068
0.0695
0.073
0.0715
0.0675
0.071
0.074
0.074
0.0775
0.0835
0.0845
0.0795
0.077
0.079
0.0775
0.078
0.081
0.081
0.0805
0.0815
0.0845
0.083
0.0805
0.083
0.085
0.086
0.0875
0.085
0.083
0.086
0.0885
0.0855
0.0845
0.0865
0.085
0.0845
0.0865
0.086
0.089
0.0915
0.0875
0.091
0.0925
0.0905
0.0905
0.0935
0.0935
0.0925
0.094
0.0925
0.095
0.093
0.0935
0.0955
0.098
0.095
0.0955
0.104
0.1015
0.0975
0.099
0.099
0.0975
0.0985
0.1015
0.107
0.1095
0.105
0.1035
0.1045
0.104
0.104
0.108
0.112
0.1085
0.11
0.115
0.1135
0.1165
0.1265
0.1305
0.134
0.138
0.14
0.1465
0.1505
0.147
0.145
0.148
0.1495
0.1525
0.156
0.1575
0.1595
0.16
0.1635
0.1675
0.17
0.1705
0.1725
0.1765
0.1795
0.1825
0.185
0.1895
0.1935
0.1935
0.193
0.1955
0.1995
0.202
0.2005
0.2005
0.203
0.204
0.21
0.218
0.2185
0.2175
0.219
0.2185
0.219
0.218
0.2205
0.225
0.2255
0.228
0.2315
0.2335
0.2295
0.232
0.2355
0.2345
0.235
0.2335
0.2365
0.24
0.243
0.2395
0.24
0.2425
0.241
0.241
0.239
0.2445
0.2455
0.2485
0.2525
0.246
0.245
0.245
0.245
0.2435
0.239
0.2385
0.2355
0.232
0.2295
0.2275
0.2285
0.225
0.2195
0.2165
0.2115
0.211
0.21
0.204
0.197
0.1925
0.1885
0.184
0.183
0.176
0.168
0.167
0.1625
0.1585
0.154
0.1495
0.148
0.144
0.1375
0.1345
0.1315
0.122
0.118
0.116
0.1145
0.111
0.1085
0.1065
0.094
0.092
0.095
0.091
0.087
0.0835
0.0825
0.0775
0.08
0.0885
0.0865
0.0785
0.0725
0.069
0.067
0.067
0.0655
0.0665
0.0675
0.0675
0.0645
0.058
0.055
0.055
0.054
0.052
0.0545
0.055
0.0495
0.0515
0.0535
0.0495
0.0475
0.045
0.043
0.041
0.042
0.0445
0.0415
0.04
0.04
0.041
0.042
0.0435
0.043
0.042
0.0425
0.041
0.0405
0.0415
0.04
0.039
0.041
0.044
0.0435
0.039
0.0375
0.0405
0.0415
0.0425
0.044
0.042
0.0375
0.037
0.036
0.033
0.0335
0.034
0.0385
0.039
0.04
0.047
0.046
0.043
0.0425
0.0465
0.054
0.0505
0.047
0.0475
0.0505
0.053
0.048
0.047
0.046
0.042
0.0445
0.045
0.0455
0.0475
0.0445
0.0475
0.047
0.043
0.0435
0.0435
0.0445
0.046
0.047
0.0475
0.0475
0.0455
0.045
0.047
0.046
0.0435
0.0465
0.046
0.0445
0.045
0.043
0.0445
0.0465
0.047
0.0445
0.043
0.044
0.0455
0.0435
0.044
0.0465
0.047
0.0465
0.0435
0.045
0.045
0.0455
0.0485
0.0465
0.0435
0.044
0.041
0.0395
0.0405
0.0425
0.046
0.044
0.0435
0.046
0.05
0.048
0.048
0.055
0.0505
0.045
0.0425
0.0455
0.045
0.043
0.048
0.0475
0.049
0.051
0.0545
0.0515
0.0455
0.0495
0.049
0.0475
0.047
0.0465
0.052
0.057
0.057
0.0565
0.053
0.0495
0.0505
0.05
0.051
0.05
0.0455
0.0485
0.047
0.047
0.05
0.051
0.05
0.0485
0.053
0.0525
0.05
0.0505
0.05
0.0575
0.0615
0.0565
0.051
0.0505
0.0495
0.048
0.051
0.049
0.0475
0.048
0.0455
0.0435
0.0435
0.045
0.0475
0.044
0.043
0.0495
0.0535
0.0575
0.055
0.0505
0.0525
0.0535
0.054
0.051
0.051
0.0525
0.0525
0.053
0.0485
0.0435
0.038
0.0365
0.0415
0.049
0.0485
0.0455
0.0385
0.036
0.042
0.0415
0.045
0.0475
0.046
0.0485
0.05
0.0525
0.0515
0.051
0.0505
0.049
0.0465
0.0475
0.05
0.05
0.0505
0.048
0.049
0.05
0.047
0.0465
0.0495
0.0495
0.0485
0.05
0.05
0.05
0.047
0.0445
0.0405
0.04
0.0395
0.0395
0.042
0.0435
0.0435
0.0435
0.0445
0.0455
0.043
0.04
0.043
0.0425
0.0385
0.039
0.0415
0.0425
0.0405
0.045
0.0475
0.0495
0.051
0.045
0.0435
0.0405
0.039
0.0435
0.045
0.046
0.047
0.043
0.0435
0.045
0.0435
0.043
0.0435
0.042
0.0395
0.0395
0.0365
0.0345
0.0315
0.0345
0.0395
0.0365
0.036
0.033
0.034
0.041
0.0445
0.045
0.042
0.042
0.039
0.0335
0.033
0.0305
0.032
0.0335
0.0335
0.0375
0.036
0.0395
0.0445
0.038
0.032
0.035
0.0375
0.0335
0.033
0.036
0.0375
0.037
0.035
0.0335
0.032
0.0345
0.036
0.0365
0.0325
0.0325
0.0395
0.037
0.0305
0.03
0.0285
0.025
0.029
0.031
0.034
0.043
0.0395
0.0385
0.045
0.041
0.035
0.033
0.032
0.0295
0.03
0.03
0.027
0.0255
0.0265
0.027
0.0295
0.0355
0.042
0.043
0.039
0.04
0.039
0.0365
0.0365
0.0365
0.0365
0.036
0.034
0.0355
0.037
0.0365
0.037
0.036
0.036
0.032
0.035
0.044
0.0415
0.0395
0.0395
0.04
0.041
0.0445
0.0435
0.041
0.046
0.043
0.0365
0.0365
0.0395
0.0395
0.0345
0.032
0.0325
0.032
0.032
0.0325
0.0335
0.0345
0.028
0.027
0.032
0.03
0.031
0.0305
0.0295
0.032
0.03
0.0295
0.0305
0.032
0.0325
0.0355
0.0335
0.0335
0.0355
0.0305
0.031
0.033
0.037
0.0405
0.04
0.034
0.031
0.032
0.03
0.0295
0.032
0.034
0.035
0.0385
0.0355
0.038
0.04
0.036
0.0365
0.0365
0.038
0.0365
0.034
0.0315
0.0285
0.0305
0.03
0.032
0.04
0.039
0.0345
0.0325
0.036
0.0425
0.0435
0.0415
0.034
0.036
0.0405
0.0365
0.0325
0.0305
0.0315
0.0355
0.0355
0.035
0.036
0.037
0.0385
0.038
0.0435
0.047
0.049
0.045
0.0405
0.046
0.0465
0.0445
0.043
0.044
0.0425
0.045
0.0465
0.045
0.047
0.047
0.0465
0.0465
0.053
0.058
0.0555
0.049
0.0475
0.0525
0.054
0.054
0.05
0.05
0.0525
0.056
0.0595
0.0575
0.06
0.0645
0.0705
0.0715
0.07
0.0745
0.079
0.0875
0.0965
0.094
0.092
0.087
0.0815
0.0785
0.077
0.077
0.073
0.0735
0.0735
0.077
0.083
0.086
0.089
0.0955
0.0955
0.097
0.1025
0.0955
0.0945
0.099
0.099
0.0965
0.093
0.0925
0.09
0.083
0.077
0.078
0.074
0.0625
0.054
0.0505
0.044
0.041
0.0435
0.033
0.0305
0.032
0.0255
0.0255
0.0285
0.03
0.029
0.02
0.0125
0.016
0.017
0.0155
0.021
0.0235
0.023
0.0245
0.0225
0.02
0.0195
0.0205
0.0225
0.0265
0.027
0.026
0.029
0.0235
0.019
0.0205
0.024
0.024
0.018
0.015
0.019
0.025
0.027
0.0255
0.024
0.0205
0.0195
0.0225
0.0225
0.0235
0.021
0.015
0.013
0.018
0.0195
0.019
0.0175
0.016
0.0195
0.0155
0.013
0.0115
0.0085
0.008
0.011
0.01
0.01
0.019
0.0175
0.0145
0.016
0.019
0.019
0.012
0.004
0.0025
0.0025
0.0035
0.0045
0.0
-0.0005
0.003
0.008
0.0155
0.0155
0.0145
0.0225
0.033
0.0465
0.0595
0.072
0.0925
0.1085
0.125
0.149
0.165
0.1775
0.1925
0.203
0.213
0.2315
0.254
0.28
0.297
0.3185
0.348
0.3625
0.3735
0.3845
0.4065
0.421
0.4155
0.4085
0.394
0.3765
0.356
0.3175
0.2775
0.266
0.2565
0.23
0.1905
0.1605
0.139
0.1095
0.0935
0.0745
0.0495
0.0305
0.01
-0.0185
-0.0295
-0.021
-0.0255
-0.0305
-0.0295
-0.0195
-0.011
0.002
0.023
0.044
0.061
0.0695
0.0825
0.096
0.1025
0.1065
0.1095
0.1115
0.113
0.1155
0.114
0.1105
0.106
0.1005
0.096
0.0965
0.095
0.091
0.09
0.0835
0.0805
0.079
0.0735
0.074
0.073
0.071
0.068
0.0655
0.0635
0.0595
0.063
0.062
0.06
0.057
0.054
0.0535
0.0545
0.058
0.055
0.0555
0.0545
0.059
0.063
0.055
0.053
0.0535
0.051
0.0555
0.061
0.0625
0.0615
0.058
0.0625
0.065
0.058
0.0595
0.0595
0.0545
0.053
0.053
0.06
0.0575
0.053
0.0525
0.05
0.0515
0.0545
0.058
0.0615
0.0665
0.068
0.0615
0.057
0.0615
0.0685
0.0695
0.0665
0.069
0.0705
0.0665
0.062
0.056
0.06
0.063
0.0625
0.0685
0.0665
0.065
0.064
0.065
0.068
0.07
0.071
0.0705
0.0705
0.0685
0.073
0.0745
0.07
0.0745
0.0765
0.0725
0.074
0.0775
0.076
0.0725
0.0725
0.0765
0.078
0.0775
0.0775
0.0805
0.0825
0.08
0.08
0.082
0.0835
0.0845
0.0845
0.084
0.082
0.087
0.092
0.094
0.0955
0.0955
0.0955
0.095
0.096
0.099
0.102
0.1035
0.108
0.1095
0.11
0.112
0.1115
0.112
0.1115
0.116
0.1185
0.1205
0.1245
0.1255
0.1235
0.1205
0.1225
0.1275
0.1315
0.133
0.138
0.138
0.1355
0.1395
0.1505
0.156
0.1555
0.155
0.1535
0.155
0.1565
0.1615
0.1675
0.165
0.164
0.17
0.172
0.1785
0.1845
0.1795
0.178
0.1795
0.184
0.1875
0.1895
0.1965
0.2065
0.211
0.204
0.1995
0.202
0.2065
0.2105
0.213
0.216
0.216
0.2165
0.218
0.221
0.2245
0.2205
0.2185
0.221
0.222
0.2305
0.2345
0.2325
0.232
0.2315
0.2315
0.234
0.235
0.232
0.2345
0.2435
0.242
0.241
0.2455
0.2445
0.249
0.247
0.2435
0.2455
0.242
0.2405
0.2375
0.2355
0.237
0.2355
0.2345
0.235
0.2355
0.234
0.2345
0.2335
0.2235
0.219
0.2235
0.2175
0.2085
0.2115
0.2065
0.199
0.1955
0.1895
0.1855
0.181
0.1775
0.17
0.167
0.1645
0.163
0.16
0.15
0.147
0.141
0.136
0.1335
0.1325
0.129
0.1225
0.1215
0.1125
0.103
0.1015
0.1015
0.1
0.0925
0.089
0.09
0.0885
0.084
0.0795
0.075
0.0735
0.0745
0.069
0.067
0.0675
0.063
0.062
0.065
0.059
0.052
0.0565
0.058
0.06
0.056
0.051
0.0535
0.047
0.046
0.046
0.043
0.0435
0.0385
0.041
0.0455
0.039
0.0385
0.037
0.034
0.034
0.031
0.0325
0.037
0.036
0.033
0.037
0.04
0.04
0.0395
0.0365
0.0365
0.0395
0.039
0.0355
0.033
0.036
0.0395
0.041
0.041
0.0385
0.036
0.0365
0.0355
0.031
0.0315
0.037
0.032
0.026
0.0295
0.0315
0.033
0.032
0.0295
0.03
0.0305
0.031
0.0345
0.035
0.0305
0.03
0.034
0.0365
0.032
0.031
0.035
0.035
0.0335
0.0305
0.032
0.0305
0.028
0.029
0.032
0.0375
0.034
0.033
0.038
0.041
0.039
0.039
0.0375
0.036
0.036
0.0375
0.039
0.0345
0.032
0.0285
0.023
0.0245
0.03
0.031
0.028
0.028
0.03
0.027
0.0265
0.0265
0.0235
0.0205
0.0225
0.0265
0.0195
0.0235
0.0325
0.034
0.033
0.032
0.0355
0.0355
0.043
0.046
0.039
0.0335
0.0345
0.036
0.031
0.0325
0.0335
0.033
0.0305
0.0325
0.0355
0.0355
0.033
0.0295
0.035
0.036
0.0305
0.027
0.028
0.0305
0.031
0.0305
0.0335
0.0275
0.03
0.0375
0.032
0.032
0.0345
0.0335
0.03
0.032
0.0335
0.0325
0.033
0.0335
0.031
0.028
0.0365
0.034
0.0285
0.0305
0.0325
0.033
0.029
0.0325
0.0285
0.025
0.0265
0.0275
0.0285
0.0255
0.0285
0.03
0.0295
0.03
0.031
0.0315
0.034
0.0385
0.0365
0.0345
0.0335
0.0345
0.0305
0.0295
0.034
0.027
0.024
0.0265
0.024
0.0235
0.0175
0.0205
0.03
0.032
0.0305
0.027
0.023
0.0205
0.027
0.028
0.024
0.0255
0.0255
0.0265
0.026
0.027
0.032
0.026
0.0245
0.0305
0.033
0.032
0.03
0.032
0.028
0.025
0.0235
0.0275
0.027
0.0255
0.028
0.0245
0.028
0.0265
0.0245
0.0205
0.0195
0.016
0.018
0.0265
0.02
0.0215
0.0225
0.0205
0.0265
0.0325
0.0335
0.033
0.0335
0.029
0.0255
0.027
0.0285
0.0275
0.032
0.0285
0.0275
0.031
0.0295
0.032
0.0305
0.026
0.0235
0.024
0.022
0.017
0.0215
0.021
0.0155
0.016
0.0145
0.012
0.0165
0.0225
0.024
0.022
0.0195
0.015
0.013
0.0125
0.014
0.0125
0.0095
0.014
0.015
0.018
0.018
0.0105
0.0075
0.014
0.0225
0.0235
0.0215
0.0185
0.0185
0.02
0.018
0.015
0.02
0.0235
0.019
0.013
0.0145
0.019
0.0195
0.0185
0.0165
0.0165
0.017
0.0195
0.0195
0.0165
0.012
0.0145
0.021
0.018
0.017
0.014
0.0135
0.0195
0.0255
0.0265
0.0205
0.0225
0.026
0.022
0.0215
0.0225
0.022
0.0195
0.021
0.022
0.021
0.024
0.0215
0.018
0.0175
0.018
0.016
0.017
0.023
0.0235
0.0255
0.026
0.0215
0.0195
0.02
0.022
0.028
0.0335
0.0275
0.023
0.0285
0.0265
0.0235
0.026
0.0265
0.029
0.0325
0.0245
0.02
0.027
0.0255
0.029
0.0315
0.0265
0.027
0.0265
0.022
0.0195
0.027
0.027
0.027
0.0305
0.032
0.036
0.0315
0.0275
0.03
0.0325
0.034
0.03
0.025
0.023
0.0235
0.026
0.0245
0.0235
0.0235
0.0295
0.0335
0.0275
0.026
0.027
0.027
0.0295
0.031
0.0335
0.036
0.033
0.03
0.0295
0.035
0.036
0.027
0.0265
0.0325
0.0345
0.0365
0.0365
0.033
0.035
0.0385
0.04
0.037
0.0325
0.0365
0.036
0.033
0.033
0.029
0.025
0.0335
0.043
0.0425
0.0415
0.04
0.0425
0.048
0.053
0.0535
0.055
0.0525
0.052
0.058
0.0565
0.058
0.0635
0.0665
0.0655
0.059
0.0585
0.0545
0.045
0.0425
0.0425
0.0465
0.0525
0.056
0.056
0.0605
0.0705
0.0765
0.08
0.075
0.074
0.073
0.066
0.065
0.0645
0.063
0.0595
0.0565
0.0495
0.047
0.0465
0.042
0.0405
0.0305
0.0235
0.02
0.01
0.008
0.01
0.0065
0.0085
0.008
0.0055
0.0085
0.012
0.007
-0.0005
-0.0005
-0.0025
-0.0035
-0.003
-0.001
0.0035
0.0075
0.0085
0.002
-0.0005
0.0015
0.001
0.003
0.0065
0.0055
0.0005
-0.0005
0.003
0.0055
0.001
0.0
0.0035
0.004
0.0045
0.002
0.001
0.0045
0.0035
0.002
0.001
0.003
0.004
-0.002
-0.0025
-0.001
-0.0055
-0.007
-0.005
-0.004
-0.006
-0.0095
-0.012
-0.006
0.001
0.003
0.001
-0.007
-0.009
-0.0075
-0.006
-0.0015
0.001
0.0
-0.003
-0.005
-0.0015
-0.002
-0.0055
-0.0095
-0.0125
-0.011
-0.0125
-0.0175
-0.012
-0.0115
-0.0125
-0.0045
-0.0045
-0.0005
0.002
0.008
0.0165
0.018
0.0305
0.047
0.0665
0.0835
0.104
0.126
0.1365
0.1475
0.1575
0.172
0.188
0.2045
0.2215
0.2425
0.264
0.28
0.298
0.3075
0.3235
0.3265
0.336
0.354
0.349
0.3485
0.339
0.3185
0.3055
0.285
0.2445
0.2115
0.1945
0.1755
0.149
0.113
0.0975
0.0805
0.054
0.038
0.022
0.01
-0.008
-0.0235
-0.038
-0.042
-0.0355
-0.041
-0.0385
-0.0425
-0.0435
-0.0355
-0.0275
-0.016
0.0015
0.029
0.0485
0.059
0.0705
0.0855
0.083
0.084
0.094
0.0965
0.0965
0.094
0.0945
0.0905
0.0875
0.0845
0.0775
0.0715
0.0705
0.071
0.0695
0.0605
0.054
0.061
0.0595
0.0565
0.061
0.0545
0.055
0.062
0.064
0.064
0.0545
0.047
0.043
0.047
0.055
0.054
0.054
0.052
0.0505
0.052
0.053
0.0505
0.0495
0.0555
0.052
0.05
0.0495
0.049
0.055
0.0495
0.049
0.051
0.0505
0.058
0.061
0.059
0.0585
0.0615
0.0575
0.055
0.054
0.057
0.058
0.0535
0.0605
0.065
0.0665
0.061
0.054
0.054
0.0555
0.053
0.05
0.056
0.058
0.058
0.055
0.0525
0.0555
0.058
0.0595
0.057
0.0565
0.0575
0.0565
0.058
0.0595
0.057
0.056
0.06
0.0605
0.0595
0.064
0.064
0.064
0.0705
0.07
0.067
0.0695
0.074
0.0735
0.0705
0.0725
0.072
0.0705
0.071
0.0755
0.0775
0.078
0.0805
0.08
0.078
0.0765
0.0825
0.082
0.0805
0.082
0.0755
0.076
0.085
0.0915
0.09
0.0885
0.085
0.085
0.0875
0.086
0.0895
0.0955
0.098
0.099
0.1015
0.1045
0.103
0.1015
0.1015
0.1045
0.105
0.104
0.1115
0.1185
0.1225
0.1175
0.116
0.1235
0.125
0.131
0.132
0.133
0.1395
0.1375
0.1435
0.1455
0.139
0.143
0.146
0.1495
0.1525
0.1585
0.1695
0.1675
0.164
0.1655
0.1665
0.17
0.172
0.1785
0.182
0.183
0.189
0.1905
0.189
0.1895
0.1885
0.1925
0.199
0.195
0.1945
0.1995
0.198
0.1995
0.2055
0.2085
0.2115
0.2145
0.216
0.223
0.227
0.2245
0.224
0.2245
0.2265
0.2305
0.2345
0.234
0.237
0.241
0.242
0.239
0.2345
0.2375
0.2385
0.2375
0.238
0.238
0.2385
0.239
0.2385
0.2385
0.241
0.245
0.2435
0.241
0.2415
0.2365
0.232
0.23
0.2265
0.2215
0.221
0.2225
0.224
0.216
0.2105
0.2135
0.207
0.201
0.193
0.1855
0.185
0.1845
0.1845
0.179
0.171
0.1695
0.17
0.162
0.1495
0.143
0.136
0.1315
0.134
0.1335
0.13
0.1265
0.122
0.1155
0.1095
0.106
0.1035
0.0975
0.0915
0.0875
0.085
0.083
0.079
0.0755
0.074
0.0745
0.0715
0.067
0.065
0.063
0.0645
0.06
0.057
0.0505
0.044
0.05
0.047
0.043
0.0425
0.042
0.037
0.0325
0.0325
0.031
0.0285
0.0255
0.025
0.027
0.031
0.034
0.0295
0.0245
0.024
0.024
0.0225
0.017
0.018
0.0235
0.0225
0.018
0.0235
0.026
0.019
0.0205
0.022
0.0195
0.015
0.014
0.017
0.02
0.025
0.025
0.0215
0.023
0.018
0.0175
0.02
0.02
0.0225
0.019
0.0155
0.012
0.019
0.0275
0.0295
0.0285
0.0255
0.024
0.018
0.013
0.0115
0.0175
0.0215
0.0185
0.0215
0.0225
0.024
0.0225
0.0235
0.027
0.024
0.027
0.0255
0.0275
0.028
0.025
0.0235
0.022
0.0265
0.026
0.0265
0.0215
0.018
0.0205
0.0205
0.018
0.015
0.0195
0.025
0.0225
0.0265
0.0305
0.0275
0.029
0.0295
0.033
0.035
0.0335
0.0315
0.028
0.027
0.0305
0.035
0.037
0.0335
0.0335
0.034
0.0305
0.0315
0.0285
0.028
0.0285
0.026
0.027
0.0235
0.028
0.029
0.0205
0.0215
0.026
0.027
0.021
0.018
0.018
0.016
0.017
0.0205
0.0235
0.021
0.0215
0.0195
0.023
0.028
0.0245
0.02
0.02
0.0275
0.032
0.0365
0.035
0.0325
0.033
0.0335
0.0315
0.03
0.0295
0.0265
0.026
0.0265
0.028
0.025
0.0295
0.0305
0.0265
0.0285
0.032
0.0375
0.035
0.028
0.0285
0.0295
0.03
0.0335
0.031
0.026
0.028
0.033
0.0315
0.0275
0.0275
0.03
0.0315
0.034
0.037
0.033
0.0275
0.0245
0.0235
0.027
0.026
0.0245
0.0295
0.032
0.0285
0.029
0.0305
0.023
0.021
0.0195
0.0175
0.023
0.02
0.021
0.0265
0.025
0.023
0.0245
0.0235
0.0245
0.03
0.0215
0.0225
0.0305
0.029
0.032
0.0315
0.0305
0.0295
0.0325
0.0295
0.023
0.026
0.0265
0.0275
0.0265
0.026
0.0225
0.0185
0.0235
0.026
0.028
0.0295
0.0325
0.0335
0.032
0.0315
0.0295
0.0295
0.03
0.0295
0.03
0.0315
0.0335
0.0325
0.028
0.0245
0.0255
0.029
0.03
0.03
0.029
0.025
0.026
0.0325
0.0325
0.0295
0.03
0.0275
0.028
0.0285
0.03
0.033
0.033
0.0355
0.0355
0.03
0.0335
0.035
0.0305
0.0295
0.03
0.029
0.0255
0.0235
0.023
0.0255
0.025
0.027
0.0275
0.026
0.03
0.028
0.021
0.0195
0.0235
0.0225
0.021
0.021
0.0215
0.0225
0.0235
0.0235
0.0185
0.019
0.022
0.022
0.0225
0.025
0.026
0.021
0.024
0.0265
0.022
0.0175
0.0185
0.021
0.0195
0.02
0.0175
0.013
0.0135
0.022
0.0205
0.021
0.0265
0.021
0.0215
0.024
0.0205
0.022
0.0205
0.0155
0.0145
0.0195
0.0195
0.0165
0.018
0.0145
0.0155
0.017
0.0145
0.0165
0.0135
0.012
0.01
0.018
0.027
0.02
0.022
0.023
0.0245
0.026
0.023
0.021
0.02
0.024
0.0245
0.0245
0.0255
0.027
0.032
0.03
0.024
0.0305
0.0325
0.031
0.0305
0.029
0.031
0.0355
0.037
0.0395
0.0395
0.036
0.0385
0.0405
0.0375
0.031
0.0325
0.0345
0.037
0.0405
0.0405
0.0425
0.042
0.039
0.044
0.0435
0.0415
0.046
0.048
0.0555
0.054
0.0485
0.054
0.0615
0.0615
0.054
0.053
0.051
0.05
0.0525
0.0535
0.053
0.056
0.0535
0.048
0.049
0.048
0.051
0.054
0.0535
0.0545
0.059
0.069
0.0745
0.0685
0.071
0.0765
0.081
0.0815
0.0785
0.0795
0.0765
0.0725
0.064
0.059
0.0565
0.057
0.0545
0.0445
0.038
0.032
0.0285
0.0265
0.027
0.0265
0.028
0.0305
0.0245
0.019
0.0155
0.014
0.0155
0.0155
0.02
0.0185
0.0155
0.0205
0.0235
0.027
0.0235
0.0165
0.0185
0.02
0.0195
0.019
0.015
0.016
0.0165
0.0095
0.0095
0.012
0.0135
0.0165
0.014
0.0145
0.0235
0.03
0.0335
0.03
0.025
0.022
0.0245
0.0195
0.0125
0.0225
0.0235
0.0185
0.0225
0.025
0.016
0.007
0.008
0.01
0.0145
0.0135
0.014
0.0145
0.0195
0.0255
0.0255
0.024
0.0195
0.019
0.021
0.0165
0.012
0.0155
0.014
0.0085
0.0115
0.0125
0.0085
0.007
0.0095
0.0055
-0.0005
0.0045
0.001
-0.0005
0.003
0.006
0.0145
0.016
0.019
0.029
0.0355
