ECG
-0.474
-0.444
-0.4555
-0.462
-0.459
-0.4685
-0.48
-0.4825
-0.474
-0.4755
-0.4825
-0.49
-0.5075
-0.512
-0.5
-0.497
-0.5055
-0.507
-0.505
-0.517
-0.526
-0.5255
-0.531
-0.5185
-0.503
-0.507
-0.514
-0.5235
-0.5285
-0.5255
-0.522
-0.5185
-0.5305
-0.54
-0.5345
-0.541
-0.554
-0.5765
-0.582
-0.555
-0.5335
-0.534
-0.544
-0.556
-0.568
-0.5485
-0.5235
-0.5175
-0.523
-0.5455
-0.554
-0.5525
-0.556
-0.5575
-0.554
-0.5485
-0.5545
-0.554
-0.555
-0.56
-0.5555
-0.557
-0.5575
-0.555
-0.5555
-0.557
-0.5495
-0.5505
-0.5585
-0.5645
-0.5755
-0.576
-0.5615
-0.556
-0.5575
-0.5595
-0.5625
-0.5605
-0.5625
-0.565
-0.565
-0.5595
-0.553
-0.548
-0.557
-0.558
-0.55
-0.561
-0.5625
-0.5595
-0.56
-0.5675
-0.5745
-0.576
-0.5655
-0.557
-0.566
-0.5665
-0.567
-0.568
-0.568
-0.564
-0.554
-0.5485
-0.557
-0.5645
-0.5595
-0.5565
-0.5565
-0.561
-0.5555
-0.562
-0.581
-0.5865
-0.587
-0.585
-0.5465
-0.4755
-0.493
-0.5345
-0.528
-0.5395
-0.558
-0.5655
-0.5735
-0.5685
-0.5505
-0.537
-0.5285
-0.5165
-0.502
-0.525
-0.549
-0.563
-0.5735
-0.5725
-0.5735
-0.5585
-0.556
-0.559
-0.56
-0.561
-0.5605
-0.553
-0.549
-0.5445
-0.5345
-0.542
-0.539
-0.5365
-0.539
-0.545
-0.5465
-0.5445
-0.544
-0.5395
-0.5405
-0.5335
-0.5425
-0.554
-0.5425
-0.5325
-0.5475
-0.555
-0.551
-0.55
-0.5345
-0.5335
-0.5365
-0.5445
-0.5515
-0.5555
-0.567
-0.581
-0.583
-0.5695
-0.5525
-0.5465
-0.553
-0.5305
-0.5115
-0.5035
-0.5125
-0.5175
-0.4895
-0.473
-0.478
-0.4935
-0.4955
-0.4925
-0.4945
-0.502
-0.505
-0.503
-0.5005
-0.4965
-0.5045
-0.499
-0.4935
-0.498
-0.498
-0.5055
-0.514
-0.504
-0.495
-0.499
-0.5025
-0.5125
-0.511
-0.5025
-0.467
-0.4445
-0.455
-0.4395
-0.4405
-0.4575
-0.4595
-0.4535
-0.4555
-0.4675
-0.471
-0.4615
-0.4405
-0.428
-0.4345
-0.4405
-0.4415
-0.4585
-0.4765
-0.4755
-0.488
-0.498
-0.475
-0.453
-0.4445
-0.4415
-0.45
-0.4565
-0.4555
-0.446
-0.4435
-0.453
-0.4555
-0.4475
-0.4375
-0.4365
-0.4335
-0.437
-0.4445
-0.444
-0.456
-0.478
-0.502
-0.508
-0.493
-0.5015
-0.514
-0.5065
-0.508
-0.528
-0.53
-0.5175
-0.527
-0.539
-0.545
-0.547
-0.5385
-0.54
-0.55
-0.554
-0.553
-0.558
-0.561
-0.5665
-0.564
-0.547
-0.55
-0.559
-0.564
-0.5415
-0.528
-0.542
-0.541
-0.553
-0.5645
-0.5645
-0.5545
-0.551
-0.558
-0.5525
-0.549
-0.557
-0.5585
-0.5645
-0.5645
-0.5595
-0.571
-0.5725
-0.57
-0.571
-0.566
-0.5635
-0.5635
-0.5605
-0.565
-0.566
-0.566
-0.578
-0.575
-0.5485
-0.5375
-0.548
-0.548
-0.5755
-0.592
-0.596
-0.6005
-0.569
-0.5405
-0.5375
-0.556
-0.5455
-0.5335
-0.554
-0.578
-0.5755
-0.574
-0.608
-0.6295
-0.6315
-0.634
-0.6435
-0.6665
-0.7025
-0.7175
-0.7265
-0.756
-0.772
-0.7895
-0.8125
-0.822
-0.822
-0.8255
-0.828
-0.8455
-0.871
-0.8725
-0.871
-0.8495
-0.82
-0.809
-0.778
-0.7155
-0.669
-0.6385
-0.5995
-0.571
-0.539
-0.48
-0.4125
-0.3545
-0.316
-0.2615
-0.179
-0.114
-0.069
-0.029
0.006
0.023
0.042
0.0525
0.0615
0.07
0.0505
0.0525
0.067
0.037
-0.003
-0.0365
-0.075
-0.1085
-0.1355
-0.153
-0.172
-0.198
-0.214
-0.2055
-0.206
-0.2345
-0.2725
-0.299
-0.3195
-0.354
-0.3955
-0.4335
-0.4575
-0.4745
-0.5045
-0.5445
-0.5655
-0.5695
-0.592
-0.6145
-0.6225
-0.653
-0.6735
-0.6755
-0.696
-0.7045
-0.7145
-0.726
-0.7295
-0.747
-0.778
-0.8095
-0.8315
-0.857
-0.869
-0.881
-0.8935
-0.896
-0.899
-0.9135
-0.9375
-0.9465
-0.9635
-0.9775
-0.97
-0.9485
-0.951
-0.9795
-1.001
-1.0195
-1.012
-1.0045
-1.005
-1.0015
-1.0105
-1.012
-1.0005
-0.9955
-0.998
-0.9835
-0.956
-0.949
-0.9325
-0.9095
-0.9015
-0.88
-0.8585
-0.8395
-0.837
-0.8245
-0.797
-0.7805
-0.7695
-0.7625
-0.7475
-0.736
-0.716
-0.703
-0.698
-0.6945
-0.6865
-0.672
-0.6605
-0.6385
-0.6275
-0.6205
-0.6155
-0.62
-0.622
-0.6155
-0.609
-0.607
-0.61
-0.615
-0.6085
-0.6075
-0.609
-0.601
-0.5865
-0.57
-0.5505
-0.5325
-0.525
-0.5415
-0.5685
-0.565
-0.578
-0.587
-0.5705
-0.5555
-0.529
-0.5255
-0.5425
-0.5745
-0.5775
-0.5565
-0.558
-0.5625
-0.57
-0.569
-0.555
-0.538
-0.543
-0.555
-0.557
-0.5615
-0.5585
-0.563
-0.566
-0.5445
-0.5345
-0.5525
-0.5685
-0.5585
-0.545
-0.554
-0.5585
-0.5495
-0.5265
-0.515
-0.524
-0.5375
-0.545
-0.538
-0.5315
-0.5225
-0.524
-0.5195
-0.522
-0.517
-0.471
-0.4625
-0.506
-0.5435
-0.5635
-0.5625
-0.5515
-0.549
-0.5225
-0.504
-0.5115
-0.523
-0.523
-0.5075
-0.507
-0.514
-0.527
-0.5355
-0.543
-0.5395
-0.5295
-0.5315
-0.5345
-0.543
-0.551
-0.5505
-0.5435
-0.5305
-0.4925
-0.4655
-0.476
-0.495
-0.501
-0.4875
-0.485
-0.483
-0.482
-0.503
-0.5225
-0.511
-0.491
-0.5005
-0.4995
-0.4935
-0.4915
-0.488
-0.481
-0.4765
-0.4845
-0.4695
-0.447
-0.455
-0.4755
-0.4685
-0.456
-0.4585
-0.456
-0.4575
-0.4595
-0.4475
-0.449
-0.452
-0.4445
-0.431
-0.4195
-0.432
-0.438
-0.4385
-0.438
-0.437
-0.431
-0.428
-0.4315
-0.422
-0.42
-0.4265
-0.4285
-0.428
-0.4235
-0.4155
-0.415
-0.4155
-0.4235
-0.4195
-0.3905
-0.377
-0.384
-0.393
-0.401
-0.4035
-0.3855
-0.3845
-0.389
-0.3765
-0.378
-0.3655
-0.357
-0.3625
-0.3695
-0.37
-0.3655
-0.368
-0.371
-0.373
-0.3705
-0.374
-0.378
-0.3715
-0.362
-0.354
-0.341
-0.3415
-0.3535
-0.3595
-0.3615
-0.3645
-0.367
-0.3655
-0.3645
-0.361
-0.359
-0.3455
-0.3375
-0.3665
-0.3755
-0.3685
-0.381
-0.3785
-0.3935
-0.411
-0.4065
-0.392
-0.377
-0.371
-0.3805
-0.3935
-0.376
-0.363
-0.373
-0.38
-0.3885
-0.3945
-0.382
-0.38
-0.3855
-0.4035
-0.419
-0.4065
-0.3925
-0.3855
-0.3855
-0.377
-0.373
-0.374
-0.383
-0.3985
-0.397
-0.395
-0.4045
-0.4155
-0.4175
-0.42
-0.4105
-0.4095
-0.4205
-0.4295
-0.445
-0.4465
-0.457
-0.4705
-0.4635
-0.468
-0.4745
-0.456
-0.4375
-0.438
-0.4475
-0.463
-0.4745
-0.4845
-0.491
-0.49
-0.4835
-0.478
-0.477
-0.481
-0.4845
-0.482
-0.516
-0.557
-0.5475
-0.522
-0.5165
-0.524
-0.5215
-0.504
-0.4915
-0.4785
-0.482
-0.497
-0.5135
-0.5215
-0.512
-0.5075
-0.4995
-0.497
-0.519
-0.5405
-0.5295
-0.5225
-0.515
-0.5105
-0.5225
-0.5235
-0.526
-0.5325
-0.5275
-0.531
-0.544
-0.528
-0.517
-0.518
-0.5235
-0.545
-0.5475
-0.536
-0.5325
-0.534
-0.5375
-0.545
-0.5525
-0.5445
-0.537
-0.536
-0.532
-0.5355
-0.546
-0.563
-0.573
-0.5745
-0.583
-0.58
-0.553
-0.526
-0.531
-0.5365
-0.55
-0.5885
-0.5745
-0.5545
-0.563
-0.5455
-0.5105
-0.4875
-0.505
-0.532
-0.55
-0.5695
-0.571
-0.5365
-0.5325
-0.5535
-0.546
-0.5465
-0.5455
-0.5415
-0.5405
-0.5435
-0.5435
-0.5455
-0.555
-0.5505
-0.549
-0.5455
-0.539
-0.5375
-0.536
-0.5435
-0.548
-0.55
-0.547
-0.542
-0.531
-0.5235
-0.5225
-0.5335
-0.539
-0.5265
-0.521
-0.5205
-0.5395
-0.548
-0.547
-0.5545
-0.5485
-0.5415
-0.5415
-0.5405
-0.539
-0.5405
-0.5505
-0.5535
-0.55
-0.55
-0.5395
-0.5265
-0.5255
-0.5295
-0.531
-0.543
-0.563
-0.58
-0.585
-0.572
-0.518
-0.4555
-0.4755
-0.526
-0.54
-0.5425
-0.543
-0.534
-0.52
-0.493
-0.483
-0.5015
-0.506
-0.506
-0.5105
-0.5145
-0.5095
-0.5225
-0.541
-0.5335
-0.53
-0.5425
-0.5435
-0.5175
-0.505
-0.5
-0.494
-0.4935
-0.4935
-0.506
-0.5165
-0.5235
-0.5185
-0.5125
-0.5195
-0.5135
-0.4985
-0.512
-0.5275
-0.5165
-0.511
-0.509
-0.508
-0.513
-0.5235
-0.522
-0.517
-0.5155
-0.511
-0.5265
-0.538
-0.5455
-0.5525
-0.54
-0.517
-0.488
-0.478
-0.485
-0.47
-0.438
-0.431
-0.4405
-0.449
-0.4475
-0.444
-0.4415
-0.4405
-0.4385
-0.42
-0.4205
-0.4225
-0.42
-0.4155
-0.403
-0.414
-0.425
-0.4135
-0.4185
-0.447
-0.445
-0.4405
-0.4505
-0.4565
-0.444
-0.424
-0.432
-0.452
-0.465
-0.4615
-0.4655
-0.4695
-0.4705
-0.47
-0.4815
-0.485
-0.456
-0.421
-0.3925
-0.3935
-0.3735
-0.3595
-0.386
-0.413
-0.433
-0.442
-0.4505
-0.456
-0.4615
-0.4655
-0.4785
-0.4815
-0.479
-0.4825
-0.481
-0.4895
-0.4925
-0.497
-0.507
-0.527
-0.5395
-0.5395
-0.545
-0.5315
-0.529
-0.5405
-0.529
-0.5215
-0.527
-0.5215
-0.545
-0.5735
-0.5645
-0.568
-0.575
-0.566
-0.5665
-0.5775
-0.5615
-0.561
-0.566
-0.5495
-0.537
-0.4975
-0.5015
-0.527
-0.5245
-0.532
-0.54
-0.547
-0.5515
-0.5415
-0.537
-0.547
-0.5445
-0.5255
-0.512
-0.5265
-0.543
-0.563
-0.5785
-0.5715
-0.5685
-0.5495
-0.547
-0.5645
-0.549
-0.544
-0.5605
-0.5535
-0.553
-0.5705
-0.57
-0.567
-0.5465
-0.542
-0.567
-0.583
-0.5885
-0.5755
-0.5515
-0.538
-0.548
-0.5685
-0.5895
-0.606
-0.6275
-0.6635
-0.695
-0.6985
-0.7135
-0.725
-0.71
-0.727
-0.768
-0.7945
-0.8055
-0.81
-0.816
-0.828
-0.837
-0.85
-0.8645
-0.863
-0.846
-0.826
-0.8025
-0.78
-0.75
-0.694
-0.649
-0.622
-0.59
-0.5425
-0.492
-0.4525
-0.3815
-0.3145
-0.2775
-0.2245
-0.1625
-0.0975
-0.037
0.0105
0.032
0.054
0.0805
0.079
0.078
0.096
0.097
0.075
0.038
-0.015
-0.0565
-0.0905
-0.099
-0.0995
-0.1305
-0.157
-0.174
-0.1965
-0.21
-0.2235
-0.253
-0.2895
-0.312
-0.3205
-0.3455
-0.3805
-0.4155
-0.448
-0.4715
-0.4945
-0.526
-0.5355
-0.5455
-0.578
-0.597
-0.6055
-0.606
-0.624
-0.6595
-0.678
-0.6875
-0.703
-0.72
-0.735
-0.7495
-0.7595
-0.7875
-0.824
-0.8445
-0.855
-0.875
-0.897
-0.9005
-0.909
-0.918
-0.936
-0.951
-0.9635
-0.983
-0.984
-0.9845
-0.9835
-0.977
-0.9725
-0.9615
-0.973
-1.0005
-1.005
-1.0125
-1.0205
-1.018
-1.0065
-0.99
-0.9865
-0.968
-0.9495
-0.9445
-0.9525
-0.9525
-0.927
-0.903
-0.879
-0.8635
-0.8475
-0.8405
-0.82
-0.795
-0.791
-0.775
-0.7555
-0.73
-0.713
-0.695
-0.684
-0.6845
-0.6815
-0.6825
-0.675
-0.666
-0.6435
-0.62
-0.605
-0.5945
-0.5955
-0.588
-0.5825
-0.5885
-0.589
-0.5985
-0.6
-0.585
-0.572
-0.56
-0.5715
-0.5905
-0.5885
-0.5705
-0.5365
-0.531
-0.54
-0.5525
-0.5825
-0.59
-0.594
-0.5725
-0.5425
-0.523
-0.5095
-0.519
-0.5275
-0.5395
-0.547
-0.5485
-0.549
-0.545
-0.543
-0.5505
-0.555
-0.5485
-0.5405
-0.5385
-0.538
-0.5165
-0.516
-0.536
-0.533
-0.5325
-0.5305
-0.5255
-0.533
-0.5345
-0.539
-0.5495
-0.544
-0.542
-0.5465
-0.5375
-0.532
-0.5405
-0.5445
-0.5365
-0.5245
-0.5225
-0.5195
-0.5215
-0.5295
-0.5355
-0.537
-0.5305
-0.5365
-0.533
-0.5225
-0.5245
-0.5255
-0.5215
-0.532
-0.5355
-0.5215
-0.5155
-0.5195
-0.521
-0.5135
-0.525
-0.542
-0.5345
-0.518
-0.508
-0.5085
-0.5335
-0.53
-0.495
-0.481
-0.4985
-0.5285
-0.509
-0.5015
-0.499
-0.463
-0.459
-0.469
-0.487
-0.502
-0.5095
-0.5115
-0.496
-0.48
-0.4745
-0.479
-0.472
-0.466
-0.4695
-0.47
-0.475
-0.484
-0.487
-0.487
-0.467
-0.4535
-0.462
-0.47
-0.4955
-0.497
-0.4685
-0.465
-0.4685
-0.4525
-0.4535
-0.459
-0.4455
-0.4345
-0.4295
-0.44
-0.4385
-0.426
-0.4195
-0.416
-0.419
-0.419
-0.411
-0.4065
-0.4225
-0.42
-0.4135
-0.4085
-0.3985
-0.3845
-0.3665
-0.3765
-0.3835
-0.3955
-0.4
-0.3915
-0.396
-0.389
-0.3775
-0.3825
-0.375
-0.346
-0.348
-0.37
-0.3915
-0.401
-0.404
-0.4145
-0.406
-0.4015
-0.4
-0.379
-0.371
-0.3765
-0.3595
-0.356
-0.377
-0.3585
-0.358
-0.375
-0.3705
-0.3575
-0.3445
-0.3425
-0.3265
-0.3335
-0.356
-0.365
-0.363
-0.3385
-0.341
-0.3515
-0.348
-0.3535
-0.357
-0.3555
-0.3525
-0.3685
-0.3745
-0.367
-0.359
-0.3545
-0.375
-0.382
-0.368
-0.3655
-0.378
-0.378
-0.3795
-0.3835
-0.3765
-0.376
-0.37
-0.3685
-0.407
-0.4405
-0.441
-0.429
-0.4235
-0.422
-0.3655
-0.346
-0.402
-0.424
-0.404
-0.38
-0.386
-0.4055
-0.4015
-0.38
-0.3855
-0.4095
-0.428
-0.4315
-0.419
-0.4165
-0.431
-0.443
-0.44
-0.444
-0.442
-0.4375
-0.449
-0.4595
-0.4615
-0.4655
-0.473
-0.472
-0.476
-0.4605
-0.4525
-0.467
-0.4695
-0.4795
-0.4855
-0.4835
-0.482
-0.4825
-0.475
-0.48
-0.4815
-0.4815
-0.504
-0.5205
-0.5415
-0.56
-0.575
-0.5755
-0.568
-0.54
-0.4725
-0.441
-0.4605
-0.4905
-0.509
-0.508
-0.509
-0.511
-0.509
-0.5235
-0.527
-0.508
-0.4965
-0.496
-0.5065
-0.521
-0.537
-0.5425
-0.535
-0.524
-0.528
-0.541
-0.542
-0.534
-0.5375
-0.5415
-0.5365
-0.5335
-0.52
-0.5215
-0.526
-0.526
-0.5325
-0.529
-0.526
-0.531
-0.5455
-0.5495
-0.5495
-0.543
-0.5345
-0.5375
-0.5355
-0.551
-0.5415
-0.528
-0.538
-0.525
-0.5195
-0.5395
-0.5495
-0.5425
-0.55
-0.553
-0.5575
-0.5565
-0.5485
-0.562
-0.5685
-0.5695
-0.5665
-0.563
-0.57
-0.5585
-0.5375
-0.5285
-0.5245
-0.537
-0.527
-0.514
-0.529
-0.524
-0.523
-0.517
-0.526
-0.5505
-0.5455
-0.5555
-0.565
-0.551
-0.543
-0.546
-0.5495
-0.544
-0.536
-0.526
-0.533
-0.567
-0.5795
-0.552
-0.5115
-0.489
-0.506
-0.541
-0.5515
-0.55
-0.533
-0.503
-0.508
-0.518
-0.519
-0.532
-0.533
-0.5325
-0.5455
-0.5415
-0.532
-0.5165
-0.4945
-0.4915
-0.4855
-0.492
-0.502
-0.5035
-0.512
-0.533
-0.5505
-0.5235
-0.508
-0.516
-0.522
-0.5245
-0.5245
-0.535
-0.522
-0.5145
-0.527
-0.533
-0.545
-0.565
-0.564
-0.533
-0.524
-0.5075
-0.4945
-0.5125
-0.521
-0.52
-0.513
-0.51
-0.513
-0.5125
-0.5085
-0.523
-0.5275
-0.514
-0.509
-0.5105
-0.483
-0.456
-0.47
-0.4735
-0.4755
-0.4845
-0.494
-0.497
-0.4965
-0.4865
-0.4905
-0.5045
-0.4945
-0.493
-0.4845
-0.4705
-0.472
-0.4745
-0.4635
-0.442
-0.424
-0.434
-0.4465
-0.4465
-0.4585
-0.46
-0.4585
-0.4525
-0.451
-0.457
-0.4615
-0.4585
-0.441
-0.426
-0.4135
-0.411
-0.4105
-0.4055
-0.406
-0.418
-0.4195
-0.413
-0.405
-0.4075
-0.4155
-0.4115
-0.439
-0.4585
-0.462
-0.4635
-0.4495
-0.448
-0.4445
-0.4575
-0.465
-0.4625
-0.4645
-0.4495
-0.4375
-0.4215
-0.4205
-0.4395
-0.457
-0.461
-0.453
-0.4465
-0.4215
-0.4085
-0.4215
-0.4215
-0.419
-0.4455
-0.4885
-0.503
-0.5125
-0.525
-0.5165
-0.4825
-0.4535
-0.4745
-0.4795
-0.4725
-0.5
-0.5115
-0.5105
-0.52
-0.522
-0.5195
-0.5225
-0.525
-0.5375
-0.564
-0.568
-0.5565
-0.5545
-0.5395
-0.5305
-0.5285
-0.528
-0.528
-0.5225
-0.5365
-0.537
-0.525
-0.526
-0.5295
-0.5345
-0.5375
-0.5395
-0.54
-0.5235
-0.5075
-0.5215
-0.532
-0.532
-0.538
-0.5295
-0.52
-0.532
-0.54
-0.549
-0.5705
-0.568
-0.5435
-0.5275
-0.5215
-0.523
-0.526
-0.53
-0.523
-0.533
-0.5625
-0.569
-0.572
-0.576
-0.554
-0.5055
-0.5
-0.519
-0.5225
-0.5415
-0.566
-0.5725
-0.571
-0.584
-0.593
-0.6025
-0.614
-0.6275
-0.6635
-0.708
-0.7395
-0.7565
-0.7645
-0.7755
-0.7915
-0.7995
-0.7995
-0.8095
-0.8285
-0.8445
-0.8615
-0.864
-0.8435
-0.8205
-0.8045
-0.7855
-0.746
-0.7
-0.656
-0.6095
-0.5695
-0.536
-0.493
-0.4335
-0.3735
-0.3135
-0.2825
-0.22
-0.139
-0.07
-0.032
-0.004
0.0565
0.082
0.0995
0.0895
0.085
0.09
0.086
0.095
0.0825
0.034
-0.0045
-0.0235
-0.067
-0.1145
-0.1585
-0.173
-0.19
-0.194
-0.185
-0.2055
-0.2165
-0.238
-0.25
-0.268
-0.3125
-0.3675
-0.398
-0.4155
-0.443
-0.4665
-0.5045
-0.513
-0.516
-0.515
-0.5275
-0.5555
-0.5535
-0.5815
-0.641
-0.6865
-0.695
-0.6815
-0.682
-0.698
-0.6905
-0.684
-0.718
-0.7585
-0.7475
-0.7285
-0.7755
-0.799
-0.806
-0.8395
-0.86
-0.8825
-0.875
-0.8725
-0.8965
-0.9145
-0.912
-0.901
-0.911
-0.9245
-0.9245
-0.9165
-0.924
-0.9335
-0.937
-0.946
-0.962
-0.959
-0.95
-0.955
-0.9385
-0.9295
-0.9165
-0.8925
-0.8875
-0.8945
-0.8925
-0.891
-0.8945
-0.873
-0.8445
-0.816
-0.802
-0.779
-0.751
-0.7415
-0.7375
-0.7285
-0.7
-0.688
-0.681
-0.6665
-0.653
-0.6405
-0.6255
-0.5835
-0.5495
-0.563
-0.5755
-0.5835
-0.5945
-0.596
-0.6135
-0.626
-0.617
-0.5975
-0.559
-0.531
-0.54
-0.548
-0.5505
-0.5295
-0.5105
-0.5135
-0.5085
-0.523
-0.5265
-0.5215
-0.5205
-0.5155
-0.515
-0.5195
-0.54
-0.5395
-0.5345
-0.5405
-0.5355
-0.5295
-0.5205
-0.5165
-0.513
-0.5035
-0.496
-0.488
-0.4915
-0.5
-0.5015
-0.5135
-0.516
-0.514
-0.5175
-0.512
-0.512
-0.5075
-0.504
-0.5095
-0.5185
-0.5115
-0.495
-0.4925
-0.5075
-0.5105
-0.511
-0.5175
-0.5145
-0.5155
-0.501
-0.499
-0.5
-0.496
-0.4955
-0.4795
-0.4765
-0.492
-0.483
-0.484
-0.512
-0.507
-0.503
-0.4865
-0.489
-0.5135
-0.5155
-0.5355
-0.5215
-0.4955
-0.506
-0.5125
-0.471
-0.449
-0.4835
-0.4975
-0.465
-0.4255
-0.4415
-0.447
-0.4315
-0.459
-0.503
-0.5005
-0.4705
-0.469
-0.462
-0.442
-0.444
-0.4505
-0.448
-0.4525
-0.463
-0.4745
-0.4735
-0.4715
-0.465
-0.4565
-0.453
-0.4415
-0.4445
-0.4465
-0.454
-0.4805
-0.474
-0.457
-0.4505
-0.4335
-0.434
-0.4365
-0.427
-0.4155
-0.3895
-0.3955
-0.435
-0.4585
-0.4615
-0.4515
-0.434
-0.406
-0.4135
-0.4245
-0.411
-0.424
-0.4215
-0.4025
-0.3975
-0.379
-0.3655
-0.378
-0.3885
-0.3845
-0.3815
-0.3855
-0.391
-0.391
-0.3715
-0.3645
-0.377
-0.3695
-0.357
-0.3575
-0.3525
-0.353
-0.3705
-0.383
-0.406
-0.4065
-0.387
-0.3965
-0.4135
-0.4255
-0.4255
-0.393
-0.3425
-0.307
-0.3045
-0.3085
-0.288
-0.2815
-0.3155
-0.336
-0.332
-0.348
-0.3585
-0.343
-0.34
-0.3405
-0.337
-0.338
-0.3225
-0.3265
-0.3355
-0.3355
-0.3435
-0.3575
-0.3685
-0.3575
-0.34
-0.344
-0.3635
-0.3655
-0.35
-0.33
-0.33
-0.343
-0.361
-0.3735
-0.37
-0.3595
-0.368
-0.383
-0.386
-0.372
-0.361
-0.388
-0.3955
-0.389
-0.375
-0.355
-0.344
-0.3405
-0.3625
-0.3795
-0.3855
-0.374
-0.3695
-0.379
-0.3865
-0.3975
-0.3915
-0.3895
-0.399
-0.4055
-0.411
-0.4125
-0.4185
-0.444
-0.465
-0.45
-0.43
-0.431
-0.419
-0.406
-0.4135
-0.419
-0.4255
-0.426
-0.4355
-0.45
-0.448
-0.4485
-0.454
-0.4765
-0.504
-0.5365
-0.553
-0.521
-0.4605
-0.427
-0.434
-0.4195
-0.4185
-0.4205
-0.42
-0.4485
-0.4605
-0.4695
-0.471
-0.461
-0.447
-0.446
-0.4595
-0.467
-0.4875
-0.4955
-0.47
-0.466
-0.4855
-0.4875
-0.492
-0.496
-0.499
-0.4995
-0.4995
-0.513
-0.519
-0.526
-0.525
-0.5215
-0.5205
-0.51
-0.516
-0.518
-0.513
-0.5155
-0.5045
-0.5015
-0.511
-0.511
-0.52
-0.5295
-0.523
-0.5305
-0.5335
-0.529
-0.5355
-0.5295
-0.5185
-0.4875
-0.44
-0.4475
-0.482
-0.51
-0.5295
-0.5255
-0.5225
-0.5265
-0.528
-0.5085
-0.505
-0.5235
-0.5035
-0.475
-0.463
-0.466
-0.49
-0.4995
-0.496
-0.506
-0.5075
-0.5025
-0.4955
-0.4885
-0.5115
-0.5295
-0.53
-0.533
-0.519
-0.508
-0.5135
-0.52
-0.516
-0.52
-0.5195
-0.505
-0.5335
-0.536
-0.507
-0.505
-0.4885
-0.4855
-0.4995
-0.5005
-0.495
-0.4965
-0.505
-0.5095
-0.5215
-0.5275
-0.537
-0.518
-0.475
-0.4825
-0.48
-0.465
-0.4605
-0.449
-0.4505
-0.4615
-0.4665
-0.475
-0.487
-0.5
-0.5045
-0.4895
-0.484
-0.4835
-0.4905
-0.49
-0.4825
-0.484
-0.4785
-0.4715
-0.4745
-0.4775
-0.482
-0.493
-0.482
-0.466
-0.466
-0.4855
-0.493
-0.4695
-0.459
-0.48
-0.501
-0.5025
-0.5035
-0.506
-0.5005
-0.475
-0.4635
-0.4745
-0.4865
-0.492
-0.4885
-0.492
-0.4865
-0.482
-0.4855
-0.4935
-0.4925
-0.474
-0.4655
-0.457
-0.4435
-0.454
-0.474
-0.4615
-0.443
-0.4515
-0.474
-0.4835
-0.4755
-0.468
-0.4905
-0.503
-0.48
-0.487
-0.4935
-0.456
-0.431
-0.4475
-0.4665
-0.4675
-0.4785
-0.484
-0.4835
-0.4695
-0.444
-0.4385
-0.4485
-0.47
-0.4605
-0.4515
-0.4615
-0.455
-0.454
-0.4525
-0.444
-0.434
-0.4285
-0.434
-0.44
-0.433
-0.425
-0.4225
-0.4105
-0.4
-0.413
-0.4235
-0.419
-0.418
-0.422
-0.4095
-0.3845
-0.3755
-0.399
-0.4285
-0.4015
-0.3905
-0.4315
-0.4545
-0.4405
-0.427
-0.4185
-0.3825
-0.375
-0.387
-0.3945
-0.4005
-0.4055
-0.422
-0.414
-0.4075
-0.399
-0.3845
-0.3865
-0.3765
-0.3665
-0.36
-0.367
-0.3805
-0.394
-0.4225
-0.4265
-0.419
-0.4275
-0.4225
-0.422
-0.4435
-0.4425
-0.439
-0.448
-0.445
-0.4405
-0.4495
-0.477
-0.5035
-0.5125
-0.487
-0.4635
-0.4745
-0.4995
-0.5265
-0.522
-0.5
-0.4925
-0.4885
-0.4865
-0.4985
-0.502
-0.4995
-0.5145
-0.519
-0.518
-0.5005
-0.483
-0.5
-0.501
-0.4965
-0.5025
-0.497
-0.4845
-0.4855
-0.4855
-0.48
-0.487
-0.499
-0.5155
-0.5245
-0.53
-0.538
-0.5265
-0.5175
-0.517
-0.519
-0.514
-0.4895
-0.4955
-0.497
-0.4875
-0.5015
-0.485
-0.473
-0.484
-0.4795
-0.4845
-0.49
-0.49
-0.508
-0.509
-0.49
-0.491
-0.509
-0.511
-0.503
-0.4945
-0.509
-0.519
-0.506
-0.533
-0.5625
-0.567
-0.5685
-0.5885
-0.6065
-0.618
-0.65
-0.672
-0.6775
-0.695
-0.716
-0.737
-0.749
-0.752
-0.778
-0.789
-0.802
-0.8025
-0.795
-0.814
-0.8225
-0.827
-0.806
-0.775
-0.7425
-0.684
-0.603
-0.54
-0.522
-0.502
-0.4645
-0.4225
-0.3805
-0.3135
-0.265
-0.2255
-0.141
-0.053
0.0015
0.0205
0.0415
0.069
0.0925
0.0975
0.0995
0.105
0.1065
0.1095
0.095
0.0725
0.04
-0.017
-0.064
-0.1025
-0.1505
-0.1515
-0.149
-0.1715
-0.1625
-0.157
-0.178
-0.21
-0.239
-0.2575
-0.2935
-0.336
-0.351
-0.3585
-0.379
-0.394
-0.411
-0.4405
-0.4695
-0.49
-0.5115
-0.5305
-0.542
-0.5615
-0.579
-0.59
-0.5975
-0.6015
-0.619
-0.629
-0.6345
-0.6605
-0.6745
-0.691
-0.732
-0.7625
-0.7815
-0.8055
-0.8145
-0.8225
-0.8345
-0.8265
-0.8375
-0.8655
-0.891
-0.9205
-0.9295
-0.9215
-0.9095
-0.896
-0.8865
-0.873
-0.869
-0.888
-0.914
-0.925
-0.919
-0.917
-0.9215
-0.9215
-0.922
-0.92
-0.911
-0.9005
-0.8945
-0.884
-0.868
-0.8605
-0.8525
-0.843
-0.83
-0.8215
-0.808
-0.788
-0.779
-0.756
-0.7275
-0.714
-0.712
-0.714
-0.704
-0.6885
-0.676
-0.645
-0.6135
-0.6025
-0.611
-0.611
-0.589
-0.582
-0.5815
-0.582
-0.565
-0.5455
-0.5495
-0.547
-0.5405
-0.542
-0.547
-0.549
-0.548
-0.5375
-0.5315
-0.5335
-0.543
-0.5455
-0.534
-0.52
-0.5075
-0.5185
-0.534
-0.5385
-0.526
-0.5225
-0.514
-0.4915
-0.488
-0.5035
-0.517
-0.4975
-0.488
-0.5125
-0.53
-0.52
-0.5055
-0.509
-0.491
-0.477
-0.48
-0.4815
-0.496
-0.503
-0.499
-0.491
-0.489
-0.485
-0.495
-0.5
-0.494
-0.499
-0.5035
-0.4985
-0.499
-0.5105
-0.5015
-0.505
-0.5045
-0.4945
-0.4895
-0.492
-0.494
-0.494
-0.5015
-0.503
-0.512
-0.508
-0.5015
-0.4995
-0.504
-0.51
-0.5095
-0.5115
-0.5035
-0.4845
-0.4615
-0.4785
-0.501
-0.4845
-0.4665
-0.4525
-0.436
-0.454
-0.4645
-0.4405
-0.4355
-0.4295
-0.4445
-0.469
-0.4605
-0.473
-0.4915
-0.491
-0.4925
-0.4875
-0.4795
-0.4785
-0.4725
-0.4405
-0.432
-0.4535
-0.46
-0.458
-0.4375
-0.428
-0.4375
-0.4305
-0.427
-0.4195
-0.416
-0.4305
-0.442
-0.445
-0.4385
-0.4415
-0.435
-0.4285
-0.447
-0.451
-0.4385
-0.4225
-0.404
-0.4045
-0.4075
-0.4
-0.4025
-0.4065
-0.405
-0.3995
-0.3955
-0.396
-0.396
-0.388
-0.392
-0.408
-0.4
-0.387
-0.389
-0.391
-0.374
-0.354
-0.3605
-0.369
-0.3525
-0.347
-0.354
-0.3555
-0.365
-0.3645
-0.3455
-0.3265
-0.33
-0.324
-0.317
-0.331
-0.3385
-0.3425
-0.35
-0.3565
-0.3585
-0.36
-0.347
-0.3365
-0.342
-0.344
-0.335
-0.3245
-0.3355
-0.3485
-0.3495
-0.3465
-0.3425
-0.3355
-0.328
-0.3335
-0.3315
-0.344
-0.362
-0.3445
-0.324
-0.324
-0.3295
-0.3345
-0.3405
-0.331
-0.3255
-0.317
-0.31
-0.3325
-0.346
-0.3285
-0.31
-0.317
-0.338
-0.3385
-0.329
-0.337
-0.3385
-0.33
-0.3205
-0.3285
-0.3455
-0.348
-0.3485
-0.3465
-0.3445
-0.331
-0.3275
-0.348
-0.351
-0.349
-0.3685
-0.3805
-0.3655
-0.352
-0.3705
-0.38
-0.366
-0.371
-0.379
-0.3815
-0.3735
-0.356
-0.365
-0.3775
-0.3865
-0.404
-0.404
-0.405
-0.42
-0.4375
-0.449
-0.4095
-0.4015
-0.435
-0.415
-0.415
-0.4245
-0.421
-0.442
-0.464
-0.464
-0.454
-0.451
-0.4435
-0.457
-0.4665
-0.457
-0.4455
-0.4405
-0.435
-0.421
-0.4265
-0.442
-0.447
-0.4415
-0.457
-0.4645
-0.4695
-0.4885
-0.5045
-0.5175
-0.5075
-0.484
-0.474
-0.4845
-0.48
-0.474
-0.4735
-0.459
-0.4565
-0.46
-0.459
-0.4705
-0.4915
-0.4985
-0.5075
-0.513
-0.5145
-0.5255
-0.509
-0.483
-0.4745
-0.4825
-0.4875
-0.4805
-0.4975
-0.5135
-0.4985
-0.47
-0.482
-0.5145
-0.508
-0.506
-0.506
-0.4845
-0.4715
-0.471
-0.4745
-0.487
-0.4945
-0.4975
-0.509
-0.528
-0.531
-0.507
-0.4955
-0.4845
-0.487
-0.4975
-0.4975
-0.5015
-0.5015
-0.506
-0.509
-0.5045
-0.502
-0.509
-0.515
-0.5125
-0.5075
-0.5005
-0.4905
-0.493
-0.4975
-0.497
-0.509
-0.51
-0.514
-0.519
-0.5095
-0.5105
-0.493
-0.477
-0.501
-0.5005
-0.478
-0.4705
-0.4725
-0.4655
-0.4745
-0.488
-0.4855
-0.4885
-0.4975
-0.501
-0.4765
-0.4815
-0.501
-0.4935
-0.4815
-0.4735
-0.4765
-0.489
-0.4995
-0.4845
-0.474
-0.48
-0.489
-0.5005
-0.5005
-0.499
-0.505
-0.492
-0.462
-0.468
-0.4925
-0.4985
-0.497
-0.4905
-0.489
-0.4895
-0.4885
-0.5025
-0.5235
-0.5325
-0.5505
-0.553
-0.5135
-0.4455
-0.402
-0.4145
-0.4405
-0.4615
-0.4685
-0.456
-0.439
-0.448
-0.464
-0.476
-0.48
-0.482
-0.491
-0.4825
-0.488
-0.4975
-0.498
-0.492
-0.48
-0.4755
-0.4745
-0.477
-0.473
-0.478
-0.476
-0.4735
-0.481
-0.4915
-0.4915
-0.4805
-0.4805
-0.4765
-0.4755
-0.48
-0.4875
-0.479
-0.454
-0.442
-0.464
-0.491
-0.503
-0.5015
-0.4945
-0.485
-0.4335
-0.4245
-0.4565
-0.471
-0.4775
-0.4595
-0.4605
-0.458
-0.425
-0.4295
-0.46
-0.4545
-0.427
-0.424
-0.427
-0.429
-0.444
-0.453
-0.467
-0.468
-0.45
-0.4475
-0.4445
-0.428
-0.4175
-0.414
-0.4125
-0.4075
-0.406
-0.405
-0.401
-0.39
-0.379
-0.3785
-0.383
-0.394
-0.401
-0.419
-0.444
-0.443
-0.4415
-0.4565
-0.451
-0.4405
-0.4265
-0.3985
-0.368
-0.363
-0.413
-0.4515
-0.447
-0.4165
-0.405
-0.394
-0.3635
-0.366
-0.3735
-0.3825
-0.3915
-0.389
-0.376
-0.3685
-0.3705
-0.3705
-0.3795
-0.387
-0.3935
-0.4015
-0.4105
-0.4215
-0.4345
-0.4375
-0.435
-0.442
-0.4445
-0.448
-0.4515
-0.441
-0.4475
-0.4725
-0.479
-0.488
-0.4975
-0.496
-0.4875
-0.481
-0.485
-0.4925
-0.4945
-0.49
-0.4965
-0.499
-0.5115
-0.5155
-0.5155
-0.539
-0.5585
-0.5425
-0.53
-0.5445
-0.495
-0.485
-0.5205
-0.493
-0.462
-0.4475
-0.4645
-0.496
-0.508
-0.517
-0.522
-0.4965
-0.48
-0.477
-0.461
-0.4715
-0.487
-0.482
-0.489
-0.501
-0.4895
-0.497
-0.514
-0.517
-0.52
-0.518
-0.517
-0.5115
-0.5085
-0.5055
-0.501
-0.4945
-0.499
-0.5045
-0.5
-0.5155
-0.527
-0.5255
-0.5325
-0.5495
-0.56
-0.557
-0.5415
-0.5285
-0.551
-0.562
-0.568
-0.594
-0.614
-0.641
-0.667
-0.6645
-0.655
-0.677
-0.699
-0.718
-0.749
-0.773
-0.798
-0.832
-0.8335
-0.8405
-0.875
-0.838
-0.783
-0.756
-0.728
-0.726
-0.7065
-0.663
-0.636
-0.6015
-0.546
-0.483
-0.4235
-0.3785
-0.343
-0.288
-0.247
-0.2305
-0.1685
-0.089
-0.0295
0.0145
0.048
0.078
0.1005
0.123
0.139
0.141
0.1295
0.128
0.13
0.098
0.0505
0.016
-0.0105
-0.0595
-0.099
-0.106
-0.106
-0.115
-0.128
-0.14
-0.17
-0.193
-0.2205
-0.257
-0.29
-0.33
-0.359
-0.3765
-0.402
-0.421
-0.4525
-0.5145
-0.5305
-0.5195
-0.5275
-0.536
-0.5585
-0.5725
-0.5845
-0.5965
-0.5975
-0.602
-0.628
-0.6595
-0.6775
-0.707
-0.7315
-0.738
-0.7465
-0.7635
-0.783
-0.8105
-0.8415
-0.863
-0.868
-0.86
-0.87
-0.9025
-0.927
-0.93
-0.9355
-0.941
-0.915
-0.904
-0.9135
-0.913
-0.9285
-0.9375
-0.9495
-0.955
-0.958
-0.986
-0.9665
-0.95
-0.954
-0.94
-0.9205
-0.9095
-0.903
-0.8765
-0.8805
-0.8715
-0.849
-0.837
-0.8105
-0.7765
-0.744
-0.7245
-0.7095
-0.702
-0.6885
-0.667
-0.6555
-0.6505
-0.6485
-0.6485
-0.621
-0.605
-0.594
-0.59
-0.592
-0.5795
-0.587
-0.584
-0.601
-0.5915
-0.565
-0.5455
-0.5155
-0.519
-0.5145
-0.502
-0.5135
-0.5265
-0.521
-0.5205
-0.516
-0.497
-0.499
-0.514
-0.514
-0.517
-0.54
-0.556
-0.5605
-0.5475
-0.5205
-0.4805
-0.459
-0.4755
-0.459
-0.45
-0.4675
-0.4845
-0.485
-0.4735
-0.4805
-0.495
-0.514
-0.5035
-0.485
-0.481
-0.4755
-0.475
-0.4835
-0.4935
-0.4925
-0.4845
-0.4765
-0.484
-0.496
-0.4865
-0.4875
-0.489
-0.473
-0.478
-0.4775
-0.479
-0.4935
-0.49
-0.483
-0.474
-0.4745
-0.4835
-0.4815
-0.481
-0.492
-0.4975
-0.5055
-0.514
-0.5245
-0.545
-0.557
-0.5495
-0.5135
-0.493
-0.471
-0.4325
-0.433
-0.45
-0.438
-0.4285
-0.442
-0.434
-0.4395
-0.459
-0.4595
-0.467
-0.4825
-0.4855
-0.475
-0.4495
-0.4345
-0.44
-0.44
-0.444
-0.4445
-0.452
-0.464
-0.477
-0.4785
-0.4555
-0.435
-0.426
-0.419
-0.4165
-0.4425
-0.45
-0.4315
-0.438
-0.4525
-0.442
-0.4315
-0.4375
-0.446
-0.4445
-0.429
-0.417
-0.4195
-0.4445
-0.446
-0.425
-0.411
-0.412
-0.427
-0.43
-0.43
-0.4025
-0.38
-0.3915
-0.4025
-0.407
-0.3965
-0.4
-0.4
-0.367
-0.373
-0.401
-0.3925
-0.3745
-0.364
-0.3615
-0.3325
-0.319
-0.342
-0.3385
-0.3375
-0.35
-0.3545
-0.3585
-0.3495
-0.332
-0.3325
-0.334
-0.3125
-0.294
-0.289
-0.3045
-0.3225
-0.3215
-0.3255
-0.323
-0.316
-0.318
-0.3155
-0.303
-0.3055
-0.3075
-0.303
-0.307
-0.309
-0.3095
-0.3045
-0.298
-0.297
-0.305
-0.296
-0.303
-0.3295
-0.326
-0.326
-0.334
-0.3305
-0.3175
-0.3095
-0.3115
-0.323
-0.342
-0.332
-0.316
-0.3205
-0.299
-0.3045
-0.3205
-0.309
-0.321
-0.3135
-0.3095
-0.3165
-0.3045
-0.3085
-0.32
-0.3135
-0.3235
-0.335
-0.3275
-0.3325
-0.3265
-0.3225
-0.321
-0.3315
-0.352
-0.3345
-0.344
-0.3655
-0.3695
-0.369
-0.3465
-0.3295
-0.332
-0.3315
-0.323
-0.318
-0.336
-0.3475
-0.3495
-0.3925
-0.387
-0.3685
-0.3845
-0.389
-0.4
-0.3715
-0.3525
-0.361
-0.379
-0.388
-0.3895
-0.421
-0.411
-0.3925
-0.4105
-0.445
-0.448
-0.417
-0.3975
-0.3985
-0.413
-0.409
-0.403
-0.3915
-0.3805
-0.3895
-0.412
-0.417
-0.4195
-0.42
-0.4165
-0.44
-0.44
-0.4395
-0.4575
-0.458
-0.4545
-0.4615
-0.458
-0.45
-0.4485
-0.4275
-0.42
-0.4155
-0.4095
-0.423
-0.436
-0.4475
-0.466
-0.493
-0.4925
-0.49
-0.47
-0.4395
-0.4455
-0.438
-0.4295
-0.432
-0.4385
-0.47
-0.484
-0.469
-0.4585
-0.459
-0.476
-0.4785
-0.4825
-0.5015
-0.5045
-0.506
-0.513
-0.5175
-0.506
-0.49
-0.4885
-0.4855
-0.4805
-0.483
-0.4925
-0.5025
-0.4945
-0.4895
-0.5
-0.511
-0.521
-0.528
-0.5285
-0.5185
-0.5145
-0.5105
-0.5135
-0.5085
-0.4975
-0.485
-0.4755
-0.488
-0.479
-0.463
-0.4555
-0.455
-0.4655
-0.466
-0.454
-0.4605
-0.464
-0.4625
-0.4875
-0.4975
-0.487
-0.4745
-0.4735
-0.49
-0.489
-0.4765
-0.468
-0.4705
-0.468
-0.46
-0.4775
-0.4965
-0.4835
-0.4505
-0.4485
-0.467
-0.492
-0.5405
-0.5565
-0.5185
-0.5095
-0.491
-0.4495
-0.465
-0.489
-0.516
-0.523
-0.5045
-0.479
-0.4475
-0.459
-0.486
-0.488
-0.461
-0.4575
-0.477
-0.482
-0.478
-0.4805
-0.481
-0.4695
-0.4755
-0.48
-0.4685
-0.4635
-0.467
-0.4685
-0.4755
-0.489
-0.4875
-0.4815
-0.4875
-0.48
-0.448
-0.4455
-0.463
-0.4525
-0.4475
-0.465
-0.4725
-0.475
-0.4805
-0.479
-0.4955
-0.493
-0.447
-0.4655
-0.481
-0.49
-0.5175
-0.5175
-0.5425
-0.5195
-0.489
-0.458
-0.404
-0.364
-0.3705
-0.4345
-0.4205
-0.3895
-0.4095
-0.419
-0.4385
-0.454
-0.4475
-0.4345
-0.4195
-0.406
-0.405
-0.4065
-0.4135
-0.415
-0.4185
-0.455
-0.474
-0.469
-0.446
-0.4205
-0.426
-0.4355
-0.429
-0.426
-0.443
-0.444
-0.4365
-0.437
-0.4355
-0.4355
-0.417
-0.3935
-0.392
-0.397
-0.395
-0.3925
-0.3945
-0.397
-0.3885
-0.3765
-0.3695
-0.3825
-0.394
-0.3755
-0.3795
-0.383
-0.375
-0.375
-0.3705
-0.3755
-0.3745
-0.3765
-0.369
-0.36
-0.364
-0.3635
-0.376
-0.395
-0.3985
-0.3935
-0.3645
-0.337
-0.3355
-0.3305
-0.3465
-0.363
-0.3625
-0.3695
-0.377
-0.391
-0.4085
-0.4125
-0.417
-0.431
-0.425
-0.4235
-0.4215
-0.425
-0.441
-0.4455
-0.4425
-0.431
-0.434
-0.4385
-0.457
-0.4845
-0.485
-0.4935
-0.493
-0.4945
-0.5295
-0.523
-0.5115
-0.5295
-0.518
-0.491
-0.446
-0.413
-0.444
-0.4705
-0.465
-0.465
-0.4775
-0.4665
-0.451
-0.4685
-0.479
-0.483
-0.4785
-0.462
-0.4615
-0.468
-0.4835
-0.499
-0.4715
-0.4735
-0.4795
-0.463
-0.475
-0.4925
-0.524
-0.529
-0.523
-0.511
-0.4965
-0.506
-0.511
-0.517
-0.495
-0.4705
-0.466
-0.471
-0.4855
-0.491
-0.498
-0.4885
-0.4725
-0.4765
-0.4735
-0.49
-0.509
-0.4945
-0.491
-0.488
-0.499
-0.521
-0.52
-0.5365
-0.55
-0.5475
-0.558
-0.5805
-0.6085
-0.6515
-0.689
-0.7065
-0.733
-0.746
-0.7405
-0.741
-0.757
-0.766
-0.7755
-0.7945
-0.8125
-0.8195
-0.7945
-0.7435
-0.73
-0.748
-0.727
-0.692
-0.6415
-0.5825
-0.537
-0.511
-0.475
-0.418
-0.37
-0.3205
-0.267
-0.2265
-0.176
-0.098
-0.0385
0.0025
0.0305
0.0625
0.097
0.123
0.133
0.141
0.1445
0.1355
0.144
0.159
0.145
0.088
0.0315
-0.019
-0.0665
-0.0955
-0.1075
-0.111
-0.1275
-0.1425
-0.1545
-0.1815
-0.2115
-0.234
-0.2655
-0.287
-0.325
-0.386
-0.4155
-0.4295
-0.4345
-0.455
-0.4535
-0.452
-0.4855
-0.5155
-0.533
-0.5365
-0.5545
-0.5595
-0.5695
-0.588
-0.6025
-0.6335
-0.658
-0.674
-0.702
-0.731
-0.744
-0.751
-0.766
-0.788
-0.7975
-0.8185
-0.8415
-0.8555
-0.8635
-0.8495
-0.8755
-0.915
-0.9245
-0.9195
-0.895
-0.879
-0.885
-0.9055
-0.9235
-0.9345
-0.925
-0.933
-0.9635
-0.9705
-0.9615
-0.951
-0.938
-0.907
-0.8755
-0.866
-0.884
-0.89
-0.872
-0.856
-0.8545
-0.837
-0.806
-0.7785
-0.7435
-0.739
-0.723
-0.7125
-0.7175
-0.6715
-0.638
-0.635
-0.629
-0.616
-0.606
-0.602
-0.5915
-0.57
-0.57
-0.5815
-0.5815
-0.587
-0.5655
-0.551
-0.5465
-0.529
-0.522
-0.52
-0.5255
-0.518
-0.514
-0.523
-0.518
-0.51
-0.516
-0.5255
-0.5305
-0.5355
-0.52
-0.5215
-0.5165
-0.5065
-0.512
-0.5075
-0.507
-0.4965
-0.488
-0.4715
-0.457
-0.461
-0.481
-0.4805
-0.45
-0.4435
-0.472
-0.4935
-0.488
-0.4805
-0.4775
-0.474
-0.458
-0.4625
-0.4795
-0.477
-0.4635
-0.467
-0.4835
-0.4905
-0.4985
-0.5105
-0.516
-0.5005
-0.482
-0.47
-0.474
-0.472
-0.4645
-0.461
-0.437
-0.4445
-0.4665
-0.4575
-0.467
-0.479
-0.475
-0.4905
-0.4925
-0.4745
-0.47
-0.4765
-0.502
-0.5085
-0.464
-0.442
-0.4625
-0.475
-0.4835
-0.482
-0.4735
-0.4575
-0.428
-0.413
-0.4245
-0.439
-0.44
-0.44
-0.445
-0.448
-0.4495
-0.4565
-0.4615
-0.448
-0.4235
-0.4275
-0.4395
-0.4325
-0.434
-0.439
-0.4345
-0.4325
-0.4285
-0.4235
-0.4265
-0.4285
-0.4235
-0.416
-0.4115
-0.4225
-0.4435
-0.4425
-0.414
-0.4045
-0.4295
-0.419
-0.4065
-0.4385
-0.4595
-0.4685
-0.446
-0.42
-0.413
-0.386
-0.374
-0.3795
-0.3865
-0.397
-0.3915
-0.3915
-0.378
-0.3675
-0.396
-0.391
-0.362
-0.36
-0.346
-0.341
-0.36
-0.343
-0.3335
-0.3445
-0.3435
-0.34
-0.339
-0.347
-0.349
-0.3455
-0.3255
-0.326
-0.3415
-0.3265
-0.3135
-0.3175
-0.3275
-0.3375
-0.3485
-0.3395
-0.33
-0.332
-0.3195
-0.3145
-0.31
-0.3
-0.2895
-0.291
-0.3
-0.3095
-0.313
-0.3185
-0.3325
-0.2955
-0.2605
-0.279
-0.3
-0.3135
-0.331
-0.3385
-0.3135
-0.306
-0.333
-0.2825
-0.2225
-0.245
-0.25
-0.2425
-0.2585
-0.264
-0.254
-0.278
-0.316
-0.3175
-0.301
-0.2965
-0.3135
-0.318
-0.3175
-0.3005
-0.284
-0.308
-0.326
-0.3255
-0.3235
-0.326
-0.3215
-0.3195
-0.3255
-0.3335
-0.32
-0.3115
-0.3335
-0.3315
-0.318
-0.325
-0.3325
-0.3235
-0.3315
-0.3395
-0.3395
-0.3435
-0.341
-0.3425
-0.3395
-0.335
-0.3335
-0.3435
-0.353
-0.3655
-0.3735
-0.3685
-0.3635
-0.359
-0.367
-0.3755
-0.385
-0.368
-0.3585
-0.3615
-0.36
-0.3895
-0.403
-0.408
-0.3855
-0.368
-0.385
-0.3845
-0.3825
-0.3985
-0.4155
-0.3905
-0.3985
-0.44
-0.446
-0.444
-0.4285
-0.42
-0.4135
-0.4025
-0.397
-0.409
-0.418
-0.433
-0.4475
-0.4735
-0.5085
-0.4935
-0.4905
-0.5065
-0.518
-0.4615
-0.397
-0.41
-0.4135
-0.417
-0.43
-0.4295
-0.4345
-0.448
-0.459
-0.453
-0.436
-0.439
-0.4505
-0.462
-0.461
-0.445
-0.4525
-0.474
-0.4865
-0.497
-0.4865
-0.48
-0.498
-0.494
-0.481
-0.4705
-0.47
-0.4665
-0.4445
-0.43
-0.427
-0.4395
-0.446
-0.4455
-0.487
-0.5035
-0.4835
-0.4945
-0.489
-0.474
-0.4695
-0.468
-0.476
-0.47
-0.4495
-0.458
-0.4805
-0.4845
-0.487
-0.4765
-0.469
-0.4675
-0.464
-0.46
-0.46
-0.5065
-0.514
-0.494
-0.492
-0.484
-0.4725
-0.4415
-0.453
-0.481
-0.4765
-0.4595
-0.4805
-0.5065
-0.4955
-0.5025
-0.503
-0.4865
-0.469
-0.432
-0.424
-0.4595
-0.4955
-0.498
-0.464
-0.458
-0.4755
-0.4705
-0.4555
-0.459
-0.451
-0.4385
-0.4645
-0.4645
-0.468
-0.47
-0.456
-0.4605
-0.443
-0.4545
-0.466
-0.4575
-0.4515
-0.454
-0.4725
-0.467
-0.469
-0.472
-0.4825
-0.5
-0.473
-0.451
-0.466
-0.481
-0.475
-0.46
-0.476
-0.48
-0.468
-0.459
-0.4365
-0.4455
-0.445
-0.4625
-0.4935
-0.4595
-0.448
-0.4555
-0.4565
-0.47
-0.4695
-0.466
-0.46
-0.4515
-0.4535
-0.4615
-0.455
-0.4475
-0.4495
-0.442
-0.4475
-0.4505
-0.4345
-0.4535
-0.476
-0.449
-0.441
-0.47
-0.4715
-0.457
-0.441
-0.436
-0.4625
-0.4785
-0.47
-0.478
-0.466
-0.414
-0.3795
-0.3875
-0.419
-0.429
-0.421
-0.432
-0.4455
-0.429
-0.4155
-0.4025
-0.393
-0.417
-0.4305
-0.438
-0.448
-0.436
-0.4235
-0.4195
-0.3945
-0.385
-0.4115
-0.433
-0.4635
-0.4465
-0.401
-0.407
-0.4095
-0.381
-0.3595
-0.374
-0.383
-0.4005
-0.4195
-0.409
-0.39
-0.35
-0.336
-0.3705
-0.396
-0.382
-0.3695
-0.371
-0.361
-0.3595
-0.376
-0.377
-0.3625
-0.331
-0.34
-0.384
-0.3945
-0.3895
-0.3785
-0.3585
-0.3625
-0.37
-0.336
-0.326
-0.331
-0.3215
-0.3245
-0.3225
-0.3145
-0.336
-0.3575
-0.369
-0.3775
-0.367
-0.376
-0.3885
-0.3925
-0.402
-0.4135
-0.4215
-0.42
-0.422
-0.4315
-0.4465
-0.442
-0.4365
-0.433
-0.4465
-0.468
-0.465
-0.4645
-0.4605
-0.445
-0.449
-0.475
-0.487
-0.4955
-0.487
-0.484
-0.5
-0.5085
-0.475
-0.415
-0.4315
-0.474
-0.4805
-0.478
-0.4855
-0.4915
-0.464
-0.424
-0.432
-0.4565
-0.449
-0.4595
-0.4795
-0.47
-0.455
-0.468
-0.487
-0.493
-0.492
-0.486
-0.4905
-0.491
-0.4775
-0.46
-0.4675
-0.481
-0.4765
-0.4725
-0.4725
-0.4785
-0.462
-0.4605
-0.4675
-0.4675
-0.474
-0.485
-0.5105
-0.5145
-0.5155
-0.52
-0.528
-0.5095
-0.4565
-0.463
-0.4995
-0.5115
-0.52
-0.5135
-0.491
-0.4865
-0.513
-0.5615
-0.591
-0.5915
-0.635
-0.665
-0.703
-0.7645
-0.7535
-0.724
-0.6925
-0.6795
-0.6975
-0.7135
-0.738
-0.7605
-0.763
-0.766
-0.7765
-0.758
-0.7075
-0.681
-0.657
-0.5985
-0.559
-0.526
-0.481
-0.443
-0.399
-0.3335
-0.261
-0.22
-0.18
-0.0995
-0.0155
0.034
0.07
0.1035
0.1145
0.116
0.139
0.159
0.1525
0.143
0.1465
0.1435
0.113
0.063
0.023
-0.0015
-0.04
-0.0835
-0.1095
-0.1225
-0.1325
-0.134
-0.11
-0.1165
-0.156
-0.1835
-0.209
-0.2385
-0.2885
-0.3135
-0.3165
-0.3535
-0.3745
-0.4025
-0.448
-0.4605
-0.4685
-0.4835
-0.5085
-0.527
-0.5365
-0.561
-0.59
-0.599
-0.5805
-0.5975
-0.623
-0.63
-0.645
-0.6375
-0.6585
-0.6875
-0.706
-0.752
-0.778
-0.773
-0.7925
-0.825
-0.837
-0.852
-0.854
-0.8615
-0.8675
-0.8355
-0.8075
-0.8255
-0.8205
-0.8265
-0.8565
-0.874
-0.8595
-0.834
-0.858
-0.8455
-0.8465
-0.8535
-0.8655
-0.8725
-0.855
-0.8705
-0.8515
-0.8145
-0.826
-0.8405
-0.812
-0.8065
-0.7885
-0.756
-0.74
-0.716
-0.698
-0.7
-0.7185
-0.7115
-0.671
-0.634
-0.6295
-0.626
-0.6165
-0.6095
-0.586
-0.5715
-0.5705
-0.571
-0.5725
-0.5545
-0.5235
-0.502
-0.501
-0.5055
-0.5165
-0.5155
-0.4945
-0.506
-0.4985
-0.479
-0.4895
-0.4895
-0.479
-0.4705
-0.4625
-0.461
-0.4515
-0.4305
-0.4385
-0.4455
-0.462
-0.4725
-0.453
-0.464
-0.475
-0.469
-0.485
-0.494
-0.4935
-0.4815
-0.4515
-0.4485
-0.455
-0.4605
-0.4545
-0.4475
-0.4585
-0.4575
-0.453
-0.4745
-0.497
-0.4815
-0.4435
-0.417
-0.421
-0.4325
-0.4465
-0.4675
-0.4645
-0.457
-0.47
-0.4515
-0.437
-0.4595
-0.4485
-0.421
-0.431
-0.4445
-0.444
-0.4445
-0.429
-0.425
-0.43
-0.4225
-0.4165
-0.3995
-0.406
-0.4345
-0.4385
-0.4175
-0.419
-0.455
-0.4285
-0.415
-0.436
-0.42
-0.417
-0.448
-0.4605
-0.4445
-0.4215
-0.3955
-0.4005
-0.4175
-0.4325
-0.43
-0.401
-0.384
-0.4055
-0.4065
-0.4095
-0.4225
-0.4175
-0.419
-0.4245
-0.418
-0.394
-0.398
-0.402
-0.4095
-0.412
-0.39
-0.369
-0.3905
-0.425
-0.435
-0.429
-0.4035
-0.403
-0.389
-0.382
-0.409
-0.4115
-0.3735
-0.3205
-0.295
-0.3005
-0.3465
-0.374
-0.381
-0.391
-0.3675
-0.344
-0.335
-0.3335
-0.347
-0.3345
-0.3315
-0.347
-0.338
-0.353
-0.3615
-0.349
-0.3425
-0.336
-0.336
-0.314
-0.297
-0.3145
-0.3145
-0.3335
-0.3365
-0.315
-0.3155
-0.309
-0.309
-0.298
-0.308
-0.302
-0.2705
-0.2895
-0.307
-0.2995
-0.307
-0.2955
-0.2565
-0.256
-0.2765
-0.2725
-0.25
-0.2665
-0.303
-0.304
-0.2725
-0.2625
-0.2785
-0.284
-0.288
-0.28
-0.2555
-0.2445
-0.2795
-0.302
-0.2985
-0.305
-0.2995
-0.2865
-0.269
-0.2535
-0.2765
-0.281
-0.261
-0.2675
-0.248
-0.2355
-0.2435
-0.253
-0.2695
-0.273
-0.2705
-0.2575
-0.2755
-0.2815
-0.253
-0.2725
-0.2895
-0.2865
-0.2755
-0.2585
-0.2705
-0.2765
-0.2705
-0.2725
-0.2685
-0.2475
-0.2705
-0.3
-0.2805
-0.277
-0.2975
-0.3305
-0.3335
-0.3275
-0.3525
-0.348
-0.3195
-0.33
-0.341
-0.323
-0.3355
-0.348
-0.3575
-0.355
-0.3465
-0.33
-0.3135
-0.3105
-0.2965
-0.3225
-0.339
-0.319
-0.332
-0.375
-0.3745
-0.3725
-0.3895
-0.373
-0.3615
-0.354
-0.341
-0.359
-0.385
-0.3965
-0.4045
-0.3895
-0.3285
-0.293
-0.334
-0.386
-0.3995
-0.3925
-0.416
-0.4255
-0.403
-0.427
-0.492
-0.4775
-0.4105
-0.385
-0.412
-0.42
-0.391
-0.409
-0.438
-0.4725
-0.445
-0.3985
-0.4155
-0.4185
-0.411
-0.3875
-0.3905
-0.424
-0.4475
-0.44
-0.409
-0.4105
-0.422
-0.4355
-0.446
-0.428
-0.411
-0.419
-0.442
-0.4515
-0.428
-0.4085
-0.4125
-0.394
-0.424
-0.4515
-0.429
-0.4585
-0.4785
-0.4675
-0.4625
-0.429
-0.426
-0.431
-0.397
-0.416
-0.4295
-0.44
-0.4455
-0.4175
-0.3905
-0.3755
-0.41
-0.453
-0.458
-0.448
-0.4595
-0.456
-0.471
-0.4835
-0.466
-0.4545
-0.45
-0.4425
-0.423
-0.4245
-0.424
-0.439
-0.427
-0.388
-0.3805
-0.399
-0.4355
-0.4345
-0.4355
-0.45
-0.451
-0.4385
-0.4295
-0.4185
-0.418
-0.44
-0.4435
-0.4485
-0.4395
-0.4265
-0.4055
-0.405
-0.4275
-0.419
-0.4175
-0.4235
-0.4525
-0.467
-0.453
-0.427
-0.4055
-0.419
-0.4125
-0.4125
-0.419
-0.423
-0.4385
-0.449
-0.4445
-0.4255
-0.422
-0.4275
-0.4235
-0.414
-0.4165
-0.4275
-0.4085
-0.379
-0.364
-0.3775
-0.403
-0.4235
-0.454
-0.4495
-0.432
-0.4285
-0.4105
-0.3925
-0.395
-0.4165
-0.4375
-0.4115
-0.395
-0.4225
-0.429
-0.412
-0.4175
-0.4155
-0.384
-0.399
-0.432
-0.4405
-0.4145
-0.3985
-0.412
-0.428
-0.4575
-0.455
-0.434
-0.433
-0.39
-0.3275
-0.3405
-0.379
-0.377
-0.3595
-0.358
-0.363
-0.365
-0.391
-0.4145
-0.3885
-0.3585
-0.359
-0.3715
-0.3915
-0.3855
-0.36
-0.359
-0.385
-0.4085
-0.4125
-0.397
-0.3745
-0.3665
-0.3755
-0.397
-0.411
-0.401
-0.408
-0.409
-0.3865
-0.383
-0.398
-0.409
-0.388
-0.365
-0.3405
-0.329
-0.34
-0.341
-0.347
-0.3525
-0.3535
-0.346
-0.3465
-0.3575
-0.3525
-0.359
-0.3795
-0.3935
-0.3815
-0.3525
-0.3345
-0.3275
-0.3075
-0.2885
-0.307
-0.316
-0.3045
-0.2755
-0.2845
-0.3235
-0.3175
-0.341
-0.3645
-0.3575
-0.3335
-0.3005
-0.2825
-0.2625
-0.273
-0.2965
-0.305
-0.3435
-0.353
-0.3225
-0.332
-0.325
-0.295
-0.3085
-0.338
-0.319
-0.2925
-0.297
-0.3315
-0.354
-0.3395
-0.369
-0.3805
-0.3665
-0.3735
-0.3585
-0.3435
-0.358
-0.4
-0.4215
-0.4055
-0.3835
-0.3705
-0.368
-0.359
-0.387
-0.4215
-0.412
-0.4465
-0.47
-0.472
-0.4625
-0.3835
-0.384
-0.4345
-0.4195
-0.4225
-0.4305
-0.4095
-0.405
-0.4405
-0.4465
-0.4275
-0.4185
-0.4245
-0.4445
-0.4345
-0.4225
-0.4235
-0.4285
-0.43
-0.43
-0.4305
-0.432
-0.434
-0.429
-0.417
-0.398
-0.4
-0.418
-0.4185
-0.446
-0.495
-0.4715
-0.422
-0.4015
-0.4
-0.398
-0.4075
-0.432
-0.443
-0.435
-0.41
-0.394
-0.385
-0.4065
-0.4175
-0.3975
-0.4
-0.393
-0.376
-0.384
-0.4015
-0.412
-0.4425
-0.4795
-0.5015
-0.5215
-0.542
-0.567
-0.569
-0.5735
-0.6025
-0.629
-0.6505
-0.669
-0.6865
-0.6755
-0.686
-0.696
-0.685
-0.7215
-0.744
-0.7395
-0.7405
-0.727
-0.701
-0.6805
-0.6585
-0.6065
-0.5195
-0.457
-0.449
-0.423
-0.3695
-0.318
-0.267
-0.1785
-0.112
-0.0835
-0.039
-0.0105
0.0085
0.0635
0.112
0.1215
0.1615
0.1705
0.1825
0.207
0.187
0.186
0.168
0.1205
0.0905
0.0555
0.028
-0.002
-0.0465
-0.07
-0.0945
-0.1125
-0.1255
-0.1275
-0.121
-0.118
-0.123
-0.147
-0.1775
-0.2285
-0.2565
-0.293
-0.3385
-0.358
-0.3895
-0.423
-0.447
-0.4745
-0.4845
-0.47
-0.4605
-0.445
-0.482
-0.5245
-0.531
-0.5415
-0.542
-0.5415
-0.54
-0.535
-0.539
-0.575
-0.609
-0.6445
-0.679
-0.6985
-0.708
-0.719
-0.751
-0.7785
-0.782
-0.763
-0.766
-0.775
-0.7655
-0.775
-0.7915
-0.8075
-0.8255
-0.8475
-0.8685
-0.857
-0.827
-0.83
-0.841
-0.8255
-0.809
-0.7955
-0.7925
-0.8055
-0.8205
-0.8235
-0.819
-0.806
-0.7575
-0.757
-0.8
-0.776
-0.737
-0.715
-0.709
-0.709
-0.684
-0.655
-0.625
-0.596
-0.5815
-0.579
-0.5735
-0.5645
-0.5525
-0.542
-0.536
-0.5215
-0.5195
-0.5235
-0.513
-0.512
-0.506
-0.4985
-0.498
-0.497
-0.494
-0.4845
-0.493
-0.4585
-0.431
-0.4505
-0.444
-0.452
-0.472
-0.48
-0.472
-0.4415
-0.4295
-0.44
-0.4375
-0.4365
-0.448
-0.455
-0.4345
-0.411
-0.4135
-0.4165
-0.4275
-0.4375
-0.434
-0.437
-0.429
-0.416
-0.4115
-0.3995
-0.411
-0.432
-0.445
-0.4505
-0.4465
-0.4255
-0.394
-0.381
-0.397
-0.4115
-0.4055
-0.397
-0.393
-0.4005
-0.4065
-0.4105
-0.414
-0.413
-0.4135
-0.418
-0.428
-0.422
-0.4115
-0.4165
-0.4185
-0.4245
-0.444
-0.4445
-0.4325
-0.412
-0.3855
-0.3785
-0.3875
-0.395
-0.386
-0.3775
-0.3825
-0.3915
-0.4005
-0.4005
-0.4035
-0.395
-0.381
-0.3955
-0.404
-0.3955
-0.388
-0.3885
-0.3835
-0.376
-0.382
-0.3755
-0.372
-0.3805
-0.388
-0.3935
-0.388
-0.397
-0.4005
-0.398
-0.4085
-0.3985
-0.3895
-0.365
-0.3325
-0.349
-0.3685
-0.3735
-0.3675
-0.3635
-0.3585
-0.348
-0.353
-0.3515
-0.3615
-0.3775
-0.3675
-0.367
-0.36
-0.313
-0.307
-0.3365
-0.3415
-0.338
-0.3315
-0.3445
-0.355
-0.3455
-0.3455
-0.351
-0.3375
-0.3165
-0.305
-0.298
-0.3105
-0.3165
-0.3065
-0.3
-0.303
-0.3025
-0.305
-0.309
-0.2985
-0.3065
-0.2985
-0.2735
-0.275
-0.2795
-0.2825
-0.297
-0.305
-0.3025
-0.3045
-0.3
-0.284
-0.272
-0.2665
-0.266
-0.2685
-0.2465
-0.2285
-0.248
-0.2495
-0.2495
-0.267
-0.2755
-0.2765
-0.2905
-0.292
-0.2645
-0.2515
-0.2505
-0.2565
-0.2515
-0.2315
-0.224
-0.2405
-0.2535
-0.2495
-0.2335
-0.211
-0.2145
-0.231
-0.249
-0.279
-0.2795
-0.2595
-0.247
-0.211
-0.208
-0.2235
-0.234
-0.2555
-0.262
-0.274
-0.271
-0.266
-0.259
-0.247
-0.2485
-0.2545
-0.2595
-0.2575
-0.2615
-0.2675
-0.2805
-0.279
-0.2595
-0.2535
-0.2555
-0.2605
-0.266
-0.2765
-0.2795
-0.286
-0.2935
-0.298
-0.2975
-0.2985
-0.2995
-0.3025
-0.312
-0.293
-0.286
-0.3135
-0.3295
-0.3305
-0.333
-0.3235
-0.315
-0.3145
-0.311
-0.3295
-0.352
-0.342
-0.334
-0.3365
-0.336
-0.347
-0.348
-0.3405
-0.3345
-0.348
-0.3655
-0.3595
-0.352
-0.361
-0.3805
-0.3765
-0.382
-0.39
-0.3855
-0.396
-0.39
-0.386
-0.392
-0.398
-0.4025
-0.4095
-0.3995
-0.383
-0.3975
-0.4075
-0.4135
-0.41
-0.4055
-0.4095
-0.415
-0.43
-0.446
-0.459
-0.438
-0.4235
-0.439
-0.4265
-0.39
-0.3715
-0.3955
-0.4
-0.397
-0.417
-0.434
-0.4515
-0.4695
-0.47
-0.427
-0.4015
-0.415
-0.4275
-0.43
-0.431
-0.4445
-0.457
-0.4575
-0.4565
-0.4565
-0.455
-0.4445
-0.425
-0.42
-0.427
-0.4285
-0.4225
-0.4255
-0.426
-0.4245
-0.4395
-0.4555
-0.4655
-0.4675
-0.4645
-0.4545
-0.45
-0.4335
-0.42
-0.4235
-0.4295
-0.434
-0.4405
-0.443
-0.4345
-0.4355
-0.433
-0.446
-0.4615
-0.449
-0.4285
-0.423
-0.4255
-0.433
-0.4335
-0.4265
-0.4325
-0.4295
-0.4205
-0.4205
-0.431
-0.437
-0.437
-0.4355
-0.43
-0.4315
-0.429
-0.425
-0.4245
-0.423
-0.4235
-0.4195
-0.412
-0.403
-0.4165
-0.447
-0.4595
-0.4685
-0.465
-0.4235
-0.3955
-0.411
-0.4285
-0.4285
-0.4215
-0.43
-0.438
-0.4635
-0.4925
-0.469
-0.459
-0.451
-0.3945
-0.3725
-0.413
-0.457
-0.4575
-0.414
-0.381
-0.405
-0.4215
-0.396
-0.396
-0.406
-0.404
-0.391
-0.3815
-0.404
-0.399
-0.369
-0.375
-0.3915
-0.399
-0.418
-0.4275
-0.416
-0.4275
-0.4285
-0.414
-0.41
-0.4
-0.425
-0.4425
-0.4085
-0.3995
-0.421
-0.4315
-0.4345
-0.4525
-0.4565
-0.425
-0.42
-0.45
-0.455
-0.437
-0.447
-0.4715
-0.4585
-0.429
-0.4405
-0.4305
-0.418
-0.429
-0.4015
-0.394
-0.405
-0.3905
-0.3785
-0.4075
-0.411
-0.3785
-0.3815
-0.3835
-0.369
-0.3405
-0.341
-0.375
-0.3975
-0.41
-0.4055
-0.4
-0.3735
-0.354
-0.3745
-0.3935
-0.4035
-0.4065
-0.4095
-0.4075
-0.396
-0.392
-0.4015
-0.3985
-0.3795
-0.379
-0.4045
-0.414
-0.396
-0.3835
-0.375
-0.362
-0.3375
-0.327
-0.315
-0.3035
-0.3215
-0.32
-0.322
-0.331
-0.3335
-0.349
-0.354
-0.351
-0.35
-0.345
-0.3295
-0.32
-0.32
-0.3385
-0.3575
-0.3725
-0.3785
-0.3625
-0.3645
-0.371
-0.3645
-0.37
-0.3895
-0.397
-0.3865
-0.36
-0.3505
-0.331
-0.296
-0.2985
-0.304
-0.328
-0.3635
-0.355
-0.327
-0.315
-0.322
-0.332
-0.3485
-0.386
-0.4205
-0.411
-0.4015
-0.401
-0.399
-0.4085
-0.404
-0.4125
-0.4215
-0.436
-0.438
-0.436
-0.4435
-0.434
-0.422
-0.406
-0.4155
-0.417
-0.423
-0.4415
-0.451
-0.4425
-0.4285
-0.438
-0.4525
-0.4625
-0.4485
-0.433
-0.433
-0.448
-0.449
-0.445
-0.444
-0.442
-0.448
-0.4485
-0.4465
-0.447
-0.459
-0.469
-0.477
-0.471
-0.4665
-0.463
-0.447
-0.458
-0.4575
-0.4335
-0.42
-0.4145
-0.42
-0.4405
-0.448
-0.4615
-0.4725
-0.4615
-0.4585
-0.4565
-0.461
-0.4585
-0.464
-0.4635
-0.4575
-0.4735
-0.4815
-0.4905
-0.486
-0.463
-0.434
-0.431
-0.469
-0.5
-0.5195
-0.5345
-0.545
-0.5555
-0.565
-0.5805
-0.596
-0.6225
-0.646
-0.6745
-0.6895
-0.6825
-0.691
-0.6795
-0.691
-0.709
-0.7165
-0.748
-0.7485
-0.7465
-0.7525
-0.746
-0.7175
-0.673
-0.6485
-0.6325
-0.617
-0.5865
-0.548
-0.512
-0.4615
-0.4095
-0.34
-0.2325
-0.15
-0.1185
-0.084
-0.034
0.0235
0.07
0.09
0.1195
0.1545
0.1815
0.2095
0.2185
0.195
0.1715
0.1665
0.1505
0.1025
0.062
0.0375
-0.006
-0.052
-0.0805
-0.0905
-0.103
-0.1325
-0.149
-0.159
-0.1905
-0.2225
-0.2365
-0.224
-0.2445
-0.338
-0.3695
-0.3275
-0.3325
-0.366
-0.414
-0.4715
-0.4855
-0.453
-0.4465
-0.4965
-0.5145
-0.4835
-0.492
-0.504
-0.4945
-0.524
-0.561
-0.583
-0.609
-0.644
-0.6675
-0.7015
-0.7325
-0.7555
-0.781
-0.7915
-0.807
-0.813
-0.8345
-0.8495
-0.8615
-0.8735
-0.879
-0.889
-0.88
-0.8765
-0.883
-0.892
-0.891
-0.8875
-0.8915
-0.905
-0.9135
-0.921
-0.9275
-0.9285
-0.9145
-0.8845
-0.8775
-0.8675
-0.8505
-0.8425
-0.8385
-0.8405
-0.8275
-0.794
-0.7675
-0.7515
-0.7395
-0.7325
-0.726
-0.723
-0.6925
-0.6705
-0.654
-0.619
-0.5945
-0.576
-0.579
-0.5745
-0.576
-0.584
-0.567
-0.5475
-0.5305
-0.5385
-0.5505
-0.537
-0.5175
-0.519
-0.524
-0.527
-0.5255
-0.509
-0.4975
-0.474
-0.457
-0.46
-0.488
-0.518
-0.503
-0.485
-0.4745
-0.479
-0.4925
-0.4705
-0.4665
-0.4805
-0.458
-0.4375
-0.431
-0.4425
-0.46
-0.459
-0.472
-0.4775
-0.492
-0.516
-0.5215
-0.5195
-0.4925
-0.4615
-0.4665
-0.473
-0.463
-0.451
-0.42
-0.4235
-0.4375
-0.44
-0.445
-0.457
-0.479
-0.451
-0.424
-0.4175
-0.421
-0.432
-0.419
-0.416
-0.421
-0.4275
-0.4455
-0.4445
-0.428
-0.4205
-0.428
-0.4415
-0.4455
-0.4535
-0.438
-0.4295
-0.4425
-0.437
-0.4305
-0.4425
-0.4755
-0.494
-0.499
-0.474
-0.4605
-0.4355
-0.4125
-0.45
-0.452
-0.455
-0.4565
-0.4355
-0.422
-0.405
-0.389
-0.389
-0.404
-0.4145
-0.4235
-0.4135
-0.4035
-0.4235
-0.4415
-0.4315
-0.4145
-0.4135
-0.4155
-0.412
-0.419
-0.4375
-0.4405
-0.431
-0.4205
-0.421
-0.4225
-0.402
-0.3675
-0.362
-0.379
-0.382
-0.3805
-0.3755
-0.386
-0.389
-0.3745
-0.364
-0.352
-0.3595
-0.3745
-0.3815
-0.383
-0.379
-0.3705
-0.3635
-0.3545
-0.358
-0.374
-0.3665
-0.355
-0.3425
-0.332
-0.329
-0.328
-0.3405
-0.3525
-0.341
-0.3305
-0.3405
-0.3355
-0.3315
-0.3235
-0.301
-0.3055
-0.3175
-0.3235
-0.333
-0.335
-0.324
-0.3255
-0.335
-0.3265
-0.302
-0.2865
-0.303
-0.33
-0.33
-0.3075
-0.2825
-0.2775
-0.3065
-0.3135
-0.3035
-0.2895
-0.2535
-0.2255
-0.234
-0.254
-0.2595
-0.267
-0.2705
-0.2765
-0.28
-0.288
-0.2785
-0.2745
-0.293
-0.277
-0.2795
-0.287
-0.2775
-0.2845
-0.288
-0.287
-0.283
-0.267
-0.248
-0.251
-0.26
-0.2685
-0.266
-0.257
-0.2735
-0.295
-0.2785
-0.2645
-0.2795
-0.2845
-0.275
-0.2675
-0.285
-0.3035
-0.309
-0.302
-0.2855
-0.2705
-0.259
-0.272
-0.282
-0.282
-0.2935
-0.2975
-0.2945
-0.302
-0.3215
-0.333
-0.303
-0.2925
-0.3225
-0.34
-0.3545
-0.345
-0.3295
-0.335
-0.335
-0.325
-0.3085
-0.317
-0.3285
-0.331
-0.343
-0.359
-0.386
-0.3835
-0.383
-0.4015
-0.391
-0.384
-0.3945
-0.417
-0.407
-0.3665
-0.364
-0.3815
-0.398
-0.424
-0.438
-0.4105
-0.3755
-0.3625
-0.3685
-0.3785
-0.3685
-0.377
-0.4045
-0.414
-0.4135
-0.4165
-0.419
-0.3955
-0.3755
-0.388
-0.411
-0.435
-0.443
-0.4155
-0.382
-0.386
-0.3975
-0.38
-0.3695
-0.373
-0.399
-0.442
-0.4665
-0.4785
-0.476
-0.463
-0.462
-0.471
-0.478
-0.47
-0.458
-0.4475
-0.4325
-0.4255
-0.4305
-0.4365
-0.434
-0.443
-0.4485
-0.446
-0.4425
-0.448
-0.454
-0.4575
-0.4715
-0.4835
-0.5205
-0.538
-0.521
-0.5065
-0.495
-0.5045
-0.516
-0.4855
-0.4355
-0.4095
-0.397
-0.3845
-0.377
-0.369
-0.3665
-0.4025
-0.433
-0.447
-0.4595
-0.442
-0.473
-0.499
-0.4685
-0.445
-0.451
-0.451
-0.4205
-0.418
-0.421
-0.4335
-0.454
-0.4485
-0.4175
-0.404
-0.4145
-0.423
-0.4555
-0.4745
-0.4775
-0.476
-0.473
-0.4755
-0.4765
-0.4755
-0.4725
-0.4795
-0.49
-0.4835
-0.4685
-0.4785
-0.468
-0.459
-0.4555
-0.43
-0.4485
-0.477
-0.4805
-0.4675
-0.459
-0.45
-0.438
-0.455
-0.455
-0.424
-0.4185
-0.439
-0.448
-0.4345
-0.4345
-0.4645
-0.471
-0.4555
-0.4475
-0.4515
-0.4425
-0.4335
-0.433
-0.4275
-0.4305
-0.4305
-0.4505
-0.477
-0.4695
-0.4635
-0.4825
-0.4925
-0.4935
-0.464
-0.4155
-0.419
-0.4405
-0.452
-0.4435
-0.4165
-0.416
-0.4195
-0.4135
-0.4205
-0.429
-0.428
-0.4295
-0.44
-0.4385
-0.4305
-0.429
-0.4165
-0.4115
-0.418
-0.4065
-0.398
-0.4045
-0.414
-0.4175
-0.4135
-0.41
-0.41
-0.4175
-0.419
-0.4155
-0.4185
-0.4355
-0.4485
-0.465
-0.4935
-0.5135
-0.535
-0.55
-0.522
-0.4285
-0.362
-0.392
-0.4405
-0.4045
-0.372
-0.3985
-0.3795
-0.355
-0.3245
-0.321
-0.372
-0.3885
-0.384
-0.3915
-0.396
-0.38
-0.32
-0.268
-0.2825
-0.2835
-0.2915
-0.313
-0.299
-0.2845
-0.2865
-0.3155
-0.348
-0.383
-0.4195
-0.425
-0.413
-0.3945
-0.377
-0.3695
-0.3535
-0.339
-0.3295
-0.3355
-0.3525
-0.352
-0.3465
-0.345
-0.3595
-0.369
-0.364
-0.3535
-0.3545
-0.346
-0.3285
-0.338
-0.323
-0.3105
-0.3255
-0.326
-0.324
-0.359
-0.4095
-0.4085
-0.3715
-0.379
-0.436
-0.4565
-0.455
-0.459
-0.424
-0.3935
-0.3875
-0.387
-0.411
-0.4235
-0.426
-0.441
-0.4385
-0.4395
-0.442
-0.429
-0.428
-0.4425
-0.4535
-0.4555
-0.4625
-0.467
-0.4505
-0.454
-0.4705
-0.461
-0.433
-0.4125
-0.4395
-0.4645
-0.4555
-0.461
-0.4615
-0.4565
-0.458
-0.4585
-0.4485
-0.4325
-0.429
-0.433
-0.4605
-0.469
-0.4535
-0.4595
-0.4735
-0.4625
-0.453
-0.4825
-0.5025
-0.4905
-0.462
-0.4425
-0.473
-0.4775
-0.4585
-0.468
-0.461
-0.4665
-0.4605
-0.458
-0.4795
-0.4825
-0.4675
-0.4625
-0.482
-0.488
-0.478
-0.4735
-0.473
-0.484
-0.489
-0.484
-0.5
-0.5085
-0.495
-0.5005
-0.5325
-0.5655
-0.593
-0.6215
-0.658
-0.6865
-0.699
-0.7215
-0.7265
-0.72
-0.741
-0.7255
-0.709
-0.7395
-0.7695
-0.791
-0.799
-0.7865
-0.746
-0.7125
-0.665
-0.6075
-0.5645
-0.5025
-0.4645
-0.448
-0.4105
-0.341
-0.2755
-0.216
-0.174
-0.1135
-0.0255
0.0225
0.07
0.09
0.09
0.123
0.164
0.16
0.176
0.2035
0.18
0.1635
0.1325
0.077
0.041
0.043
0.011
-0.014
-0.0225
-0.044
-0.0625
-0.1045
-0.1245
-0.1255
-0.1465
-0.209
-0.2425
-0.232
-0.242
-0.2675
-0.304
-0.357
-0.376
-0.385
-0.433
-0.4495
-0.4625
-0.487
-0.504
-0.533
-0.526
-0.5265
-0.5635
-0.5905
-0.618
-0.6345
-0.6395
-0.6635
-0.684
-0.698
-0.709
-0.7105
-0.732
-0.7695
-0.816
-0.846
-0.8725
-0.863
-0.863
-0.88
-0.8785
-0.8835
-0.826
-0.8215
-0.8365
-0.8465
-0.9
-0.8955
-0.884
-0.887
-0.898
-0.909
-0.9225
-0.9115
-0.866
-0.871
-0.8955
-0.9005
-0.901
-0.891
-0.8865
-0.876
-0.8395
-0.808
-0.8205
-0.8015
-0.757
-0.743
-0.735
-0.7335
-0.7085
-0.7265
-0.741
-0.685
-0.634
-0.6235
-0.651
-0.658
-0.643
-0.6375
-0.6315
-0.592
-0.544
-0.5185
-0.516
-0.519
-0.515
-0.516
-0.5215
-0.5325
-0.532
-0.536
-0.538
-0.5225
-0.502
-0.489
-0.4885
-0.5105
-0.5075
-0.493
-0.513
-0.5325
-0.491
-0.4405
-0.4605
-0.4625
-0.4615
-0.4445
-0.406
-0.434
-0.4635
-0.467
-0.466
-0.446
-0.4385
-0.453
-0.4445
-0.433
-0.45
-0.4595
-0.4575
-0.4435
-0.4495
-0.473
-0.462
-0.4775
-0.526
-0.5455
-0.518
-0.533
-0.5825
-0.573
-0.56
-0.5235
-0.4525
-0.406
-0.4185
-0.43
-0.363
-0.339
-0.391
-0.4045
-0.388
-0.411
-0.4455
-0.4465
-0.4225
-0.3975
-0.432
-0.482
-0.4395
-0.3975
-0.4355
-0.4465
-0.4285
-0.418
-0.408
-0.4105
-0.401
-0.405
-0.4375
-0.4755
-0.455
-0.4145
-0.4305
-0.4265
-0.4025
-0.4185
-0.4275
-0.428
-0.4255
-0.411
-0.409
-0.419
-0.427
-0.3995
-0.3855
-0.402
-0.415
-0.4135
-0.407
-0.403
-0.3895
-0.386
-0.402
-0.4285
-0.43
-0.4065
-0.4065
-0.3995
-0.389
-0.4135
-0.4125
-0.402
-0.4155
-0.451
-0.4805
-0.4725
-0.459
-0.389
-0.347
-0.4075
-0.4145
-0.3945
-0.4185
-0.432
-0.4235
-0.409
-0.3655
-0.321
-0.3195
-0.3435
-0.344
-0.287
-0.2385
-0.2495
-0.2935
-0.296
-0.2715
-0.287
-0.3275
-0.3125
-0.2665
-0.2925
-0.33
-0.3415
-0.3505
-0.3455
-0.317
-0.292
-0.3025
-0.3555
-0.38
-0.3585
-0.327
-0.301
-0.3055
-0.2995
-0.2975
-0.307
-0.3025
-0.3005
-0.274
-0.2545
-0.286
-0.293
-0.286
-0.2955
-0.2805
-0.2545
-0.258
-0.277
-0.278
-0.279
-0.291
-0.2905
-0.289
-0.29
-0.2825
-0.288
-0.2865
-0.2925
-0.294
-0.296
-0.3045
-0.279
-0.259
-0.2595
-0.2725
-0.279
-0.2635
-0.2475
-0.27
-0.2835
-0.2675
-0.27
-0.268
-0.2825
-0.2935
-0.279
-0.2875
-0.2935
-0.2775
-0.2695
-0.3
-0.3145
-0.313
-0.295
-0.245
-0.27
-0.3225
-0.337
-0.327
-0.3155
-0.29
-0.2735
-0.308
-0.338
-0.3615
-0.373
-0.3645
-0.3345
-0.2905
-0.2515
-0.2875
-0.305
-0.278
-0.275
-0.299
-0.336
-0.316
-0.314
-0.326
-0.3625
-0.368
-0.3495
-0.372
-0.347
-0.329
-0.3565
-0.388
-0.391
-0.368
-0.3395
-0.351
-0.3735
-0.3765
-0.387
-0.3975
-0.3855
-0.378
-0.383
-0.386
-0.4025
-0.3975
-0.373
-0.3555
-0.381
-0.4255
-0.439
-0.4235
-0.4195
-0.4395
-0.458
-0.4735
-0.4625
-0.4425
-0.438
-0.4675
-0.469
-0.4135
-0.38
-0.3965
-0.4325
-0.4335
-0.426
-0.4055
-0.403
-0.4495
-0.4415
-0.4015
-0.4035
-0.4095
-0.407
-0.4175
-0.43
-0.445
-0.432
-0.404
-0.3785
-0.3725
-0.4125
-0.4335
-0.444
-0.4415
-0.3955
-0.385
-0.4255
-0.434
-0.4345
-0.4455
-0.453
-0.4575
-0.4355
-0.4385
-0.478
-0.4945
-0.4735
-0.485
-0.511
-0.4885
-0.421
-0.3965
-0.4365
-0.4535
-0.4635
-0.4685
-0.454
-0.4625
-0.468
-0.4645
-0.471
-0.4535
-0.4555
-0.44
-0.3725
-0.375
-0.446
-0.483
-0.523
-0.5345
-0.505
-0.455
-0.393
-0.408
-0.396
-0.372
-0.392
-0.404
-0.4235
-0.4135
-0.4055
-0.424
-0.43
-0.439
-0.438
-0.423
-0.433
-0.4545
-0.459
-0.449
-0.432
-0.425
-0.433
-0.424
-0.429
-0.421
-0.4175
-0.4455
-0.449
-0.4605
-0.468
-0.4835
-0.468
-0.478
-0.522
-0.475
-0.4335
-0.439
-0.4155
-0.4035
-0.4335
-0.4315
-0.4355
-0.422
-0.419
-0.426
-0.428
-0.446
-0.4315
-0.4325
-0.4335
-0.4265
-0.414
-0.4305
-0.46
-0.479
-0.5185
-0.5315
-0.521
-0.5155
-0.4855
-0.4855
-0.4275
-0.355
-0.4105
-0.3865
-0.3835
-0.465
-0.446
-0.3745
-0.3435
-0.3625
-0.366
-0.35
-0.372
-0.3795
-0.342
-0.35
-0.3985
-0.4095
-0.412
-0.4305
-0.3925
-0.3425
-0.3615
-0.3785
-0.363
-0.3645
-0.3855
-0.3885
-0.378
-0.3785
-0.3815
-0.394
-0.4095
-0.416
-0.418
-0.4145
-0.422
-0.4435
-0.437
-0.413
-0.4075
-0.387
-0.364
-0.359
-0.3915
-0.4315
-0.4055
-0.3655
-0.3815
-0.369
-0.321
-0.3225
-0.3135
-0.312
-0.3395
-0.348
-0.333
-0.338
-0.36
-0.357
-0.3475
-0.325
-0.3145
-0.2815
-0.2615
-0.302
-0.3165
-0.3305
-0.336
-0.328
-0.351
-0.3865
-0.3925
-0.37
-0.362
-0.3535
-0.353
-0.366
-0.376
-0.3515
-0.346
-0.35
-0.309
-0.343
-0.381
-0.338
-0.299
-0.2625
-0.243
-0.2785
-0.2945
-0.302
-0.3125
-0.309
-0.3155
-0.313
-0.3395
-0.376
-0.3865
-0.39
-0.361
-0.326
-0.33
-0.341
-0.3495
-0.3765
-0.403
-0.4195
-0.444
-0.467
-0.4495
-0.4375
-0.477
-0.486
-0.443
-0.4295
-0.419
-0.401
-0.4395
-0.429
-0.412
-0.419
-0.4295
-0.437
-0.409
-0.422
-0.41
-0.404
-0.42
-0.4265
-0.4285
-0.4255
-0.4375
-0.4495
-0.454
-0.4655
-0.5025
-0.468
-0.425
-0.436
-0.4405
-0.4325
-0.4205
-0.459
-0.4615
-0.4055
-0.386
-0.412
-0.4235
-0.425
-0.453
-0.454
-0.433
-0.3765
-0.3645
-0.4165
-0.423
-0.4185
-0.4135
-0.41
-0.4025
-0.385
-0.406
-0.429
-0.463
-0.498
-0.4855
-0.48
-0.4415
-0.458
-0.5035
-0.473
-0.498
-0.5005
-0.4915
-0.5425
-0.5425
-0.5275
-0.576
-0.6465
-0.683
-0.665
-0.63
-0.625
-0.6275
-0.6775
-0.7385
-0.74
-0.734
-0.7395
-0.744
-0.7295
-0.7045
-0.666
-0.641
-0.6105
-0.552
-0.481
-0.433
-0.437
-0.422
-0.3805
-0.336
-0.247
-0.147
-0.126
-0.1025
0.019
0.1435
0.1385
0.1295
0.2315
0.264
0.214
0.206
0.246
0.259
0.235
0.24
0.1885
0.1095
0.0755
0.0425
-0.003
-0.0475
-0.068
-0.081
-0.079
-0.061
-0.0845
-0.1185
-0.14
-0.186
-0.205
-0.216
-0.2665
-0.302
-0.3075
-0.3365
-0.351
-0.387
-0.4295
-0.437
-0.4765
-0.459
-0.4385
-0.408
-0.3685
-0.432
-0.5005
-0.539
-0.5255
-0.5035
-0.5195
-0.536
-0.559
-0.594
-0.6305
-0.63
-0.6305
-0.6605
-0.6935
-0.6995
-0.72
-0.7675
-0.8025
-0.8205
-0.792
-0.7735
-0.7675
-0.7595
-0.7535
-0.7465
-0.753
-0.7785
-0.8045
-0.818
-0.85
-0.8415
-0.822
-0.83
-0.8345
-0.835
-0.836
-0.837
-0.8295
-0.8345
-0.8275
-0.8205
-0.823
-0.8275
-0.815
-0.786
-0.7775
-0.7805
-0.7595
-0.67
-0.613
-0.611
-0.5755
-0.5595
-0.553
-0.5285
-0.526
-0.5515
-0.56
-0.5675
-0.5585
-0.5335
-0.532
-0.49
-0.464
-0.455
-0.5025
-0.521
-0.467
-0.4365
-0.418
-0.4645
-0.467
-0.467
-0.4815
-0.478
-0.471
-0.4345
-0.448
-0.4555
-0.418
-0.3755
-0.3795
-0.395
-0.395
-0.4175
-0.4295
-0.442
-0.4405
-0.454
-0.4335
-0.4035
-0.4165
-0.4005
-0.397
-0.3735
-0.363
-0.3775
-0.382
-0.4025
-0.4295
-0.427
-0.4125
-0.405
-0.39
-0.3885
-0.372
-0.388
-0.4165
-0.4175
-0.4295
-0.435
-0.424
-0.4205
-0.435
-0.3985
-0.39
-0.392
-0.366
-0.362
-0.3335
-0.337
-0.319
-0.3195
-0.3495
-0.3465
-0.3685
-0.3655
-0.3445
-0.314
-0.3095
-0.347
-0.3635
-0.365
-0.3755
-0.387
-0.4075
-0.3935
-0.349
-0.341
-0.345
-0.347
-0.3675
-0.391
-0.387
-0.391
-0.38
-0.369
-0.3705
-0.347
-0.3585
-0.3875
-0.3855
-0.3715
-0.3745
-0.358
-0.3255
-0.3415
-0.3585
-0.351
-0.35
-0.347
-0.362
-0.4105
-0.4185
-0.407
-0.426
-0.426
-0.387
-0.329
-0.2785
-0.281
-0.3085
-0.289
-0.3025
-0.295
-0.242
-0.2445
-0.2665
-0.3185
-0.361
-0.3485
-0.314
-0.2885
-0.2575
-0.2475
-0.266
-0.2825
-0.314
-0.3165
-0.292
-0.267
-0.247
-0.238
-0.2765
-0.314
-0.2985
-0.308
-0.304
-0.265
-0.2555
-0.263
-0.245
-0.22
-0.234
-0.261
-0.263
-0.24
-0.213
-0.2465
-0.284
-0.2755
-0.2395
-0.236
-0.27
-0.2585
-0.258
-0.262
-0.2555
-0.242
-0.2375
-0.232
-0.219
-0.2425
-0.216
-0.1965
-0.2145
-0.2085
-0.184
-0.165
-0.1945
-0.207
-0.2025
-0.231
-0.221
-0.201
-0.2075
-0.2115
-0.2225
-0.2225
-0.2115
-0.211
-0.2215
-0.232
-0.2385
-0.2585
-0.2795
-0.2845
-0.2895
-0.265
-0.214
-0.1895
-0.213
-0.2305
-0.194
-0.1535
-0.155
-0.1515
-0.1645
-0.2185
-0.2355
-0.233
-0.228
-0.219
-0.2105
-0.217
-0.2235
-0.2005
-0.2015
-0.224
-0.208
-0.217
-0.2385
-0.196
-0.233
-0.2785
-0.222
-0.197
-0.2115
-0.236
-0.2575
-0.262
-0.2705
-0.2685
-0.2615
-0.293
-0.318
-0.3025
-0.3135
-0.3335
-0.3225
-0.2995
-0.2815
-0.2755
-0.2865
-0.2875
-0.2875
-0.3125
-0.312
-0.3005
-0.2915
-0.304
-0.35
-0.3725
-0.335
-0.301
-0.314
-0.307
-0.319
-0.341
-0.327
-0.3155
-0.3435
-0.409
-0.434
-0.4015
-0.367
-0.3375
-0.3065
-0.3085
-0.3095
-0.292
-0.287
-0.2915
-0.3225
-0.366
-0.362
-0.3615
-0.37
-0.375
-0.366
-0.331
-0.329
-0.3335
-0.3455
-0.3625
-0.3745
-0.3465
-0.353
-0.371
-0.3525
-0.367
-0.4055
-0.4395
-0.3605
-0.313
-0.3125
-0.305
-0.3475
-0.3625
-0.397
-0.395
-0.396
-0.437
-0.419
-0.408
-0.412
-0.392
-0.387
-0.3965
-0.4
-0.396
-0.392
-0.401
-0.397
-0.391
-0.369
-0.368
-0.3815
-0.37
-0.3885
-0.4045
-0.403
-0.3685
-0.36
-0.3915
-0.3835
-0.3905
-0.4265
-0.4475
-0.449
-0.4185
-0.3545
-0.3365
-0.362
-0.3675
-0.3575
-0.38
-0.3685
-0.357
-0.3685
-0.3305
-0.3565
-0.392
-0.3805
-0.365
-0.3525
-0.361
-0.3475
-0.3125
-0.3065
-0.3835
-0.442
-0.4105
-0.3665
-0.3365
-0.348
-0.347
-0.349
-0.3705
-0.369
-0.41
-0.4085
-0.3655
-0.364
-0.356
-0.352
-0.346
-0.3565
-0.3835
-0.404
-0.3895
-0.375
-0.3775
-0.3535
-0.342
-0.3455
-0.336
-0.3425
-0.3755
-0.3995
-0.407
-0.3855
-0.364
-0.344
-0.323
-0.3025
-0.295
-0.347
-0.379
-0.3805
-0.4055
-0.421
-0.4195
-0.402
-0.3845
-0.4205
-0.418
-0.36
-0.332
-0.2825
-0.2625
-0.299
-0.3265
-0.362
-0.389
-0.38
-0.375
-0.379
-0.3735
-0.3845
-0.398
-0.4215
-0.427
-0.378
-0.3365
-0.3015
-0.288
-0.33
-0.372
-0.358
-0.3115
-0.2885
-0.284
-0.326
-0.3645
-0.3695
-0.377
-0.372
-0.3685
-0.3785
-0.3655
-0.326
-0.317
-0.3085
-0.3395
-0.3505
-0.369
-0.406
-0.329
-0.3015
-0.315
-0.3435
-0.34
-0.29
-0.3
-0.3075
-0.3405
-0.321
-0.329
-0.3625
-0.3075
-0.301
-0.3105
-0.3325
-0.359
-0.3505
-0.3435
-0.351
-0.3545
-0.333
-0.281
-0.264
-0.2795
-0.268
-0.2755
-0.275
-0.3035
-0.2955
-0.2485
-0.2535
-0.2425
-0.2595
-0.2725
-0.2535
-0.277
-0.282
-0.2675
-0.281
-0.3195
-0.357
-0.344
-0.311
-0.301
-0.308
-0.298
-0.302
-0.2765
-0.249
-0.287
-0.298
-0.274
-0.265
-0.261
-0.2445
-0.2545
-0.285
-0.321
-0.332
-0.322
-0.324
-0.313
-0.294
-0.283
-0.2685
-0.279
-0.309
-0.3265
-0.3185
-0.27
-0.2695
-0.326
-0.374
-0.383
-0.3735
-0.3485
-0.3525
-0.366
-0.3555
-0.356
-0.3805
-0.42
-0.391
-0.364
-0.3685
-0.3735
-0.3825
-0.4155
-0.4795
-0.4545
-0.3765
-0.3905
-0.4115
-0.3855
-0.388
-0.414
-0.4475
-0.431
-0.4035
-0.425
-0.414
-0.3905
-0.3655
-0.3415
-0.38
-0.4015
-0.385
-0.3915
-0.379
-0.375
-0.389
-0.413
-0.456
-0.4405
-0.385
-0.381
-0.428
-0.417
-0.375
-0.389
-0.3955
-0.4045
-0.412
-0.403
-0.407
-0.3815
-0.374
-0.3895
-0.3985
-0.392
-0.3615
-0.3385
-0.338
-0.3825
-0.4075
-0.409
-0.4465
-0.453
-0.446
-0.4755
-0.471
-0.448
-0.4655
-0.486
-0.485
-0.4965
-0.5435
-0.6275
-0.6765
-0.7365
-0.734
-0.695
-0.698
-0.6585
-0.646
-0.6625
-0.708
-0.7085
-0.637
-0.628
-0.6575
-0.6265
-0.5795
-0.5245
-0.4715
-0.446
-0.4295
-0.43
-0.402
-0.3235
-0.217
-0.154
-0.1295
-0.0685
0.0355
0.1035
0.1065
0.1045
0.141
0.197
0.249
0.2905
0.263
0.236
0.245
0.247
0.2315
0.211
0.1945
0.1545
0.1065
0.053
0.007
0.0055
0.0015
-0.0265
-0.0355
-0.029
-0.0605
-0.074
-0.1015
-0.168
-0.1935
-0.2255
-0.2535
-0.3
-0.3205
-0.3195
-0.3575
-0.4095
-0.4405
-0.4775
-0.537
-0.538
-0.511
-0.498
-0.519
-0.535
-0.5175
-0.4825
-0.444
-0.4405
-0.4985
-0.5385
-0.5595
-0.607
-0.634
-0.6455
-0.6345
-0.636
-0.6695
-0.7135
-0.7465
-0.749
-0.722
-0.75
-0.8195
-0.829
-0.8215
-0.7975
-0.7775
-0.7775
-0.7995
-0.8145
-0.786
-0.7925
-0.8165
-0.8175
-0.8085
-0.7795
-0.7685
-0.857
-0.8825
-0.7985
-0.7575
-0.725
-0.737
-0.7815
-0.791
-0.778
-0.759
-0.7155
-0.682
-0.6705
-0.6245
-0.5935
-0.589
-0.593
-0.6085
-0.605
-0.5905
-0.5585
-0.52
-0.512
-0.523
-0.5165
-0.495
-0.471
-0.4475
-0.452
-0.4575
-0.449
-0.441
-0.436
-0.3885
-0.3985
-0.465
-0.421
-0.433
-0.4525
-0.402
-0.4215
-0.408
-0.3955
-0.4285
-0.4425
-0.4425
-0.4415
-0.4405
-0.425
-0.384
-0.3425
-0.3335
-0.3615
-0.3985
-0.3925
-0.3855
-0.397
-0.4005
-0.405
-0.4175
-0.4305
-0.4325
-0.442
-0.4355
-0.4065
-0.404
-0.4015
-0.393
-0.392
-0.368
-0.3285
-0.355
-0.3935
-0.3535
-0.328
-0.3235
-0.3445
-0.38
-0.3725
-0.3805
-0.4005
-0.3725
-0.3805
-0.417
-0.3905
-0.388
-0.39
-0.357
-0.36
-0.3645
-0.3445
-0.3295
-0.3385
-0.388
-0.406
-0.3745
-0.37
-0.3565
-0.3525
-0.3635
-0.344
-0.318
-0.3285
-0.3375
-0.348
-0.379
-0.3755
-0.4265
-0.4375
-0.393
-0.392
-0.3965
-0.3655
-0.338
-0.374
-0.3835
-0.3905
-0.4
-0.4035
-0.378
-0.3925
-0.369
-0.334
-0.4095
-0.321
-0.2615
-0.282
-0.277
-0.3355
-0.337
-0.343
-0.3725
-0.3705
-0.3245
-0.2755
-0.259
-0.2435
-0.2515
-0.2595
-0.2775
-0.319
-0.3305
-0.3215
-0.324
-0.3425
-0.3415
-0.311
-0.2545
-0.225
-0.2655
-0.3135
-0.3225
-0.304
-0.282
-0.2625
-0.247
-0.2555
-0.266
-0.2655
-0.2705
-0.257
-0.2455
-0.2735
-0.291
-0.277
-0.2835
-0.2725
-0.235
-0.253
-0.272
-0.252
-0.222
-0.1835
-0.1855
-0.2405
-0.2755
-0.287
-0.283
-0.248
-0.2125
-0.1865
-0.1855
-0.2
-0.2045
-0.199
-0.2245
-0.2335
-0.2095
-0.209
-0.2315
-0.219
-0.1785
-0.2005
-0.203
-0.1895
-0.2185
-0.2355
-0.2145
-0.1745
-0.174
-0.1925
-0.2005
-0.2065
-0.198
-0.218
-0.225
-0.1815
-0.197
-0.2055
-0.1735
-0.1785
-0.179
-0.18
-0.174
-0.2255
-0.3165
-0.2655
-0.1755
-0.121
-0.124
-0.1845
-0.216
-0.26
-0.2295
-0.1645
-0.136
-0.149
-0.1795
-0.192
-0.235
-0.254
-0.229
-0.1965
-0.187
-0.1745
-0.1715
-0.1675
-0.1705
-0.194
-0.202
-0.2115
-0.212
-0.2315
-0.257
-0.2495
-0.256
-0.275
-0.2755
-0.258
-0.2415
-0.232
-0.1895
-0.179
-0.154
-0.1555
-0.194
-0.247
-0.335
-0.3105
-0.2935
-0.2885
-0.2395
-0.2095
-0.2345
-0.2675
-0.2795
-0.295
-0.288
-0.271
-0.258
-0.2765
-0.298
-0.2915
-0.295
-0.3335
-0.348
-0.312
-0.287
-0.3005
-0.2855
-0.288
-0.3195
-0.342
-0.351
-0.3545
-0.3595
-0.358
-0.354
-0.3035
-0.2845
-0.274
-0.284
-0.315
-0.324
-0.331
-0.305
-0.3005
-0.3365
-0.3525
-0.325
-0.321
-0.322
-0.338
-0.359
-0.3275
-0.346
-0.379
-0.3505
-0.328
-0.3385
-0.3325
-0.327
-0.337
-0.357
-0.4075
-0.387
-0.3475
-0.3515
-0.3835
-0.3895
-0.3455
-0.3455
-0.321
-0.3175
-0.3635
-0.3855
-0.4135
-0.417
-0.4065
-0.407
-0.38
-0.356
-0.3745
-0.3645
-0.358
-0.353
-0.343
-0.3335
-0.3015
-0.307
-0.3275
-0.339
-0.337
-0.3685
-0.4115
-0.3995
-0.3815
-0.385
-0.3915
-0.3945
-0.3895
-0.357
-0.2975
-0.3165
-0.3745
-0.41
-0.4285
-0.3775
-0.3425
-0.3535
-0.337
-0.32
-0.3345
-0.321
-0.339
-0.395
-0.4345
-0.403
-0.374
-0.386
-0.3535
-0.354
-0.3505
-0.353
-0.393
-0.392
-0.3545
-0.3495
-0.382
-0.366
-0.3685
-0.383
-0.3295
-0.29
-0.2735
-0.2545
-0.2705
-0.3005
-0.31
-0.323
-0.351
-0.365
-0.333
-0.316
-0.347
-0.368
-0.3595
-0.361
-0.361
-0.361
-0.361
-0.3625
-0.38
-0.3835
-0.3595
-0.338
-0.343
-0.361
-0.3765
-0.3525
-0.3415
-0.304
-0.266
-0.2945
-0.3525
-0.4105
-0.4055
-0.4205
-0.393
-0.357
-0.378
-0.3445
-0.33
-0.383
-0.398
-0.363
-0.3495
-0.3135
-0.31
-0.3495
-0.331
-0.3115
-0.321
-0.313
-0.2905
-0.299
-0.305
-0.273
-0.2825
-0.329
-0.311
-0.291
-0.357
-0.401
-0.3435
-0.2825
-0.2965
-0.271
-0.236
-0.2385
-0.243
-0.25
-0.2945
-0.3175
-0.2295
-0.2435
-0.29
-0.284
-0.31
-0.307
-0.2955
-0.2645
-0.246
-0.271
-0.287
-0.307
-0.3185
-0.3165
-0.286
-0.2555
-0.2575
-0.24
-0.265
-0.29
-0.305
-0.326
-0.281
-0.214
-0.2145
-0.236
-0.214
-0.2405
-0.2465
-0.2205
-0.2345
-0.2705
-0.2965
-0.3235
-0.3395
-0.2835
-0.2835
-0.3105
-0.305
-0.294
-0.2795
-0.256
-0.203
-0.2015
-0.219
-0.228
-0.246
-0.2555
-0.216
-0.1805
-0.22
-0.2475
-0.237
-0.2265
-0.192
-0.1975
-0.2455
-0.253
-0.31
-0.3375
-0.291
-0.2655
-0.263
-0.2825
-0.3185
-0.3455
-0.33
-0.331
-0.345
-0.3205
-0.299
-0.328
-0.3625
-0.398
-0.4105
-0.3605
-0.327
-0.2725
-0.3185
-0.41
-0.2955
-0.231
-0.2825
-0.3075
-0.34
-0.3685
-0.362
-0.352
-0.3605
-0.356
-0.371
-0.375
-0.4035
-0.422
-0.351
-0.3185
-0.3405
-0.351
-0.3435
-0.357
-0.3655
-0.3695
-0.356
-0.3225
-0.3275
-0.348
-0.3845
-0.397
-0.3835
-0.372
-0.3485
-0.3225
-0.3345
-0.366
-0.4045
-0.412
-0.3925
-0.3935
-0.4005
-0.416
-0.4515
-0.439
-0.345
-0.3045
-0.1905
-0.1465
-0.2325
-0.2895
-0.391
-0.419
-0.368
-0.332
-0.3765
-0.4415
-0.4855
-0.472
-0.436
-0.4615
-0.517
-0.5275
-0.494
-0.5385
-0.593
-0.627
-0.6375
-0.619
-0.6195
-0.6345
-0.6775
-0.6855
-0.672
-0.6625
-0.638
-0.6055
-0.565
-0.511
-0.4375
-0.3865
-0.3695
-0.339
-0.2885
-0.239
-0.213
-0.1835
-0.154
-0.125
-0.055
0.0635
0.178
0.1845
0.1725
0.2475
0.3385
0.334
0.345
0.3365
0.264
0.2615
0.241
0.209
0.209
0.182
0.1375
0.101
0.089
0.1345
0.1665
0.1315
0.0555
0.0025
-0.0265
-0.0595
-0.0675
-0.0655
-0.074
-0.099
-0.1665
-0.2215
-0.249
-0.258
-0.273
-0.327
-0.3475
-0.3655
-0.3845
-0.3935
-0.414
-0.4345
-0.4685
-0.4785
-0.467
-0.4665
-0.4905
-0.505
-0.5085
-0.5245
-0.5465
-0.566
-0.5995
-0.6435
-0.6645
-0.6945
-0.7275
-0.764
-0.74
-0.7405
-0.749
-0.68
-0.7445
-0.796
-0.752
-0.693
-0.6495
-0.7005
-0.719
-0.7415
-0.778
-0.7785
-0.78
-0.784
-0.8005
-0.7535
-0.7135
-0.742
-0.76
-0.775
-0.7635
-0.7465
-0.75
-0.731
-0.7125
-0.68
-0.666
-0.6635
-0.647
-0.6305
-0.599
-0.585
-0.585
-0.572
-0.5495
-0.5365
-0.485
-0.514
-0.547
-0.4715
-0.463
-0.473
-0.481
-0.4975
-0.46
-0.377
-0.3715
-0.4155
-0.3825
-0.3535
-0.352
-0.357
-0.3725
-0.3715
-0.368
-0.393
-0.412
-0.3775
-0.344
-0.346
-0.3525
-0.338
-0.321
-0.3505
-0.368
-0.32
-0.302
-0.319
-0.301
-0.2525
-0.2495
-0.2725
-0.281
-0.2935
-0.278
-0.3085
-0.3245
-0.3605
-0.4075
-0.394
-0.422
-0.4385
-0.4065
-0.372
-0.294
-0.2125
-0.2505
-0.2995
-0.32
-0.3335
-0.279
-0.241
-0.2775
-0.346
-0.3745
-0.329
-0.289
-0.3015
-0.326
-0.3055
-0.2915
-0.3095
-0.299
-0.295
-0.2985
-0.3105
-0.3485
-0.3575
-0.3235
-0.281
-0.2745
-0.303
-0.318
-0.3185
-0.3315
-0.347
-0.3175
-0.301
-0.3315
-0.3335
-0.311
-0.2815
-0.273
-0.304
-0.294
-0.277
-0.277
-0.258
-0.2805
-0.314
-0.3045
-0.251
-0.2015
-0.2165
-0.248
-0.2565
-0.293
-0.3285
-0.306
-0.263
-0.2005
-0.195
-0.2085
-0.237
-0.318
-0.321
-0.3085
-0.3205
-0.267
-0.244
-0.2865
-0.2495
-0.263
-0.2905
-0.2225
-0.233
-0.2625
-0.255
-0.28
-0.3065
-0.284
-0.2575
-0.247
-0.215
-0.2035
-0.21
-0.236
-0.2555
-0.238
-0.239
-0.2705
-0.241
-0.1965
-0.204
-0.1755
-0.176
-0.186
-0.194
-0.2215
-0.1945
-0.171
-0.1735
-0.1535
-0.119
-0.141
-0.1765
-0.188
-0.179
-0.167
-0.211
-0.213
-0.161
-0.1515
-0.144
-0.136
-0.196
-0.2155
-0.1895
-0.1815
-0.161
-0.149
-0.1735
-0.1845
-0.1245
-0.0895
-0.0915
-0.1045
-0.1095
-0.114
-0.122
-0.117
-0.1375
-0.1655
-0.1455
-0.119
-0.11
-0.1225
-0.179
-0.125
-0.0505
-0.0815
-0.1295
-0.1515
-0.1025
-0.076
-0.1055
-0.121
-0.121
-0.098
-0.078
-0.097
-0.1255
-0.145
-0.159
-0.1545
-0.139
-0.1335
-0.156
-0.1575
-0.1105
-0.1065
-0.175
-0.183
-0.119
-0.0915
-0.093
-0.137
-0.1965
-0.1715
-0.1285
-0.112
-0.0815
-0.068
-0.061
-0.0565
-0.084
-0.104
-0.109
-0.126
-0.132
-0.1105
-0.129
-0.169
-0.165
-0.1725
-0.164
-0.1495
-0.1715
-0.1735
-0.165
-0.167
-0.169
-0.174
-0.181
-0.2195
-0.267
-0.251
-0.2735
-0.3215
-0.2805
-0.2165
-0.1785
-0.152
-0.107
-0.168
-0.2535
-0.2035
-0.201
-0.216
-0.2135
-0.2495
-0.2715
-0.2555
-0.2105
-0.2075
-0.208
-0.195
-0.209
-0.2075
-0.224
-0.2355
-0.209
-0.207
-0.221
-0.233
-0.2185
-0.2065
-0.216
-0.2275
-0.24
-0.243
-0.2405
-0.258
-0.3035
-0.3195
-0.3185
-0.3215
-0.2905
-0.318
-0.346
-0.2505
-0.232
-0.3025
-0.2895
-0.227
-0.191
-0.2415
-0.309
-0.2985
-0.2695
-0.2755
-0.278
-0.234
-0.2245
-0.241
-0.2625
-0.2755
-0.2685
-0.271
-0.249
-0.2595
-0.263
-0.2625
-0.264
-0.2435
-0.253
-0.3055
-0.3
-0.256
-0.3055
-0.3525
-0.3
-0.284
-0.3055
-0.2755
-0.256
-0.254
-0.282
-0.289
-0.262
-0.257
-0.284
-0.29
-0.285
-0.2925
-0.2785
-0.301
-0.2935
-0.271
-0.295
-0.3145
-0.3245
-0.3165
-0.3075
-0.3205
-0.294
-0.312
-0.3275
-0.277
-0.305
-0.3415
-0.361
-0.3605
-0.3105
-0.253
-0.219
-0.206
-0.211
-0.2395
-0.242
-0.2335
-0.251
-0.258
-0.2785
-0.2865
-0.2925
-0.2985
-0.277
-0.2995
-0.2765
-0.268
-0.297
-0.254
-0.2745
-0.289
-0.243
-0.2415
-0.288
-0.327
-0.3005
-0.2735
-0.2445
-0.234
-0.2205
-0.27
-0.3385
-0.287
-0.265
-0.2855
-0.2875
-0.2755
-0.2475
-0.237
-0.26
-0.2605
-0.265
-0.2785
-0.283
-0.2645
-0.223
-0.225
-0.2455
-0.246
-0.2375
-0.2395
-0.251
-0.276
-0.268
-0.285
-0.3245
-0.3035
-0.3375
-0.3795
-0.342
-0.3205
-0.3045
-0.2585
-0.2375
-0.2025
-0.1745
-0.1185
-0.126
-0.2085
-0.222
-0.291
-0.305
-0.2575
-0.2
-0.1615
-0.198
-0.1995
-0.1795
-0.1935
-0.2295
-0.242
-0.2225
-0.2265
-0.2585
-0.227
-0.229
-0.234
-0.2005
-0.221
-0.233
-0.227
-0.191
-0.158
-0.1845
-0.208
-0.17
-0.1545
-0.1495
-0.198
-0.296
-0.255
-0.212
-0.2155
-0.188
-0.181
-0.208
-0.186
-0.15
-0.1455
-0.1355
-0.155
-0.1485
-0.1105
-0.124
-0.1825
-0.177
-0.168
-0.193
-0.1675
-0.1265
-0.1285
-0.158
-0.1835
-0.22
-0.231
-0.1955
-0.1525
-0.133
-0.146
-0.1955
-0.1765
-0.1395
-0.145
-0.0765
-0.0905
-0.154
-0.174
-0.1495
-0.1585
-0.2655
-0.1875
-0.1155
-0.1525
-0.133
-0.1815
-0.2245
-0.205
-0.2335
-0.2625
-0.2965
-0.3255
-0.298
-0.267
-0.194
-0.151
-0.1365
-0.1185
-0.133
-0.188
-0.222
-0.202
-0.2155
-0.277
-0.2775
-0.217
-0.245
-0.2345
-0.2
-0.219
-0.2545
-0.315
-0.276
-0.2295
-0.278
-0.2995
-0.2675
-0.2435
-0.2575
-0.259
-0.2415
-0.2575
-0.2685
-0.2405
-0.244
-0.28
-0.2705
-0.262
-0.3075
-0.316
-0.301
-0.2725
-0.229
-0.24
-0.2555
-0.285
-0.2655
-0.249
-0.2905
-0.3
-0.2915
-0.268
-0.2835
-0.3095
-0.2905
-0.272
-0.265
-0.2475
-0.202
-0.185
-0.226
-0.2675
-0.2335
-0.2065
-0.2355
-0.238
-0.284
-0.2495
-0.178
-0.245
-0.295
-0.3075
-0.3195
-0.336
-0.345
-0.3515
-0.4015
-0.4145
-0.3965
-0.4315
-0.4795
-0.513
-0.552
-0.5235
-0.5
-0.5275
-0.5385
-0.5795
-0.607
-0.585
-0.556
-0.522
-0.4675
-0.466
-0.509
-0.4735
-0.3905
-0.378
-0.3645
-0.265
-0.232
-0.209
-0.1355
-0.085
-0.006
0.038
0.091
0.153
0.208
0.289
0.314
0.3505
0.348
0.297
0.3085
0.3015
0.279
0.2965
0.346
0.3505
0.291
0.2985
0.2975
0.2475
0.2065
0.1665
0.1375
0.1245
0.1255
0.101
0.0755
0.038
0.0225
0.0105
-0.0355
-0.0525
-0.0875
-0.1655
-0.195
-0.164
-0.1495
-0.179
-0.2295
-0.2505
-0.2705
-0.2865
-0.2805
-0.284
-0.2955
-0.3325
-0.3795
-0.4
-0.3895
-0.4025
-0.4415
-0.4535
-0.449
-0.4905
-0.5395
-0.5035
-0.4925
-0.502
-0.504
-0.5865
-0.6145
-0.6005
-0.6345
-0.6555
-0.6635
-0.6885
-0.6805
-0.6665
-0.671
-0.6795
-0.782
-0.7915
-0.7145
-0.6695
-0.6395
-0.648
-0.626
-0.629
-0.651
-0.6815
-0.7065
-0.6845
-0.661
-0.645
-0.6185
-0.617
-0.626
-0.595
-0.578
-0.588
-0.583
-0.562
-0.5375
-0.5
-0.474
-0.45
-0.4305
-0.4415
-0.455
-0.456
-0.439
-0.4275
-0.411
-0.3635
-0.3205
-0.333
-0.338
-0.3285
-0.3205
-0.2805
-0.2895
-0.309
-0.345
-0.3185
-0.256
-0.2605
-0.3485
-0.383
-0.3055
-0.2965
-0.279
-0.323
-0.288
-0.2945
-0.3615
-0.2565
-0.2155
-0.2135
-0.218
-0.2465
-0.2075
-0.1775
-0.219
-0.2385
-0.2255
-0.203
-0.2205
-0.247
-0.2315
-0.222
-0.2165
-0.2045
-0.198
-0.214
-0.2275
-0.242
-0.2485
-0.239
-0.239
-0.2375
-0.239
-0.241
-0.236
-0.2375
-0.2325
-0.231
-0.236
-0.2335
-0.2345
-0.243
-0.2455
-0.247
-0.242
-0.2285
-0.224
-0.2405
-0.254
-0.2395
-0.2295
-0.2365
-0.261
-0.2575
-0.2345
-0.2105
-0.1995
-0.208
-0.206
-0.2235
-0.2515
-0.2695
-0.2685
-0.272
-0.256
-0.22
-0.209
-0.2305
-0.2485
-0.258
-0.2535
-0.1485
-0.112
-0.1655
-0.192
-0.239
-0.1985
-0.1515
-0.158
-0.1445
-0.134
-0.1635
-0.164
-0.2
-0.2435
-0.1165
-0.1005
-0.192
-0.234
-0.237
-0.196
-0.17
-0.2025
-0.236
-0.1605
-0.149
-0.233
-0.238
-0.1955
-0.1815
-0.1635
-0.1615
-0.172
-0.1555
-0.173
-0.181
-0.1625
-0.1805
-0.1925
-0.1825
-0.163
-0.1575
-0.162
-0.1235
-0.0885
-0.0925
-0.123
-0.1315
-0.103
-0.104
-0.113
-0.0965
-0.0755
-0.0925
-0.0975
-0.0915
-0.121
-0.143
-0.153
-0.1455
-0.144
-0.1305
-0.122
-0.1215
-0.0735
-0.052
-0.0755
-0.0975
-0.0815
-0.0665
-0.1035
-0.1095
-0.118
-0.154
-0.1315
-0.125
-0.1125
-0.0865
-0.1285
-0.116
-0.117
-0.0865
0.0655
0.1255
0.0695
-0.0245
-0.0785
-0.0835
-0.0305
0.0105
0.043
0.03
-0.05
-0.07
-0.0765
-0.0345
-0.037
-0.075
-0.0955
-0.064
0.014
0.002
-0.043
-0.0615
-0.0525
-0.0575
-0.022
-0.003
-0.0405
-0.0505
-0.039
-0.055
-0.049
-0.0305
-0.0615
-0.062
-0.072
-0.09
-0.094
-0.0805
-0.0595
-0.0565
-0.066
-0.0565
-0.0335
-0.062
-0.079
-0.0995
-0.1245
-0.1005
-0.0885
-0.1295
-0.112
-0.056
-0.079
-0.0565
-0.058
-0.0835
-0.0635
-0.0875
-0.0825
-0.057
-0.0645
-0.053
-0.0295
-0.0645
-0.0905
-0.1035
-0.113
-0.103
-0.133
-0.1235
-0.1045
-0.129
-0.093
-0.0675
-0.1375
-0.1535
-0.161
-0.1575
-0.1105
-0.107
-0.116
-0.156
-0.1865
-0.1895
-0.163
-0.1305
-0.1215
-0.138
-0.1645
-0.1845
-0.209
-0.2145
-0.2005
-0.143
-0.0945
-0.108
-0.151
-0.1875
-0.1945
-0.1755
-0.171
-0.1805
-0.1555
-0.146
-0.1265
-0.1365
-0.156
-0.1535
-0.183
-0.1685
-0.1955
-0.2375
-0.185
-0.143
-0.1295
-0.146
-0.205
-0.254
-0.308
-0.2945
-0.2455
-0.226
-0.2365
-0.2325
-0.204
-0.232
-0.291
-0.3115
-0.2565
-0.243
-0.249
-0.215
-0.187
-0.1665
-0.1555
-0.1905
-0.2555
-0.291
-0.3055
-0.24
-0.1585
-0.1635
-0.187
-0.1635
-0.141
-0.1565
-0.2055
-0.2355
-0.1775
-0.1645
-0.1855
-0.192
-0.202
-0.189
-0.213
-0.2
-0.175
-0.172
-0.12
-0.153
-0.224
-0.2315
-0.221
-0.1965
-0.199
-0.2195
-0.2365
-0.2045
-0.169
-0.194
-0.212
-0.208
-0.2085
-0.192
-0.1805
-0.1865
-0.19
-0.183
-0.24
-0.2655
-0.193
-0.186
-0.1905
-0.196
-0.2085
-0.211
-0.233
-0.219
-0.1755
-0.212
-0.221
-0.1755
-0.205
-0.211
-0.224
-0.252
-0.2345
-0.2135
-0.1735
-0.144
-0.161
-0.207
-0.2185
-0.174
-0.159
-0.185
-0.214
-0.193
-0.164
-0.182
-0.188
-0.186
-0.1875
-0.2245
-0.2555
-0.2395
-0.213
-0.173
-0.1985
-0.221
-0.2305
-0.2525
-0.221
-0.2055
-0.199
-0.174
-0.1675
-0.1685
-0.159
-0.191
-0.274
-0.26
-0.1945
-0.1725
-0.123
-0.1385
-0.1675
-0.1465
-0.126
-0.1115
-0.1085
-0.1245
-0.161
-0.156
-0.1505
-0.147
-0.138
-0.1655
-0.168
-0.1685
-0.1815
-0.1215
-0.094
-0.1295
-0.1625
-0.1725
-0.138
-0.1205
-0.1405
-0.2005
-0.197
-0.179
-0.192
-0.177
-0.2165
-0.215
-0.1975
-0.176
-0.101
-0.0565
-0.029
-0.0325
-0.057
-0.08
-0.1105
-0.1115
-0.0905
-0.0885
-0.078
-0.0785
-0.121
-0.143
-0.146
-0.1515
-0.1755
-0.2065
-0.205
-0.167
-0.1025
-0.086
-0.089
-0.0865
-0.098
-0.083
-0.1015
-0.124
-0.103
-0.0815
-0.0875
-0.0735
-0.021
-0.0175
-0.0405
-0.0605
-0.0685
-0.0845
-0.1215
-0.087
-0.045
-0.0475
-0.046
-0.062
-0.0755
-0.0835
-0.0425
0.007
-0.0715
-0.1515
-0.12
-0.0865
-0.0815
-0.105
-0.1475
-0.166
-0.167
-0.201
-0.199
-0.181
-0.1815
-0.1305
-0.1635
-0.1915
-0.158
-0.179
-0.225
-0.234
-0.213
-0.2015
-0.176
-0.1575
-0.1415
-0.13
-0.124
-0.1255
-0.158
-0.1985
-0.2065
-0.216
-0.2175
-0.219
-0.2315
-0.2
-0.19
-0.167
-0.153
-0.1545
-0.1725
-0.1985
-0.205
-0.236
-0.2085
-0.193
-0.2215
-0.203
-0.2095
-0.2455
-0.1755
-0.1365
-0.184
-0.215
-0.253
-0.2495
-0.183
-0.158
-0.168
-0.1605
-0.1885
-0.1745
-0.1715
-0.2265
-0.24
-0.198
-0.1585
-0.1675
-0.14
-0.138
-0.1735
-0.178
-0.2145
-0.234
-0.2165
-0.2025
-0.1855
-0.1745
-0.193
-0.2395
-0.278
-0.283
-0.298
-0.3355
-0.387
-0.396
-0.3875
-0.436
-0.4605
-0.499
-0.548
-0.5355
-0.5265
-0.53
-0.498
-0.452
-0.452
-0.4775
-0.484
-0.4615
-0.4005
-0.354
-0.2525
-0.181
-0.212
-0.178
-0.109
-0.045
0.004
0.057
0.1215
0.1785
0.2785
0.3395
0.344
0.377
0.4035
0.4235
0.471
0.509
0.477
0.4125
0.415
0.495
0.4815
0.405
0.4085
0.3595
0.279
0.2305
0.203
0.178
0.1565
0.206
0.2285
0.2195
0.1595
0.033
0.0555
0.099
0.058
0.0055
-0.0325
-0.0635
-0.1025
-0.135
-0.1885
-0.1895
-0.208
-0.205
-0.1505
-0.126
-0.1595
-0.2275
-0.2385
-0.2715
-0.3315
-0.3865
-0.38
-0.3225
-0.3445
-0.3625
-0.419
-0.417
-0.3575
-0.3845
-0.396
-0.4415
-0.451
-0.45
-0.4665
-0.4495
-0.4635
-0.5025
-0.5465
-0.565
-0.5375
-0.5025
-0.5195
-0.5345
-0.5455
-0.585
-0.6065
-0.621
-0.622
-0.6065
-0.6025
-0.5725
-0.54
-0.5525
-0.556
-0.585
-0.629
-0.6415
-0.6375
-0.5365
-0.448
-0.4925
-0.534
-0.5265
-0.499
-0.436
-0.445
-0.4415
-0.3895
-0.3515
-0.292
-0.3015
-0.3075
-0.31
-0.3215
-0.3155
-0.293
-0.252
-0.2655
-0.2605
-0.229
-0.2395
-0.292
-0.3
-0.2675
-0.217
-0.1665
-0.1705
-0.1735
-0.192
-0.209
-0.2075
-0.212
-0.2245
-0.213
-0.1945
-0.1845
-0.1745
-0.174
-0.1995
-0.2425
-0.2375
-0.2425
-0.225
-0.177
-0.155
-0.124
-0.0955
-0.09
-0.119
-0.182
-0.1815
-0.1345
-0.128
-0.124
-0.122
-0.126
-0.147
-0.1355
-0.125
-0.1405
-0.168
-0.185
-0.153
-0.178
-0.2
-0.1555
-0.121
-0.1015
-0.116
-0.135
-0.127
-0.119
-0.0825
-0.1
-0.1315
-0.1055
-0.109
-0.155
-0.1755
-0.149
-0.125
-0.1485
-0.1875
-0.156
-0.127
-0.1225
-0.143
-0.1315
-0.1075
-0.126
-0.129
-0.131
-0.134
-0.14
-0.138
-0.1355
-0.1385
-0.143
-0.144
-0.1175
-0.0845
-0.103
-0.1375
-0.1735
-0.172
-0.1285
-0.136
-0.13
-0.1385
-0.154
-0.1185
-0.1055
-0.068
-0.039
-0.0505
-0.0335
0.008
-0.0395
-0.0495
-0.0085
-0.116
-0.0965
-0.0665
-0.1265
-0.108
-0.1335
-0.1395
-0.107
-0.1085
-0.1125
-0.1065
-0.081
-0.052
-0.0565
-0.0375
-0.045
-0.0425
-0.054
-0.0835
-0.062
-0.072
-0.0735
-0.056
-0.038
-0.046
-0.047
-0.0175
-0.0025
-0.0225
-0.0405
-0.0445
-0.0205
-0.0135
-0.044
-0.03
-0.0145
-0.0065
-0.041
-0.0675
-0.013
0.079
0.1035
0.0415
0.011
-0.036
-0.0655
-0.0415
-0.06
-0.0405
0.036
0.055
0.0365
0.0225
0.0115
0.037
0.045
0.028
0.0225
0.0265
0.0375
0.032
0.0405
0.0475
0.0405
0.028
0.014
0.024
0.055
0.0575
0.031
0.0415
0.0405
0.041
0.073
0.0725
0.0585
0.0575
0.0605
0.055
0.0405
0.0055
-0.047
-0.098
-0.117
-0.11
-0.0085
0.1375
0.1825
0.1905
0.1175
0.055
0.0695
0.0725
0.087
0.062
0.0625
0.06
0.035
0.0635
0.06
0.031
-0.007
0.0015
0.065
0.043
0.01
0.039
0.0435
0.013
-0.0045
0.006
0.015
0.0185
0.002
-0.0105
-0.011
-0.008
0.0065
0.0215
0.021
-0.0195
-0.049
-0.05
-0.0455
-0.0625
-0.0555
-0.0325
-0.0555
-0.1125
-0.1195
-0.108
-0.1
-0.0685
-0.0895
-0.0885
-0.0845
-0.0375
-0.003
-0.0505
-0.0525
-0.0625
-0.096
-0.1
-0.071
-0.054
-0.0635
-0.058
-0.0335
-0.0255
-0.0335
-0.045
-0.0605
-0.0865
-0.1
-0.0775
-0.0805
-0.1165
-0.1075
-0.048
-0.0425
-0.066
-0.075
-0.088
-0.0835
-0.086
-0.0885
-0.091
-0.089
-0.106
-0.122
-0.1055
-0.0935
-0.0815
-0.0885
-0.0945
-0.0955
-0.113
-0.116
-0.121
-0.1035
-0.14
-0.174
-0.1055
-0.102
-0.122
-0.143
-0.156
-0.145
-0.2295
-0.267
-0.1925
-0.158
-0.152
-0.145
-0.136
-0.09
-0.0415
-0.0545
-0.1025
-0.1075
-0.123
-0.1565
-0.1625
-0.1315
-0.0825
-0.0615
-0.0805
-0.107
-0.111
-0.1245
-0.1335
-0.136
-0.128
-0.113
-0.1275
-0.1385
-0.1045
-0.0735
-0.0655
-0.063
-0.0935
-0.11
-0.115
-0.1055
-0.0825
-0.1025
-0.1205
-0.1295
-0.1105
-0.0935
-0.1245
-0.1105
-0.0795
-0.0585
-0.0325
-0.063
-0.104
-0.1055
-0.1155
-0.102
-0.0875
-0.0995
-0.107
-0.1645
-0.1605
-0.1115
-0.1235
-0.1235
-0.136
-0.1565
-0.15
-0.153
-0.1405
-0.1005
-0.109
-0.12
-0.105
-0.1145
-0.109
-0.085
-0.064
-0.0805
-0.0475
-0.0225
-0.0785
-0.0435
-0.0455
-0.0965
-0.1
-0.096
-0.08
-0.089
-0.0875
-0.0585
-0.064
-0.0785
-0.076
-0.053
-0.0455
-0.08
-0.1115
-0.1205
-0.09
-0.1115
-0.109
-0.085
-0.1095
-0.09
-0.1215
-0.143
-0.112
-0.1035
-0.119
-0.141
-0.1155
-0.1135
-0.114
-0.126
-0.1075
-0.042
-0.058
-0.061
-0.073
-0.098
-0.069
-0.047
-0.0835
-0.082
-0.023
-0.0145
-0.0035
0.003
-0.0435
-0.073
-0.07
-0.1055
-0.0885
-0.054
-0.0575
-0.0695
-0.0855
-0.061
-0.0685
-0.079
-0.0845
-0.0635
-0.0405
-0.0715
-0.071
-0.0675
-0.066
-0.076
-0.102
-0.0965
-0.0975
-0.096
-0.052
0.0105
0.0415
-0.022
-0.062
-0.0085
0.0115
-0.0295
-0.0525
-0.0215
-0.049
0.0005
0.076
-0.0325
-0.0945
-0.093
-0.0995
-0.0255
0.0425
0.0775
0.0795
0.036
0.0635
0.078
0.025
0.0205
0.037
0.0115
0.004
0.0285
-0.0005
-0.0225
-0.001
-0.009
-0.019
-0.001
0.0105
0.0055
-0.0015
0.0155
0.037
0.023
0.0
-0.0105
-0.0115
-0.01
-0.023
-0.029
-0.034
-0.053
-0.056
-0.082
-0.1335
-0.1455
-0.119
-0.102
-0.096
-0.0815
-0.0625
-0.022
-0.036
-0.0825
-0.0915
-0.0635
-0.059
-0.1085
-0.1205
-0.0845
-0.06
-0.051
-0.0505
-0.077
-0.0935
-0.1005
-0.116
-0.118
-0.081
-0.065
-0.086
-0.1075
-0.1085
-0.1225
-0.1415
-0.127
-0.1225
-0.109
-0.099
-0.1045
-0.113
-0.118
-0.1075
-0.116
-0.1245
-0.1175
-0.1185
-0.116
-0.1075
-0.1095
-0.118
-0.1215
-0.117
-0.125
-0.135
-0.114
-0.111
-0.1305
-0.146
-0.1525
-0.1415
-0.1075
-0.0925
-0.1275
-0.143
-0.1455
-0.1325
-0.127
-0.161
-0.1465
-0.1245
-0.131
-0.14
-0.116
-0.07
-0.1195
-0.188
-0.2
-0.2245
-0.232
-0.2135
-0.212
-0.207
-0.233
-0.2475
-0.257
-0.3045
-0.316
-0.311
-0.4095
-0.4735
-0.411
-0.425
-0.439
-0.396
-0.362
-0.3325
-0.3065
-0.2855
-0.222
-0.161
-0.1325
-0.081
-0.034
0.015
0.0715
0.1315
0.1715
0.2365
0.322
0.3815
0.4145
0.4305
0.4365
0.438
0.4505
0.4845
0.519
0.5095
0.514
0.5165
0.4535
0.41
0.451
0.451
0.354
0.27
0.256
0.247
0.233
0.28
0.287
0.233
0.197
0.187
0.194
0.1865
0.1465
0.135
0.131
0.0705
0.0425
-0.006
-0.0775
-0.1005
-0.0845
-0.071
-0.1255
-0.208
-0.2395
-0.218
-0.208
-0.2105
-0.2075
-0.179
-0.1715
-0.1985
-0.23
-0.26
-0.273
-0.318
-0.3765
-0.421
-0.425
-0.4145
-0.4465
-0.432
-0.3845
-0.3465
-0.3885
-0.444
-0.4465
-0.4285
-0.403
-0.417
-0.3995
-0.4265
-0.425
-0.4345
-0.4835
-0.52
-0.5415
-0.506
-0.506
-0.496
-0.499
-0.475
-0.4915
-0.52
-0.467
-0.4625
-0.4985
-0.5295
-0.5035
-0.4645
-0.438
-0.421
-0.403
-0.3585
-0.368
-0.37
-0.353
-0.352
-0.328
-0.3175
-0.2875
-0.259
-0.2395
-0.243
-0.2605
-0.2305
-0.199
-0.182
-0.1855
-0.196
-0.2085
-0.2535
-0.278
-0.263
-0.2845
-0.268
-0.1925
-0.137
-0.0665
-0.014
-0.0085
-0.04
-0.086
-0.098
-0.0825
-0.0585
-0.0765
-0.0815
-0.066
-0.0945
-0.112
-0.1255
-0.1135
-0.08
-0.082
-0.076
-0.078
-0.101
-0.1085
-0.106
-0.093
-0.0875
-0.0925
-0.103
-0.114
-0.1125
-0.1215
-0.115
-0.084
-0.103
-0.1145
-0.0885
-0.081
-0.0735
-0.068
-0.0755
-0.085
-0.07
-0.068
-0.0865
-0.1025
-0.0915
-0.086
-0.1255
-0.108
-0.0665
-0.08
-0.134
-0.127
-0.059
-0.0635
-0.0825
-0.0795
-0.0855
-0.0805
-0.08
-0.086
-0.091
-0.079
-0.073
-0.083
-0.0795
-0.078
-0.0825
-0.078
-0.08
-0.059
-0.0415
-0.077
-0.069
-0.045
-0.0475
-0.0375
-0.034
-0.008
-0.0185
-0.0555
-0.0665
-0.108
-0.0985
-0.0685
-0.151
-0.1365
-0.0035
-0.006
-0.0515
-0.053
-0.055
-0.101
-0.1375
-0.101
-0.078
-0.0455
0.0305
0.082
0.0305
-0.0235
0.015
0.065
0.079
0.082
0.064
0.004
-0.0215
0.011
0.0215
0.006
0.0035
0.006
-0.005
-0.0135
-0.004
0.0005
0.0095
0.015
0.0125
0.0115
0.0105
0.016
0.017
0.0145
0.0285
0.0285
0.0045
0.019
0.0405
0.0715
0.0745
0.043
0.0475
0.0215
0.0165
0.0425
0.045
0.082
0.0735
0.0525
0.086
0.0585
0.0625
0.0225
-0.0565
-0.0305
0.0025
0.0465
0.007
0.036
0.098
0.0795
0.158
0.1855
0.1385
0.0955
0.066
0.1
0.1165
0.0895
0.1015
0.1315
0.1445
0.145
0.144
0.1365
0.097
0.0655
0.076
0.085
0.0945
0.1095
0.109
0.107
0.1045
0.092
0.091
0.0935
0.077
0.0755
0.0695
0.0865
0.1085
0.1065
0.123
0.14
0.116
0.066
0.1035
0.1095
0.0545
0.079
0.0825
0.0735
0.0585
0.0175
-0.022
0.0065
0.0815
0.062
0.069
0.063
0.0155
0.0195
-0.0005
0.001
0.052
0.078
0.0775
0.067
0.0395
0.032
0.019
0.0065
0.037
0.0555
0.036
0.0235
0.057
0.0995
0.0815
0.0275
0.013
0.0075
-0.001
-0.004
-0.009
0.004
0.0025
-0.0005
-0.006
-0.0285
-0.0135
0.02
-0.0045
-0.0365
-0.0355
-0.0625
-0.0775
-0.084
-0.0805
-0.032
-0.01
0.033
0.0845
-0.026
-0.096
-0.011
-0.007
-0.05
-0.069
-0.0845
-0.0535
0.001
-0.025
-0.0595
-0.054
-0.0575
-0.046
-0.0575
-0.074
-0.064
-0.0615
-0.0545
-0.037
-0.0355
-0.0505
-0.0475
-0.075
-0.13
-0.132
-0.101
-0.0915
-0.0855
-0.05
-0.0965
-0.1575
-0.1645
-0.1615
-0.125
-0.106
-0.09
-0.069
-0.073
-0.104
-0.104
-0.084
-0.0465
-0.037
-0.1095
-0.1475
-0.1605
-0.1455
-0.1105
-0.0875
-0.0655
-0.0775
-0.075
-0.0935
-0.123
-0.1025
-0.085
-0.065
-0.073
-0.068
-0.04
-0.033
-0.033
-0.091
-0.13
-0.143
-0.13
-0.084
-0.049
-0.0285
-0.052
-0.09
-0.087
-0.097
-0.1135
-0.0535
-0.039
-0.084
-0.141
-0.134
-0.0545
-0.05
-0.125
-0.1435
-0.0585
-0.0555
-0.0805
-0.076
-0.0715
-0.015
-0.0315
-0.0745
-0.061
-0.048
-0.041
-0.04
-0.056
-0.0785
-0.114
-0.1035
-0.0695
-0.108
-0.1205
-0.088
-0.0665
-0.046
-0.042
-0.0575
-0.079
-0.081
-0.0865
-0.0825
-0.006
0.011
-0.0605
-0.081
-0.081
-0.0815
-0.082
-0.0995
-0.061
-0.033
-0.052
-0.066
-0.076
-0.0735
-0.0745
-0.0765
-0.0755
-0.0835
-0.108
-0.102
-0.085
-0.0555
-0.0445
-0.0675
-0.067
-0.063
-0.082
-0.094
-0.077
-0.0885
-0.107
-0.0695
-0.033
-0.05
-0.067
-0.055
-0.054
-0.061
-0.039
-0.0295
-0.0145
-0.0195
-0.04
-0.0125
-0.0365
-0.045
-0.0285
-0.0645
-0.0815
-0.092
-0.08
-0.0705
-0.1025
-0.075
-0.0345
-0.0825
-0.131
-0.1125
-0.095
-0.0655
-0.06
-0.115
-0.116
-0.072
-0.0385
-0.0215
0.012
0.0245
-0.0075
-0.029
-0.0135
-0.007
-0.04
-0.064
-0.06
-0.0315
0.0055
0.028
0.005
-0.012
0.0055
-0.0165
-0.0375
-0.0275
-0.0225
-0.011
-0.0085
-0.0125
-0.0135
-0.0095
0.0025
0.0115
0.0265
0.04
0.0525
0.0875
0.0755
0.0725
0.0295
-0.0335
-0.0095
-0.0375
-0.1105
-0.12
-0.047
-0.072
-0.0025
0.001
-0.08
0.0295
0.0295
0.0015
0.0
0.021
0.0355
0.006
0.017
0.034
0.018
0.003
0.0245
0.027
0.028
0.026
-0.0165
-0.03
-0.0105
0.004
0.0005
0.006
0.055
0.0185
-0.0375
-0.039
-0.034
-0.02
-0.0405
-0.051
-0.0735
-0.094
-0.0875
-0.0775
-0.0435
-0.024
-0.0415
-0.0665
-0.064
-0.065
-0.07
-0.0815
-0.1015
-0.11
-0.1195
-0.1175
-0.1075
-0.1095
-0.0965
-0.0895
-0.113
-0.116
-0.1275
-0.1165
-0.097
-0.0985
-0.103
-0.0955
-0.0425
-0.041
-0.0745
-0.1005
-0.118
-0.1275
-0.141
-0.1325
-0.123
-0.1105
-0.059
-0.012
-0.0125
-0.0495
-0.0595
-0.043
-0.071
-0.1215
-0.1385
-0.1
-0.0825
-0.1135
-0.103
-0.1065
-0.145
-0.0915
-0.05
-0.097
-0.1285
-0.144
-0.1295
-0.097
-0.1175
-0.1715
-0.169
-0.151
-0.1695
-0.1665
-0.1625
-0.187
-0.207
-0.2135
-0.231
-0.2775
-0.328
-0.3335
-0.3315
-0.356
-0.354
-0.3565
-0.371
-0.3735
-0.3755
-0.3465
-0.351
-0.377
-0.396
-0.382
-0.3135
-0.225
-0.177
-0.2235
-0.1635
-0.098
-0.149
-0.117
-0.0355
0.018
0.0845
0.1265
0.177
0.282
0.3475
0.379
0.3655
0.3725
0.45
0.5035
0.555
0.5535
0.5115
0.4985
0.4645
0.4665
0.4445
0.4385
0.482
0.418
0.3465
0.3335
0.3495
0.3605
0.378
0.381
0.3125
0.244
0.232
0.224
0.173
0.1525
0.1595
0.156
0.129
0.0425
-0.004
0.0
-0.046
-0.1055
-0.141
-0.152
-0.196
-0.1795
-0.123
-0.149
-0.182
-0.1985
-0.205
-0.237
-0.2625
-0.265
-0.2625
-0.2835
-0.2965
-0.324
-0.3605
-0.3725
-0.3995
-0.4175
-0.528
-0.5415
-0.477
-0.5
-0.494
-0.478
-0.4715
-0.476
-0.4735
-0.4945
-0.5165
-0.5215
-0.525
-0.5305
-0.5185
-0.509
-0.5195
-0.517
-0.522
-0.526
-0.535
-0.5395
-0.5145
-0.4845
-0.486
-0.4895
-0.4835
-0.492
-0.4945
-0.5005
-0.493
-0.444
-0.361
-0.318
-0.3075
-0.282
-0.298
-0.293
-0.2585
-0.286
-0.291
-0.2415
-0.2375
-0.229
-0.165
-0.142
-0.182
-0.1955
-0.221
-0.2005
-0.1555
-0.151
-0.1525
-0.181
-0.146
-0.129
-0.1425
-0.1205
-0.1245
-0.1705
-0.1945
-0.1565
-0.109
-0.0915
-0.0805
-0.0775
-0.097
-0.1075
-0.1115
-0.082
-0.0485
-0.054
-0.0615
-0.082
-0.1005
-0.079
-0.0545
-0.0905
-0.1285
-0.093
-0.1035
-0.117
-0.1335
-0.164
-0.0755
-0.0625
-0.0685
-0.0255
-0.057
-0.0595
-0.0685
-0.094
-0.124
-0.131
-0.1175
-0.139
-0.156
-0.142
-0.078
-0.0235
-0.009
-0.0185
-0.0545
-0.0745
-0.0555
-0.043
-0.0535
-0.0635
-0.068
-0.0765
-0.1015
-0.0915
-0.068
-0.1045
-0.1005
-0.0575
-0.0535
-0.0565
-0.111
-0.124
-0.082
-0.058
-0.041
-0.048
-0.0535
-0.074
-0.0725
-0.052
-0.047
-0.046
-0.0705
-0.0885
-0.058
-0.0475
-0.082
-0.087
-0.095
-0.113
-0.1105
-0.106
-0.07
-0.019
-0.012
-0.009
-0.012
-0.0475
-0.075
-0.0875
-0.0695
-0.0575
-0.0365
-0.02
-0.0335
-0.036
-0.0335
-0.022
-0.023
-0.0145
-0.0255
-0.049
-0.0235
-0.053
-0.0845
-0.056
-0.018
0.035
0.0545
0.039
0.0235
0.0205
0.0055
-0.009
-0.0115
-0.0355
-0.058
-0.0275
0.0215
0.0305
0.028
0.0165
0.013
0.0235
0.006
0.0265
0.0785
0.0555
0.0245
0.0405
0.08
0.0975
0.0805
0.042
0.0155
0.059
0.02
-0.0155
0.021
0.0185
0.0545
0.115
0.1315
0.108
0.0985
0.11
0.127
0.15
0.135
0.1075
0.0685
0.0485
0.0685
0.0655
0.08
0.083
0.08
0.085
0.082
0.126
0.127
0.099
0.0605
0.053
0.093
0.073
0.0915
0.1145
0.121
0.13
0.1195
0.123
0.1135
0.088
0.113
0.108
0.0705
0.103
0.1155
0.127
0.1385
0.1255
0.1065
0.1185
0.1465
0.135
0.133
0.1065
0.0595
0.0555
0.0725
0.047
0.014
0.0445
0.068
0.059
0.0605
0.0555
0.068
0.083
0.062
0.093
0.116
0.0585
0.0575
0.0835
0.0555
0.06
0.058
0.021
0.015
0.0405
0.0415
0.034
0.0455
0.0435
0.0265
0.0255
0.0555
0.013
-0.0225
-0.0025
-0.014
-0.048
-0.0375
0.033
0.0285
0.02
0.063
0.0995
0.107
0.058
0.0575
0.099
0.0965
0.0685
0.0305
-0.0055
-0.0355
-0.0485
-0.0625
-0.0855
-0.0315
0.021
-0.0165
-0.0435
-0.026
-0.0335
-0.0515
-0.0315
-0.0625
-0.074
-0.096
-0.11
-0.053
-0.051
-0.025
-0.0605
-0.0815
-0.0365
-0.0415
-0.011
-0.0095
-0.026
-0.038
-0.0505
-0.0375
-0.0435
-0.0425
-0.035
-0.022
-0.0335
-0.0485
-0.031
-0.0775
-0.096
-0.0785
-0.1105
-0.104
-0.087
-0.0785
-0.091
-0.1345
-0.1035
-0.069
-0.0705
-0.0665
-0.078
-0.0735
-0.0845
-0.1115
-0.1545
-0.2035
-0.188
-0.0735
0.0005
-0.023
-0.023
-0.0105
-0.0175
-0.0425
-0.055
-0.0565
-0.084
-0.1075
-0.0905
-0.0595
-0.037
-0.0545
-0.072
-0.087
-0.116
-0.1225
-0.129
-0.099
-0.0805
-0.1005
-0.121
-0.1225
-0.0915
-0.073
-0.0695
-0.0885
-0.112
-0.099
-0.074
-0.09
-0.0865
-0.063
-0.0595
-0.109
-0.1545
-0.0685
-0.0025
-0.0255
-0.0605
-0.0805
-0.1155
-0.1045
-0.087
-0.1265
-0.109
-0.0845
-0.0865
-0.122
-0.1615
-0.115
-0.1115
-0.151
-0.0815
-0.0095
-0.034
-0.038
-0.024
-0.059
-0.0885
-0.067
-0.045
-0.05
-0.0455
-0.0485
-0.0305
-0.02
-0.035
-0.0495
-0.082
-0.09
-0.064
-0.0695
-0.085
-0.075
-0.081
-0.082
-0.0925
-0.108
-0.102
-0.122
-0.1315
-0.1365
-0.1215
-0.099
-0.11
-0.063
-0.0685
-0.132
-0.1355
-0.161
-0.1535
-0.0685
-0.015
0.025
0.033
0.0085
-0.018
-0.037
-0.032
-0.0195
-0.008
-0.0255
-0.0675
-0.085
-0.05
-0.032
-0.07
-0.0685
-0.0055
-0.0035
-0.01
-0.042
-0.1015
-0.0555
-0.03
-0.065
-0.086
-0.0805
-0.0655
-0.0425
-0.0315
-0.0565
-0.0645
-0.041
-0.0065
0.0155
0.0165
-0.024
-0.002
0.0475
0.014
-0.0245
-0.067
-0.0755
-0.0825
-0.0785
-0.052
-0.052
-0.07
-0.1065
-0.083
-0.0065
0.0585
0.129
0.1185
0.0395
0.0405
0.0595
0.077
0.0755
0.0715
0.088
0.091
0.0545
0.033
0.072
0.04
0.001
0.022
0.044
0.024
0.0175
0.0165
-0.003
-0.0095
-0.008
0.0185
0.01
0.0195
0.022
0.004
0.042
0.0435
-0.0085
0.01
0.0215
0.003
0.0055
-0.0155
-0.024
-0.07
-0.0585
-0.0145
-0.049
-0.0785
-0.0715
-0.0535
-0.066
-0.0745
-0.0825
-0.1025
-0.096
-0.096
-0.1255
-0.1425
-0.1185
-0.109
-0.0895
-0.0755
-0.091
-0.098
-0.107
-0.076
-0.0465
-0.021
-0.0165
-0.057
-0.0725
-0.105
-0.1265
-0.106
-0.104
-0.1555
-0.188
-0.135
-0.138
-0.1695
-0.166
-0.1325
-0.043
-0.0275
-0.0605
-0.098
-0.11
-0.089
-0.136
-0.1795
-0.1545
-0.084
-0.0365
-0.0735
-0.1175
-0.1245
-0.147
-0.153
-0.112
-0.0705
-0.042
-0.0365
-0.071
-0.1135
-0.05
0.0165
-0.0505
-0.0995
-0.069
-0.013
-0.028
-0.0965
-0.1045
-0.134
-0.1715
-0.1465
-0.163
-0.18
-0.1895
-0.222
-0.2235
-0.243
-0.2655
-0.282
-0.29
-0.3325
-0.362
-0.312
-0.33
-0.382
-0.4145
-0.3765
-0.332
-0.3855
-0.422
-0.461
-0.434
-0.359
-0.3165
-0.293
-0.2415
-0.1955
-0.199
-0.1295
-0.071
-0.0405
0.0155
0.096
0.166
0.2
0.269
0.353
0.397
0.4085
0.446
0.486
0.4975
0.5145
0.541
0.55
0.546
0.564
0.577
0.522
0.4585
0.4335
0.4145
0.373
0.34
0.3115
0.2485
0.263
0.2805
0.243
0.2325
0.198
0.1445
0.1175
0.113
0.107
0.0815
0.0535
-0.013
-0.0495
-0.0265
-0.0395
-0.0635
-0.123
-0.139
-0.112
-0.1455
-0.157
-0.1745
-0.2165
-0.22
-0.2305
-0.2405
-0.2595
-0.3035
-0.3195
-0.3185
-0.351
-0.406
-0.3995
-0.374
-0.3545
-0.386
-0.4165
-0.477
-0.569
-0.532
-0.5375
-0.5775
-0.5715
-0.57
-0.5885
-0.5785
-0.5205
-0.502
-0.508
-0.5165
-0.4965
-0.5015
-0.5515
-0.5595
-0.5605
-0.571
-0.5555
-0.5235
-0.4995
-0.493
-0.499
-0.4895
-0.4635
-0.4475
-0.41
-0.402
-0.406
-0.394
-0.3825
-0.317
-0.3055
-0.322
-0.2825
-0.2315
-0.189
-0.2055
-0.216
-0.2335
-0.2675
-0.2305
-0.202
-0.205
-0.218
-0.2355
-0.2235
-0.206
-0.1955
-0.182
-0.166
-0.169
-0.1845
-0.189
-0.189
-0.2065
-0.2025
-0.158
-0.152
-0.16
-0.142
-0.1285
-0.117
-0.0735
-0.004
-0.0165
-0.048
-0.057
-0.0945
-0.0925
-0.0885
-0.0815
-0.082
-0.1175
-0.107
-0.081
-0.08
-0.08
-0.0925
-0.08
-0.055
-0.0355
-0.0515
-0.0685
-0.091
-0.1245
-0.0505
-0.083
-0.1485
-0.1335
-0.13
-0.1005
-0.109
-0.1285
-0.119
-0.0905
-0.086
-0.087
-0.087
-0.137
-0.1605
-0.139
-0.1275
-0.0955
-0.0935
-0.111
-0.0925
-0.103
-0.0925
-0.0445
-0.0045
0.0325
0.008
-0.041
-0.021
-0.0295
-0.0625
-0.069
-0.0945
-0.1005
-0.0875
-0.066
-0.0525
-0.0445
-0.0285
-0.045
-0.065
-0.043
-0.071
-0.0915
-0.0775
-0.1385
-0.1615
-0.126
-0.081
-0.0575
-0.058
-0.058
-0.0675
-0.066
-0.0505
-0.0255
-0.0345
-0.0375
-0.027
-0.0355
-0.035
-0.028
-0.022
-0.0255
-0.0325
-0.0335
-0.041
-0.0455
-0.0515
-0.081
-0.0785
-0.055
-0.058
-0.104
-0.131
-0.0835
-0.02
0.032
0.0505
0.069
0.063
0.0525
0.06
0.036
0.0165
0.0045
0.01
0.006
-0.0065
-0.0195
-0.0235
-0.005
0.013
0.0215
0.0235
0.043
0.0505
0.047
0.0545
0.08
0.0945
0.0815
0.0805
0.0095
-0.037
0.032
0.0415
0.016
0.0375
0.0725
0.0635
0.0545
0.0555
0.0555
0.0925
0.098
0.0765
0.0515
0.05
0.081
0.089
0.0745
0.059
0.054
0.056
0.046
0.038
0.0365
0.0385
0.048
0.0555
0.067
0.122
0.1505
0.1075
0.097
0.086
0.165
0.238
0.1525
0.0905
0.0735
0.0895
0.094
0.098
0.113
0.101
0.0795
0.089
0.117
0.106
0.0995
0.1075
0.093
0.0795
0.085
0.0905
0.116
0.13
0.111
0.0965
0.0805
0.057
0.046
0.045
0.035
0.042
0.042
0.0445
0.0685
0.0755
0.057
0.036
0.033
0.026
0.0195
0.0185
0.024
0.0195
0.01
0.03
0.027
0.046
0.088
0.073
0.075
0.081
0.0385
0.0275
0.042
0.036
0.0335
0.0405
0.0335
0.028
0.0215
-0.008
-0.015
-0.0065
-0.0045
-0.018
-0.029
-0.021
-0.0145
-0.024
-0.0395
-0.009
-0.032
-0.062
-0.015
-0.0375
-0.0515
-0.0125
-0.0145
-0.046
-0.0545
-0.039
-0.037
-0.046
-0.047
-0.0335
-0.031
-0.0395
-0.0485
-0.028
-0.0395
-0.046
-0.041
-0.065
-0.037
-0.064
-0.117
-0.084
-0.0375
-0.0405
-0.066
-0.0955
-0.111
-0.0965
-0.0845
-0.0805
-0.0755
-0.0785
-0.092
-0.0775
-0.0815
-0.097
-0.0885
-0.076
-0.0785
-0.1055
-0.073
-0.0405
-0.0455
-0.0515
-0.061
-0.055
-0.052
-0.0445
-0.043
-0.0585
-0.0715
-0.0885
-0.0885
-0.0935
-0.091
-0.0705
-0.0795
-0.0665
-0.042
-0.075
-0.1325
-0.104
-0.09
-0.122
-0.115
-0.106
-0.0885
-0.101
-0.107
-0.102
-0.089
-0.0865
-0.0935
-0.11
-0.1425
-0.103
-0.0965
-0.118
-0.0935
-0.0815
-0.086
-0.0895
-0.09
-0.0865
-0.0895
-0.1125
-0.108
-0.097
-0.0875
-0.0845
-0.0965
-0.073
-0.0605
-0.0545
-0.0735
-0.107
-0.13
-0.1305
-0.109
-0.11
-0.074
-0.066
-0.1415
-0.169
-0.1205
-0.0965
-0.117
-0.119
-0.0825
-0.0535
-0.0465
-0.0455
-0.0565
-0.0915
-0.104
-0.087
-0.0925
-0.09
-0.078
-0.0835
-0.0925
-0.0795
-0.078
-0.0885
-0.084
-0.085
-0.082
-0.0835
-0.082
-0.072
-0.0725
-0.066
-0.0635
-0.068
-0.0665
-0.0605
-0.0885
-0.1175
-0.125
-0.1375
-0.111
-0.0755
-0.041
-0.0525
-0.0885
-0.065
-0.0705
-0.0815
-0.0435
-0.046
-0.046
-0.024
-0.0295
-0.0395
-0.048
-0.02
0.006
-0.0175
-0.059
-0.0655
-0.058
-0.0635
-0.0565
-0.0485
-0.041
-0.0485
-0.0485
-0.038
-0.0395
-0.049
-0.064
-0.061
-0.047
-0.0355
-0.0305
-0.0235
-0.0285
-0.0485
-0.059
-0.0715
-0.0705
-0.0625
-0.038
-0.0125
-0.0215
-0.0205
-0.008
0.0115
0.0145
0.0005
0.004
0.0255
0.082
0.0845
0.089
0.089
0.036
0.009
-0.0135
0.0315
0.0415
0.007
0.0185
0.0295
0.017
0.01
0.017
0.016
0.026
0.0205
0.0195
0.029
0.034
0.009
0.0125
0.051
0.0335
0.0175
0.0095
-0.0085
0.006
0.0135
-0.0035
0.0165
0.0145
-0.0285
-0.0275
-0.0025
-0.033
-0.028
0.0145
0.005
-0.016
-0.032
-0.009
-0.0325
-0.05
-0.0175
-0.0295
-0.0485
-0.0655
-0.0745
-0.0925
-0.0945
-0.0575
-0.021
-0.007
-0.0455
-0.0925
-0.1115
-0.1245
-0.1155
-0.0895
-0.064
-0.0675
-0.083
-0.0905
-0.0925
-0.101
-0.113
-0.11
-0.102
-0.081
-0.087
-0.1005
-0.107
-0.105
-0.069
-0.086
-0.145
-0.166
-0.1405
-0.0795
-0.0525
-0.104
-0.106
-0.057
-0.0705
-0.071
-0.058
-0.0655
-0.044
-0.056
-0.117
-0.127
-0.1245
-0.1285
-0.1085
-0.1365
-0.1285
-0.073
-0.0595
-0.0595
-0.066
-0.071
-0.082
-0.0865
-0.098
-0.0935
-0.071
-0.1105
-0.142
-0.147
-0.151
-0.1455
-0.1515
-0.158
-0.177
-0.2505
-0.2905
-0.2535
-0.2755
-0.3145
-0.357
-0.372
-0.33
-0.34
-0.373
-0.405
-0.4335
-0.471
-0.4715
-0.436
-0.464
-0.481
-0.453
-0.392
-0.3095
-0.2355
-0.117
-0.045
-0.039
-0.036
-0.0235
0.0405
0.11
0.164
0.2335
0.3005
0.347
0.389
0.416
0.4665
0.5085
0.519
0.542
0.5485
0.5565
0.5585
0.541
0.562
0.548
0.5025
0.4755
0.445
0.4285
0.3385
0.264
0.2375
0.248
0.2455
0.205
0.2305
0.1775
0.148
0.142
0.113
0.147
0.126
0.0895
0.0185
-0.009
-0.0005
-0.0645
-0.086
-0.109
-0.1385
-0.1855
-0.2125
-0.178
-0.1775
-0.187
-0.222
-0.2125
-0.167
-0.1625
-0.178
-0.191
-0.1905
-0.272
-0.322
-0.304
-0.339
-0.348
-0.3785
-0.4505
-0.444
-0.412
-0.425
-0.443
-0.449
-0.5015
-0.484
-0.426
-0.438
-0.4495
-0.462
-0.4685
-0.4775
-0.494
-0.5015
-0.5195
-0.5435
-0.549
-0.553
-0.547
-0.5445
-0.5425
-0.5195
-0.5005
-0.494
-0.4945
-0.4995
-0.517
-0.496
-0.465
-0.48
-0.486
-0.46
-0.3805
-0.301
-0.2785
-0.294
-0.306
-0.3185
-0.287
-0.1945
-0.178
-0.184
-0.189
-0.204
-0.1865
-0.13
-0.0935
-0.0975
-0.1015
-0.1615
-0.164
-0.115
-0.114
-0.115
-0.13
-0.1395
-0.1075
-0.1145
-0.1105
-0.083
-0.11
-0.104
-0.071
-0.087
-0.133
-0.135
-0.1255
-0.1075
-0.066
-0.061
-0.047
-0.054
-0.1145
-0.1155
-0.0975
-0.096
-0.0905
-0.117
-0.1075
-0.084
-0.093
-0.0845
-0.0935
-0.132
-0.1485
-0.1475
-0.143
-0.1115
-0.057
-0.028
-0.0515
-0.0825
-0.074
-0.075
-0.0795
-0.055
-0.0695
-0.1
-0.068
-0.0465
-0.074
-0.0895
-0.09
-0.0945
-0.1055
-0.102
-0.08
-0.0505
-0.0355
-0.062
-0.1405
-0.1515
-0.0805
-0.0535
-0.0695
-0.085
-0.028
-0.013
-0.047
-0.103
-0.13
-0.072
-0.07
-0.067
-0.066
-0.0125
0.02
-0.034
-0.0535
-0.1025
-0.0955
-0.0195
-0.0055
0.0
-0.028
-0.079
-0.0815
-0.081
-0.0645
-0.049
-0.0515
-0.061
-0.047
-0.012
-0.018
-0.0225
-0.0135
-0.019
-0.0185
-0.026
-0.0235
-0.011
-0.0095
-0.015
-0.0135
-0.008
-0.0075
0.0055
0.005
-0.0085
0.003
0.005
-0.031
-0.034
-0.016
-0.0125
-0.007
-0.01
-0.0025
-0.0295
-0.041
-0.0135
-0.0275
-0.0425
-0.0165
0.0095
0.0215
0.02
-0.0195
-0.053
-0.0885
-0.1115
-0.0125
0.071
0.0615
0.03
0.0155
0.0355
0.0445
0.068
0.069
0.039
0.048
0.0565
0.0645
0.0895
0.078
0.077
0.097
0.1065
0.1105
0.1075
0.077
0.073
0.079
0.039
0.0355
0.0575
0.0945
0.1455
0.1465
0.133
0.107
0.0805
0.0865
0.0895
0.127
0.117
0.0905
0.103
0.08
0.0705
0.087
0.1065
0.104
0.093
0.092
0.103
0.106
0.093
0.0965
0.091
0.09
0.087
0.0685
0.057
0.044
0.0325
0.029
0.0725
0.1005
0.0865
0.077
0.081
0.086
0.092
0.0735
0.0485
0.088
0.116
0.139
0.1485
0.1465
0.1475
0.133
0.1025
0.075
0.068
0.0675
0.096
0.0935
0.0905
0.0635
0.0355
0.023
-0.003
0.0295
0.0435
0.023
0.033
0.067
0.04
0.017
0.0635
0.063
0.0185
-0.003
-0.007
0.0325
0.0405
-0.036
-0.0435
0.0355
0.056
0.003
-0.008
-0.015
-0.0175
-0.0025
-0.0295
-0.0265
0.016
-0.02
-0.0505
0.027
0.05
0.018
0.0075
0.0065
-0.002
-0.025
-0.037
-0.038
-0.036
-0.029
-0.012
-0.021
-0.0515
-0.065
-0.075
-0.069
-0.0545
-0.05
-0.0705
-0.101
-0.088
-0.0865
-0.087
-0.0465
-0.0115
-0.018
-0.0535
-0.0645
-0.063
-0.062
-0.0505
-0.06
-0.097
-0.0655
-0.0445
-0.0635
-0.0465
-0.046
0.0165
0.062
0.0145
-0.0535
-0.0705
-0.069
-0.0845
-0.075
-0.062
-0.0325
-0.0565
-0.0975
-0.0865
-0.1025
-0.1045
-0.104
-0.096
-0.062
-0.0715
-0.0735
-0.082
-0.0955
-0.0985
-0.0275
0.0355
0.0165
-0.0475
-0.1335
-0.095
-0.0675
-0.0635
-0.046
-0.049
-0.0225
-0.037
-0.0545
-0.0685
-0.062
-0.0435
-0.0095
0.0095
-0.0135
-0.005
-0.0145
-0.0405
-0.0495
-0.039
-0.064
-0.106
-0.115
-0.1055
-0.083
-0.067
-0.058
-0.06
-0.042
-0.038
-0.0555
-0.068
-0.098
-0.127
-0.108
-0.0715
-0.0625
-0.065
-0.104
-0.0715
-0.0245
-0.0275
-0.017
-0.0225
-0.026
-0.029
-0.0085
-0.03
-0.0675
-0.0605
-0.054
-0.047
-0.0435
-0.012
-0.01
-0.036
-0.035
-0.0535
-0.046
-0.0265
-0.0465
-0.0625
-0.0395
-0.015
-0.054
-0.069
-0.061
-0.068
-0.0305
0.008
-0.0105
-0.091
-0.0745
-0.0685
-0.0835
-0.021
-0.023
-0.0635
-0.058
-0.0165
-0.026
-0.0115
0.0005
-0.017
-0.0325
-0.029
0.0105
0.0115
-0.0135
-0.028
-0.022
-0.0185
-0.0275
-0.022
-0.005
0.002
-0.0005
-0.013
-0.0235
-0.017
-0.005
-0.0015
-0.0015
0.0015
0.0185
0.0345
0.0255
0.0165
-0.003
-0.0025
0.0285
0.0125
-0.0065
0.005
0.016
-0.055
-0.1265
-0.1325
-0.133
-0.055
-0.002
0.0365
0.1095
0.115
0.062
0.0705
0.101
0.103
0.116
0.088
0.0755
0.0575
0.0295
0.0495
0.0525
0.0355
0.019
0.0065
0.0365
0.051
0.032
0.032
0.0325
0.0345
0.0285
0.017
0.0045
0.0035
0.0305
0.0345
0.0375
0.0845
0.067
0.0265
0.0345
0.0345
0.0415
0.05
0.0465
0.032
0.041
0.0325
0.02
0.0325
-0.0045
-0.0025
0.018
-0.009
-0.012
-0.03
-0.0045
-0.0125
-0.075
-0.0535
-0.0665
-0.1065
-0.082
-0.054
-0.037
-0.0275
-0.028
-0.0275
-0.066
-0.0805
-0.0675
-0.0945
-0.1175
-0.104
-0.0745
-0.0535
-0.053
-0.04
-0.0525
-0.0795
-0.059
-0.0615
-0.0685
-0.0695
-0.0405
-0.0085
-0.0465
-0.0305
-0.058
-0.0965
-0.0685
-0.1235
-0.111
-0.0455
-0.0165
-0.053
-0.122
-0.0415
0.022
-0.0175
-0.0085
0.0085
-0.0275
-0.0795
-0.1125
-0.078
-0.0355
-0.027
0.003
-0.0155
-0.058
-0.0715
-0.076
-0.0525
-0.0535
-0.0555
-0.042
-0.0695
-0.115
-0.117
-0.0845
-0.0515
-0.035
-0.0885
-0.1265
-0.1425
-0.18
-0.198
-0.2235
-0.2495
-0.233
-0.225
-0.228
-0.2105
-0.247
-0.307
-0.3555
-0.3855
-0.3995
-0.383
-0.35
-0.334
-0.31
-0.3455
-0.362
-0.291
-0.2905
-0.2895
-0.262
-0.245
-0.175
-0.1335
-0.0865
-0.057
-0.0245
0.072
0.124
0.159
0.1875
0.2025
0.2595
0.2835
0.352
0.474
0.4875
0.5155
0.537
0.5275
0.5325
0.527
0.554
0.5725
0.5745
0.54
0.471
0.404
0.3565
0.3365
0.317
0.305
0.3245
0.3545
0.336
0.2885
0.261
0.266
0.2965
0.2705
0.1965
0.1705
0.1015
0.027
0.0365
0.0
-0.006
-0.0195
-0.0555
-0.0805
-0.1355
-0.134
-0.141
-0.172
-0.21
-0.207
-0.1625
-0.1735
-0.2015
-0.2095
-0.221
-0.2395
-0.2875
-0.2965
-0.268
-0.3005
-0.3525
-0.369
-0.361
-0.392
-0.401
-0.358
-0.345
-0.376
-0.3925
-0.386
-0.4095
-0.4285
-0.416
-0.454
-0.476
-0.402
-0.3965
-0.4285
-0.446
-0.481
-0.5
-0.514
-0.486
-0.466
-0.519
-0.5315
-0.507
-0.4945
-0.47
-0.4535
-0.43
-0.419
-0.401
-0.408
-0.414
-0.3695
-0.351
-0.326
-0.312
-0.31
-0.32
-0.3235
-0.2625
-0.23
-0.244
-0.2435
-0.2275
-0.2095
-0.2045
-0.166
-0.107
-0.1005
-0.1225
-0.1255
-0.105
-0.1155
-0.129
-0.1305
-0.1045
-0.0555
-0.13
-0.186
-0.12
-0.1005
-0.088
-0.0655
-0.086
-0.1205
-0.122
-0.076
-0.0585
-0.07
-0.0685
-0.0815
-0.101
-0.0845
-0.072
-0.0795
-0.0855
-0.0835
-0.084
-0.0965
-0.056
-0.0335
-0.038
-0.0345
-0.0835
-0.075
-0.031
-0.024
-0.0275
-0.0735
-0.0965
-0.093
-0.122
-0.1455
-0.159
-0.159
-0.0975
-0.058
-0.0145
-0.0065
-0.0425
0.0315
0.0245
-0.0115
-0.0085
-0.042
-0.062
-0.074
-0.0735
-0.0485
-0.017
0.003
0.0205
-0.005
-0.0365
-0.0505
-0.043
-0.0375
-0.0455
-0.0475
-0.05
-0.0435
-0.0515
-0.0365
-0.008
-0.0105
-0.0305
-0.038
-0.0255
-0.042
-0.0475
-0.039
-0.0225
-0.0215
-0.0215
0.0195
0.0245
-0.017
-0.0635
-0.061
-0.072
-0.071
-0.0485
-0.025
0.0185
-0.0045
-0.023
-0.042
-0.1035
-0.083
-0.048
-0.057
0.033
0.06
-0.015
0.002
-0.03
-0.0285
0.057
0.087
0.0865
0.051
-0.0055
-0.024
0.0105
0.032
0.0525
0.051
0.037
0.0495
0.0525
0.043
0.0215
0.0125
0.0295
0.0615
0.067
0.041
0.0625
0.0265
-0.007
0.0565
0.087
0.1265
0.1285
0.1175
0.0885
0.0595
0.0965
0.1015
0.0735
0.019
0.0
-0.002
0.0095
0.058
0.094
0.0785
0.0745
0.1055
0.097
0.111
0.123
0.1055
0.127
0.1555
0.138
0.141
0.1245
0.1005
0.1115
0.0965
0.1145
0.132
0.1235
0.1295
0.1175
0.101
0.1015
0.105
0.1305
0.144
0.133
0.0885
0.0855
0.1145
0.0905
0.069
0.0575
0.0735
0.0565
0.0345
0.0835
0.1145
0.0825
0.061
0.1025
0.1685
0.2
0.2145
0.245
0.2165
0.1815
0.149
0.122
0.1635
0.1845
0.1545
0.068
0.062
0.1205
0.1285
0.063
0.039
0.166
0.189
0.112
0.0865
0.098
0.0935
0.1005
0.109
0.0745
0.0655
0.0585
0.063
0.0755
0.083
0.085
0.07
0.0745
0.0575
0.047
0.0545
0.072
0.077
0.0755
0.085
0.0425
0.0205
0.0135
0.0295
0.041
0.021
0.0285
0.02
0.0205
0.04
0.0335
0.0195
0.0215
0.0295
0.021
-0.013
0.0055
0.0385
0.0195
0.0
0.02
0.03
-0.0075
-0.0265
-0.019
0.0095
0.0255
0.002
0.0115
0.023
-0.028
-0.079
-0.0655
-0.0595
-0.0455
0.0045
0.0015
-0.022
-0.0305
-0.0325
-0.014
-0.0095
-0.0225
-0.0275
-0.0385
-0.0765
-0.085
-0.035
-0.0135
-0.0235
-0.0345
-0.0365
-0.034
-0.023
-0.02
-0.039
-0.0435
-0.0415
-0.029
-0.041
-0.0805
-0.113
-0.0995
-0.0695
-0.09
-0.0755
-0.081
-0.1115
-0.121
-0.1595
-0.1135
-0.038
-0.0255
-0.062
-0.042
-0.043
-0.158
-0.121
-0.029
-0.0425
-0.032
-0.008
-0.0065
0.0185
0.0475
0.036
-0.0105
-0.016
0.016
0.0095
-0.032
-0.0475
-0.0415
-0.0335
-0.0285
-0.057
-0.0445
-0.04
-0.0715
-0.0695
-0.046
-0.036
-0.03
-0.032
-0.036
-0.0385
-0.07
-0.083
-0.093
-0.1215
-0.1295
-0.1
-0.116
-0.0885
0.0285
0.025
-0.0275
-0.022
-0.0295
-0.0035
0.031
0.004
-0.019
-0.0225
0.0
0.009
-0.016
-0.034
-0.054
-0.035
-0.009
-0.015
-0.0305
-0.056
-0.042
-0.011
-0.01
-0.0145
0.003
0.0055
-0.0145
-0.034
-0.082
-0.0915
-0.0755
-0.062
-0.0275
-0.037
-0.043
-0.048
-0.07
-0.0585
-0.0065
0.0225
-0.0115
-0.0345
-0.0095
-0.027
-0.0405
0.041
0.0515
0.005
-0.035
-0.0285
-0.002
-0.0035
-0.0055
-0.0195
-0.0135
-0.0225
-0.022
-0.007
0.0255
0.02
0.009
-0.019
-0.0575
-0.02
-0.0055
-0.0175
-0.021
0.003
-0.002
-0.013
0.0235
0.013
0.0
0.033
0.0305
0.026
0.026
0.024
0.0585
0.046
0.032
0.0095
-0.018
-0.0135
-0.057
-0.043
-0.0235
-0.0385
-0.015
0.0055
0.0045
0.018
0.064
0.057
0.034
0.04
0.0805
0.112
0.1015
0.1295
0.132
0.0765
0.045
0.071
0.0935
0.076
0.0615
0.061
0.047
0.039
0.0475
0.058
0.0835
0.087
0.0725
0.0615
0.056
0.0495
0.044
0.044
0.0415
0.058
0.068
0.073
0.074
0.068
0.062
0.061
0.071
0.064
0.074
0.082
0.082
0.0985
0.0945
0.089
0.124
0.0555
-0.0575
-0.05
-0.1035
-0.1235
-0.0385
-0.0095
0.013
0.064
0.0145
-0.057
-0.006
0.0115
-0.047
-0.0575
-0.0365
-0.04
-0.046
-0.0525
-0.0455
-0.014
0.031
0.026
-0.023
-0.028
-0.041
-0.075
-0.0825
-0.0635
-0.0635
-0.101
-0.109
-0.0615
-0.007
0.004
-0.0485
-0.0925
-0.0365
0.0155
0.0015
0.013
0.0345
0.011
-0.007
-0.0025
0.008
0.0075
-0.019
-0.041
-0.047
-0.0155
-0.022
-0.029
0.003
-0.021
-0.047
-0.095
-0.097
-0.061
-0.0755
-0.0405
-0.028
-0.056
-0.0165
-0.012
-0.0475
-0.0995
-0.1365
-0.0895
-0.0465
-0.069
-0.0905
-0.051
-0.0515
-0.0945
-0.1185
-0.1265
-0.1255
-0.129
-0.1525
-0.174
-0.1825
-0.201
-0.228
-0.2365
-0.2635
-0.288
-0.282
-0.2985
-0.3265
-0.344
-0.347
-0.3655
-0.374
-0.3755
-0.3835
-0.3535
-0.314
-0.2395
-0.1425
-0.1065
-0.08
-0.0405
0.058
0.085
0.0985
0.2185
0.2855
0.2905
0.272
0.358
0.4335
0.478
0.548
0.573
0.572
0.5555
0.565
0.5715
0.591
0.613
0.61
0.581
0.539
0.5175
0.5135
0.508
0.4545
0.4185
0.4015
0.358
0.3425
0.2985
0.2695
0.2885
0.2655
0.2265
0.1935
0.168
0.149
0.128
0.1155
0.068
0.044
0.0495
-0.008
-0.015
0.0105
-0.048
-0.118
-0.1
-0.069
-0.0695
-0.132
-0.2735
-0.3265
-0.2445
-0.204
-0.232
-0.22
-0.23
-0.2725
-0.298
-0.317
-0.3345
-0.3495
-0.37
-0.377
-0.3555
-0.383
-0.4445
-0.478
-0.501
-0.5005
-0.4925
-0.458
-0.4425
-0.4495
-0.446
-0.4615
-0.49
-0.5105
-0.4985
-0.486
-0.449
-0.4275
-0.4425
-0.4435
-0.4445
-0.4865
-0.4935
-0.4445
-0.4075
-0.374
-0.383
-0.3805
-0.342
-0.3175
-0.2705
-0.2255
-0.2435
-0.2605
-0.2845
-0.2955
-0.218
-0.1705
-0.157
-0.1365
-0.1445
-0.1495
-0.147
-0.1585
-0.158
-0.128
-0.1345
-0.158
-0.133
-0.083
-0.0625
-0.0835
-0.08
-0.068
-0.0595
-0.0345
-0.065
-0.1315
-0.1175
-0.0665
-0.045
-0.0465
-0.0425
-0.013
-0.0095
0.008
0.02
-0.0175
-0.0485
-0.059
-0.0465
-0.043
-0.086
-0.1105
-0.101
-0.0715
-0.0085
0.006
-0.002
-0.009
-0.0175
-0.022
-0.0185
-0.0155
-0.0405
-0.0415
-0.029
-0.018
-0.045
-0.1095
-0.1215
-0.093
-0.0705
-0.0185
0.0145
-0.0165
-0.051
-0.04
0.0045
0.004
0.0
0.0115
0.0075
0.001
-0.0015
0.006
-0.0025
0.0
-0.006
-0.0195
-0.001
0.043
0.066
0.029
0.0515
0.021
-0.058
-0.016
0.023
0.034
0.032
-0.016
-0.048
-0.017
0.0075
0.023
-0.019
-0.041
0.0015
-0.0075
-0.0225
-0.035
-0.022
0.0095
-0.01
-0.059
-0.043
0.0305
0.0625
0.0275
0.002
0.003
0.04
0.086
0.0695
0.081
0.074
0.0505
0.0195
-0.034
0.04
0.0745
0.034
0.031
0.0305
0.0265
0.0125
0.0055
-0.005
0.0195
0.021
-0.0225
-0.0025
0.035
0.036
0.0695
0.092
0.079
0.081
0.082
0.0875
0.0855
0.066
0.0645
0.0885
0.079
0.0995
0.1315
0.095
0.079
0.0605
0.065
0.092
0.09
0.0965
0.1075
0.1245
0.118
0.1235
0.1285
0.109
0.121
0.1195
0.1175
0.138
0.131
0.124
0.127
0.1135
0.14
0.1765
0.1595
0.122
0.1135
0.1175
0.0825
0.0395
0.0855
0.2005
0.252
0.285
0.256
0.151
0.1695
0.221
0.2235
0.219
0.204
0.1755
0.166
0.176
0.151
0.1135
0.0955
0.1425
0.168
0.162
0.191
0.198
0.199
0.202
0.19
0.1585
0.1265
0.1245
0.1255
0.1405
0.156
0.1605
0.147
0.13
0.1465
0.1775
0.177
0.1405
0.1375
0.1335
0.1445
0.1475
0.1095
0.1175
0.1365
0.1245
0.0805
0.064
0.0555
0.065
0.045
0.043
0.114
0.1255
0.178
0.1955
0.161
0.1635
0.1655
0.1625
0.1525
0.142
0.14
0.143
0.1185
0.1075
0.105
0.0845
0.082
0.089
0.091
0.1105
0.128
0.1605
0.134
0.1185
0.1315
0.022
0.035
0.0585
0.016
0.0625
0.066
0.0305
0.038
0.082
0.082
0.0635
0.0335
0.014
0.0125
0.009
0.0135
0.006
-0.0135
-0.028
-0.0195
-0.0025
0.021
0.0085
0.007
0.0055
-0.055
-0.0545
0.032
0.0885
0.0675
0.045
0.0355
0.039
0.055
0.037
0.027
0.0235
0.0265
0.0165
-0.0375
-0.1
-0.0715
0.013
0.0235
-0.004
-0.018
0.006
-0.0045
-0.0495
-0.057
-0.049
-0.0385
0.003
0.025
0.017
-0.0025
-0.0315
-0.035
-0.0445
-0.0485
-0.0265
0.008
-0.01
-0.024
0.002
-0.0005
-0.015
-0.0245
-0.046
-0.0835
-0.089
-0.103
-0.141
-0.1475
-0.1295
-0.0935
-0.0605
0.012
0.0515
0.017
-0.003
-0.034
-0.0385
-0.038
-0.0215
0.014
0.0135
0.027
0.0225
-0.005
-0.0215
-0.0495
-0.0665
-0.04
-0.0165
-0.008
-0.005
0.012
0.039
0.0645
0.037
-0.021
-0.0165
-0.047
-0.133
-0.1745
-0.095
-0.0215
-0.026
-0.05
-0.0485
-0.072
-0.113
-0.0535
-0.0405
-0.064
-0.0715
-0.0895
-0.111
-0.1175
-0.067
-0.0325
-0.039
-0.013
0.035
0.005
-0.047
-0.037
-0.008
-0.021
-0.055
-0.0475
-0.0455
-0.069
-0.0795
-0.058
0.023
0.107
0.066
-0.022
-0.044
-0.009
0.0395
0.021
-0.017
-0.04
-0.056
-0.0395
-0.0225
-0.0125
-0.0055
-0.031
-0.062
-0.0745
-0.055
-0.024
-0.0155
-0.002
-0.0075
-0.018
-0.013
0.0085
-0.0025
-0.0175
0.01
0.0085
0.0025
0.0065
0.0155
0.0
-0.032
-0.025
-0.0215
-0.0355
-0.0185
-0.003
-0.0015
0.002
-0.012
-0.0215
-0.067
-0.0785
-0.026
0.0265
0.051
0.063
0.078
0.022
-0.01
-0.014
0.0075
0.0515
0.0095
0.01
0.0515
0.001
-0.006
0.069
0.082
0.059
0.023
0.032
0.0685
0.003
-0.019
0.037
0.049
0.0495
0.0675
0.092
0.0655
0.02
0.034
0.019
-0.019
0.0
-0.001
-0.011
0.0315
0.063
0.055
0.084
0.1195
0.091
0.104
0.1225
0.0665
0.0215
0.0285
0.054
0.083
0.0905
0.062
0.052
0.055
0.056
0.064
0.0735
0.067
0.048
0.0155
-0.0325
-0.0245
0.004
0.005
-0.0055
-0.0085
-0.0415
-0.046
-0.0035
0.009
0.014
-0.048
-0.0565
-0.0785
-0.123
-0.084
-0.059
-0.0135
-0.022
-0.046
-0.034
-0.056
-0.0805
-0.0785
-0.0415
-0.0345
-0.031
-0.0765
-0.121
-0.064
-0.074
-0.0955
-0.0645
-0.0485
-0.0445
-0.0385
-0.0435
-0.0425
-0.026
-0.0355
-0.036
-0.0735
-0.0645
-0.0465
-0.076
-0.094
-0.1325
-0.0825
-0.077
-0.136
-0.1415
-0.103
-0.0755
-0.0745
-0.053
-0.048
-0.068
-0.089
-0.075
-0.066
-0.044
-0.002
-0.0255
-0.102
-0.0975
-0.0555
-0.05
-0.0365
-0.053
-0.0665
-0.0585
-0.0625
-0.0915
-0.101
-0.078
-0.1105
-0.1805
-0.225
-0.201
-0.1905
-0.236
-0.2745
-0.3165
-0.346
-0.357
-0.379
-0.39
-0.356
-0.331
-0.3655
-0.39
-0.358
-0.3565
-0.3865
-0.3475
-0.288
-0.261
-0.214
-0.1615
-0.122
-0.0635
-0.002
0.068
0.1235
0.1325
0.1725
0.23
0.2635
0.336
0.4355
0.455
0.4555
0.5315
0.5805
0.593
0.577
0.5885
0.608
0.583
0.6055
0.5355
0.424
0.4045
0.394
0.3905
0.347
0.3125
0.3085
0.256
0.248
0.267
0.2615
0.2445
0.213
0.201
0.197
0.1635
0.117
0.116
0.092
0.0365
0.0185
-0.013
-0.053
-0.0985
-0.147
-0.1325
-0.115
-0.1245
-0.141
-0.179
-0.213
-0.187
-0.1585
-0.2045
-0.231
-0.2255
-0.235
-0.2545
-0.2835
-0.3105
-0.341
-0.383
-0.4165
-0.4075
-0.404
-0.4065
-0.395
-0.3915
-0.432
-0.481
-0.48
-0.4865
-0.545
-0.5495
-0.5425
-0.5875
-0.5535
-0.48
-0.4745
-0.5395
-0.5435
-0.4985
-0.487
-0.4995
-0.5035
-0.5055
-0.442
-0.373
-0.381
-0.3775
-0.375
-0.3795
-0.4075
-0.3935
-0.373
-0.3665
-0.345
-0.337
-0.3095
-0.2755
-0.251
-0.241
-0.229
-0.2095
-0.1945
-0.1775
-0.169
-0.164
-0.149
-0.1305
-0.118
-0.115
-0.116
-0.1105
-0.1055
-0.107
-0.101
-0.095
-0.091
-0.085
-0.0825
-0.0765
-0.069
-0.0805
-0.1005
-0.0925
-0.0905
-0.0965
-0.0665
-0.0255
-0.036
-0.1255
-0.1765
-0.0815
-0.051
-0.157
-0.147
-0.0585
-0.0345
-0.07
-0.0115
0.0565
-0.012
-0.084
-0.126
-0.082
-0.013
-0.026
0.0015
0.005
-0.003
0.021
0.005
0.007
-0.0125
-0.005
0.0045
-0.057
-0.1325
-0.1195
-0.0525
-0.026
-0.05
-0.074
-0.07
-0.085
-0.0605
-0.038
-0.0345
-0.0435
-0.059
-0.049
-0.0625
-0.0715
-0.0405
-0.0165
-0.0275
-0.036
-0.028
-0.044
-0.0415
-0.0155
-0.039
-0.0565
-0.033
-0.007
-0.005
-0.0065
0.014
0.0125
0.0065
-0.0065
-0.0325
-0.0405
-0.0225
0.007
-0.0015
0.004
0.0085
0.0025
0.0195
0.023
0.0015
-0.0375
-0.0325
-0.0195
-0.04
-0.047
-0.067
-0.0585
0.0015
0.0325
0.0445
-0.0215
-0.0445
0.01
-0.0155
-0.0535
-0.0645
-0.0005
0.112
0.123
0.073
0.069
0.0895
0.078
0.0475
0.051
0.042
0.0085
-0.0185
0.014
0.068
0.0565
0.046
0.037
0.0105
-0.001
0.014
0.0245
0.0335
0.056
0.066
0.062
0.03
0.05
0.1065
0.104
0.107
0.0835
0.093
0.126
0.083
0.0895
0.0875
0.0625
0.1035
0.1465
0.1125
0.046
0.037
0.074
0.12
0.1505
0.1505
0.1435
0.1435
0.1245
0.1735
0.2075
0.152
0.149
0.1505
0.153
0.1785
0.172
0.1275
0.123
0.1465
0.113
0.1345
0.15
0.114
0.1455
0.176
0.169
0.156
0.1335
0.1215
0.1125
0.122
0.1235
0.1195
0.149
0.1645
0.156
0.144
0.144
0.114
0.0905
0.0895
0.1075
0.134
0.111
0.14
0.1965
0.2325
0.188
0.124
0.1835
0.171
0.104
0.11
0.089
0.101
0.1705
0.1645
0.1275
0.164
0.1485
0.07
0.0725
0.1065
0.1225
0.1195
0.103
0.088
0.0775
0.0825
0.086
0.074
0.074
0.0965
0.116
0.111
0.1025
0.093
0.0735
0.0605
0.0475
0.0655
0.0635
0.0215
0.0125
0.015
0.008
0.0285
0.0615
0.0785
0.059
0.0215
0.0135
0.029
0.0425
0.0445
0.0695
0.0395
0.052
0.0905
0.059
0.084
0.0625
0.028
0.077
0.069
0.0055
0.0065
0.035
0.056
0.042
0.0165
0.0335
0.0465
0.039
0.0305
0.0245
-0.0265
-0.04
-0.0105
-0.0195
-0.023
-0.0275
-0.022
-0.019
0.023
0.036
0.0
0.006
-0.0275
-0.0515
-0.045
-0.033
-0.0485
-0.043
-0.0175
-0.031
-0.0095
-0.028
-0.073
-0.0745
-0.0475
-0.023
0.001
-0.005
-0.032
-0.038
-0.049
-0.014
0.0135
0.041
0.0385
-0.0385
-0.0535
-0.0455
-0.0635
-0.05
-0.0305
-0.0485
-0.0745
-0.071
-0.0685
-0.072
-0.0535
-0.0495
-0.052
-0.0215
-0.0255
-0.0425
-0.022
-0.033
-0.0275
-0.0195
-0.0325
-0.065
-0.099
-0.059
-0.0605
-0.084
-0.101
-0.1185
-0.053
0.011
0.0265
0.049
0.05
0.0165
0.01
0.0015
-0.0465
-0.0445
0.001
0.0285
0.0145
-0.0165
-0.032
-0.0805
-0.0985
-0.101
-0.073
-0.0005
0.0195
-0.002
-0.007
0.016
-0.0035
-0.024
-0.013
-0.0215
-0.02
-0.012
-0.0395
-0.026
0.014
0.0195
0.0225
0.017
-0.029
-0.065
-0.048
-0.0415
-0.033
-0.017
-0.01
-0.0365
-0.057
-0.038
-0.0345
-0.037
-0.0425
-0.032
-0.0305
-0.0405
-0.0445
-0.05
-0.045
-0.0685
-0.0715
-0.032
0.007
0.0425
0.0805
0.0565
0.0175
0.0505
0.053
0.032
0.004
-0.001
0.0235
0.03
0.0165
-0.018
-0.031
-0.031
-0.0025
0.037
0.045
0.033
0.0195
0.023
0.0435
0.039
0.0345
0.047
0.029
0.0145
0.023
0.0225
0.018
-0.002
0.0035
0.0455
0.071
0.0545
-0.0075
0.017
0.093
0.0725
0.015
0.016
0.038
0.008
0.008
0.046
0.0575
0.063
0.035
0.041
0.088
0.094
0.084
0.081
0.0785
0.086
0.0815
0.0585
0.0725
0.0815
0.062
0.033
0.016
0.0145
0.0175
0.0255
0.043
0.0615
0.055
0.051
0.031
0.049
0.0745
0.0655
0.09
0.105
0.0865
0.1125
0.1525
0.135
0.1235
0.119
0.117
0.093
0.092
0.124
0.0815
0.042
0.0545
0.095
0.1465
0.111
0.0365
0.019
0.007
0.01
0.021
0.002
0.012
0.025
0.0325
0.0245
-0.019
0.009
0.031
0.0285
0.0295
-0.0175
-0.0295
-0.0165
-0.0235
-0.0405
-0.0485
-0.0445
-0.043
-0.041
-0.0325
-0.022
-0.0315
-0.036
-0.039
-0.0415
-0.0225
-0.021
-0.026
-0.0485
-0.067
-0.0485
-0.041
-0.0395
-0.028
-0.0115
-0.0275
-0.04
-0.0445
-0.0215
-0.005
-0.0125
0.0115
-0.0155
-0.0285
-0.0645
-0.05
0.037
0.0335
0.0005
-0.0235
-0.0175
-0.056
-0.07
-0.0505
-0.055
-0.044
-0.0555
-0.0185
0.0455
0.0595
0.0245
-0.0115
-0.01
0.0055
-0.039
-0.063
-0.0715
-0.1105
-0.1125
-0.1435
-0.1915
-0.179
-0.1805
-0.2355
-0.2535
-0.2665
-0.2995
-0.3185
-0.3305
-0.3675
-0.3715
-0.3335
-0.326
-0.281
-0.2345
-0.274
-0.2805
-0.24
-0.2225
-0.151
-0.0625
-0.0335
-0.025
0.01
0.0545
0.067
0.1115
0.2105
0.29
0.36
0.4375
0.4965
0.5235
0.5385
0.557
0.6225
0.6715
0.645
0.645
0.645
0.628
0.62
0.612
0.576
0.514
0.4485
0.3865
0.361
0.3455
0.3585
0.357
0.3255
0.3185
0.3095
0.2905
0.278
0.279
0.232
0.1665
0.138
0.114
0.123
0.1245
0.0515
0.018
0.016
-0.0185
-0.0415
-0.0485
-0.03
-0.0425
-0.077
-0.0965
-0.1195
-0.1365
-0.129
-0.13
-0.1495
-0.169
-0.205
-0.225
-0.2425
-0.23
-0.2215
-0.2365
-0.28
-0.391
-0.371
-0.312
-0.334
-0.3525
-0.3615
-0.348
-0.3655
-0.4015
-0.3945
-0.3375
-0.314
-0.352
-0.4055
-0.404
-0.375
-0.353
-0.345
-0.3715
-0.423
-0.476
-0.4555
-0.419
-0.4155
-0.4165
-0.464
-0.465
-0.3965
-0.3825
-0.372
-0.341
-0.338
-0.34
-0.31
-0.284
-0.2585
-0.232
-0.236
-0.213
-0.1655
-0.1705
-0.202
-0.1785
-0.1505
-0.16
-0.127
-0.093
-0.123
-0.1175
-0.0955
-0.099
-0.071
-0.0465
-0.037
-0.014
0.0195
0.002
-0.0285
0.0165
0.0155
-0.0105
-0.009
-0.0155
-0.009
0.013
-0.0115
-0.06
-0.016
0.0185
0.0105
0.0055
-0.037
-0.0405
-0.011
-0.0185
-0.0245
-0.009
0.0095
0.0015
-0.012
-0.009
-0.022
-0.039
-0.043
-0.0345
-0.0095
0.034
0.0695
0.071
0.064
0.05
0.036
0.031
0.037
0.0215
-0.014
-0.006
-0.0215
-0.0495
-0.022
0.0225
0.0335
0.0175
0.0225
0.0435
0.0465
0.016
0.041
0.085
0.0575
0.028
0.026
0.0425
0.0285
0.04
-0.0045
-0.036
0.046
0.0565
0.0515
-0.006
-0.0035
0.0315
0.016
0.0235
-0.034
-0.04
-0.0495
-0.091
-0.093
0.0125
0.161
0.141
0.1105
0.1515
0.1285
0.065
0.0305
0.042
0.068
0.069
0.0795
0.0775
0.056
0.0595
0.0525
0.047
0.0695
0.0675
0.061
0.0825
0.0855
0.093
0.0895
0.0845
0.0885
0.0805
0.076
0.068
0.0815
0.124
0.16
0.1445
0.105
0.038
0.065
0.118
0.0695
0.0535
0.08
0.099
0.112
0.1205
0.095
0.0745
0.03
0.0495
0.0925
0.0835
0.0735
0.066
0.1035
0.1365
0.1515
0.1425
0.127
0.1235
0.123
0.1365
0.1315
0.128
0.1185
0.095
0.1155
0.11
0.079
0.1005
0.2145
0.298
0.2585
0.2325
0.2175
0.2045
0.211
0.183
0.1695
0.1835
0.1805
0.195
0.227
0.2305
0.212
0.2185
0.244
0.2455
0.231
0.2025
0.184
0.194
0.1935
0.197
0.191
0.193
0.2125
0.22
0.2235
0.2215
0.2195
0.2025
0.1965
0.2095
0.165
0.13
0.194
0.177
0.152
0.2005
0.1795
0.1645
0.1745
0.1745
0.164
0.165
0.1835
0.194
0.199
0.191
0.189
0.1865
0.1835
0.1915
0.1885
0.182
0.17
0.1525
0.1415
0.1335
0.1305
0.1285
0.1625
0.1735
0.137
0.1135
0.112
0.15
0.162
0.161
0.1725
0.145
0.097
0.067
0.063
0.1295
0.2105
0.221
0.2225
0.1995
0.163
0.1485
0.1975
0.2025
0.19
0.2095
0.1425
0.062
0.0385
0.055
0.063
0.053
0.047
0.119
0.147
0.096
0.0725
0.0475
0.0145
0.0155
0.0425
0.059
0.0565
0.0335
0.0415
0.0525
0.0515
0.0425
0.042
0.0615
0.066
0.063
0.051
0.037
0.031
0.04
0.0485
0.0475
0.0455
0.0285
-0.0025
0.0215
0.0605
0.0195
0.014
0.053
0.055
0.028
-0.007
-0.013
0.0115
0.03
0.032
0.04
0.049
0.041
0.028
0.02
0.0105
0.006
-0.007
-0.009
0.032
0.0485
0.0345
0.039
0.0485
0.087
0.064
0.029
0.034
-0.015
-0.006
0.006
-0.025
-0.016
0.002
0.03
0.042
0.0015
0.0185
0.0645
0.0585
0.0555
0.0505
0.0345
0.0265
0.0115
-0.0305
-0.0285
0.0145
0.017
0.009
0.021
0.032
0.028
0.0205
0.0
-0.007
0.022
0.035
0.043
0.0625
0.044
0.0215
0.023
0.014
0.0285
0.0335
0.0185
0.012
0.0015
0.0095
0.012
-0.0025
-0.0075
-0.015
-0.006
0.034
0.039
0.015
0.021
0.0845
0.1225
0.0875
0.038
0.0345
0.04
0.042
0.039
0.075
0.1345
0.071
0.043
0.0355
0.031
0.044
0.0185
0.022
0.003
0.0335
0.1115
0.096
0.0305
0.012
-0.002
0.02
0.026
0.014
0.033
0.038
0.079
0.094
0.071
0.0375
0.03
0.055
0.05
0.0075
-0.0295
-0.0475
-0.049
-0.0075
0.0135
0.048
0.0935
0.096
0.1035
0.1455
0.163
0.121
0.095
0.0655
0.083
0.1115
0.116
0.1145
0.0865
0.078
0.0175
0.0195
0.081
0.079
0.0695
0.066
0.0665
0.0645
0.087
0.098
0.0745
0.0705
0.0795
0.0655
0.0605
0.08
0.0935
0.1085
0.1105
0.068
0.0315
0.047
0.0635
0.069
0.1105
0.141
0.11
0.095
0.1555
0.1775
0.1335
0.1225
0.1525
0.197
0.22
0.234
0.215
0.1755
0.15
0.133
0.1395
0.147
0.1615
0.1435
0.126
0.1205
0.1255
0.1655
0.125
0.1165
0.136
0.122
0.128
0.1065
0.0835
0.064
0.061
0.0615
0.1005
0.15
0.1735
0.1795
0.122
0.092
0.1145
0.138
0.145
0.1005
0.068
0.09
0.0995
0.1155
0.1125
0.088
0.066
0.027
0.032
0.0645
0.1025
0.109
0.091
0.077
0.0475
0.0465
0.072
0.0615
0.063
0.087
0.0485
0.035
0.0265
0.002
0.0025
-0.0165
-0.012
0.0165
0.0475
0.055
0.033
0.0295
0.031
0.0165
0.019
-0.0375
-0.081
-0.0005
0.067
0.0645
0.0675
0.092
0.04
-0.009
-0.0165
0.017
0.105
0.135
0.125
0.1195
0.1065
0.0565
0.037
0.056
0.0425
0.0525
0.065
0.041
0.0255
0.0325
0.0395
0.036
0.0325
0.0235
0.019
0.0295
0.043
0.041
0.022
0.0245
0.035
0.0155
-0.0095
-0.021
-0.0305
-0.0305
-0.033
-0.067
-0.062
-0.068
-0.114
-0.122
-0.1585
-0.2455
-0.306
-0.35
-0.3475
-0.3115
-0.3215
-0.3065
-0.2675
-0.1705
-0.172
-0.237
-0.227
-0.209
-0.12
-0.079
-0.094
-0.0435
0.017
0.029
0.066
0.1105
0.1345
0.172
0.245
0.296
0.3455
0.428
0.492
0.5285
0.55
0.5935
0.627
0.662
0.679
0.679
0.682
0.659
0.654
0.65
0.5895
0.5655
0.5625
0.4935
0.441
0.4165
0.399
0.3805
0.366
0.357
0.3305
0.324
0.295
0.276
0.2465
0.201
0.2145
0.192
0.1475
0.127
0.1155
0.075
0.026
