ECG
-0.764
-0.759
-0.761
-0.7625
-0.7565
-0.7565
-0.759
-0.757
-0.7615
-0.763
-0.7655
-0.764
-0.761
-0.759
-0.751
-0.7545
-0.751
-0.748
-0.763
-0.765
-0.756
-0.7595
-0.7645
-0.757
-0.7565
-0.7565
-0.7505
-0.765
-0.7735
-0.7675
-0.7685
-0.768
-0.772
-0.774
-0.7735
-0.7755
-0.7765
-0.775
-0.7825
-0.795
-0.798
-0.793
-0.7875
-0.794
-0.803
-0.801
-0.7995
-0.805
-0.804
-0.805
-0.8095
-0.8165
-0.82
-0.818
-0.8195
-0.8225
-0.8275
-0.8275
-0.8255
-0.828
-0.831
-0.836
-0.839
-0.8435
-0.8465
-0.84
-0.8425
-0.8465
-0.8485
-0.85
-0.852
-0.8545
-0.8545
-0.8525
-0.848
-0.8505
-0.852
-0.855
-0.8565
-0.858
-0.861
-0.8565
-0.8555
-0.859
-0.8625
-0.86
-0.8615
-0.866
-0.87
-0.8685
-0.8625
-0.8625
-0.86
-0.8605
-0.8655
-0.8675
-0.867
-0.864
-0.865
-0.867
-0.862
-0.8645
-0.8655
-0.853
-0.857
-0.8715
-0.8685
-0.866
-0.8665
-0.8665
-0.865
-0.8595
-0.861
-0.8605
-0.8615
-0.8665
-0.8635
-0.8635
-0.863
-0.8615
-0.8605
-0.858
-0.859
-0.8565
-0.857
-0.855
-0.8585
-0.8665
-0.8675
-0.87
-0.87
-0.8665
-0.87
-0.863
-0.86
-0.869
-0.87
-0.8705
-0.8665
-0.8655
-0.866
-0.8685
-0.8725
-0.874
-0.8685
-0.8665
-0.878
-0.8685
-0.862
-0.8685
-0.8645
-0.8685
-0.8745
-0.875
-0.8755
-0.8715
-0.8695
-0.873
-0.872
-0.869
-0.862
-0.856
-0.862
-0.8725
-0.874
-0.8705
-0.869
-0.8705
-0.875
-0.866
-0.863
-0.8685
-0.867
-0.8695
-0.865
-0.863
-0.864
-0.863
-0.864
-0.8605
-0.8605
-0.863
-0.861
-0.8645
-0.868
-0.863
-0.8665
-0.8765
-0.871
-0.8635
-0.867
-0.872
-0.8705
-0.868
-0.87
-0.8565
-0.8645
-0.8745
-0.8655
-0.867
-0.8595
-0.862
-0.8675
-0.8645
-0.866
-0.8635
-0.8585
-0.862
-0.866
-0.8625
-0.8635
-0.8605
-0.8585
-0.8605
-0.8605
-0.864
-0.861
-0.862
-0.865
-0.8645
-0.8665
-0.8635
-0.863
-0.864
-0.865
-0.8655
-0.865
-0.869
-0.8665
-0.865
-0.865
-0.8625
-0.872
-0.873
-0.865
-0.8635
-0.864
-0.8635
-0.863
-0.8625
-0.86
-0.8625
-0.8635
-0.866
-0.8705
-0.864
-0.8645
-0.867
-0.867
-0.8705
-0.8695
-0.8655
-0.861
-0.86
-0.861
-0.8585
-0.8565
-0.8605
-0.8705
-0.8665
-0.852
-0.8545
-0.86
-0.8595
-0.858
-0.8565
-0.8555
-0.854
-0.856
-0.859
-0.8565
-0.852
-0.8565
-0.8565
-0.854
-0.8535
-0.857
-0.8585
-0.855
-0.8515
-0.85
-0.8545
-0.858
-0.862
-0.8605
-0.8565
-0.8545
-0.8535
-0.8565
-0.8575
-0.8555
-0.856
-0.8545
-0.856
-0.8575
-0.84
-0.8445
-0.8655
-0.8545
-0.8465
-0.85
-0.8535
-0.8555
-0.857
-0.863
-0.8605
-0.86
-0.8595
-0.8535
-0.857
-0.852
-0.846
-0.849
-0.851
-0.852
-0.849
-0.8495
-0.853
-0.8485
-0.8475
-0.8505
-0.8505
-0.8495
-0.8505
-0.852
-0.852
-0.856
-0.8535
-0.8525
-0.8505
-0.8545
-0.8515
-0.843
-0.8485
-0.8475
-0.85
-0.8505
-0.85
-0.8505
-0.8535
-0.857
-0.8515
-0.8465
-0.847
-0.849
-0.852
-0.857
-0.8535
-0.858
-0.86
-0.8535
-0.855
-0.8535
-0.853
-0.852
-0.8535
-0.853
-0.8505
-0.8525
-0.8535
-0.853
-0.8515
-0.8545
-0.8575
-0.859
-0.8575
-0.857
-0.857
-0.8595
-0.8605
-0.8605
-0.86
-0.859
-0.856
-0.8545
-0.8575
-0.8575
-0.8565
-0.855
-0.857
-0.8565
-0.8535
-0.852
-0.855
-0.848
-0.85
-0.863
-0.8575
-0.8565
-0.8605
-0.861
-0.862
-0.865
-0.86
-0.8535
-0.852
-0.8495
-0.8505
-0.8555
-0.8565
-0.8545
-0.8515
-0.851
-0.855
-0.859
-0.8565
-0.8535
-0.853
-0.852
-0.858
-0.8605
-0.855
-0.855
-0.856
-0.8525
-0.857
-0.862
-0.8575
-0.851
-0.8505
-0.8505
-0.847
-0.85
-0.8465
-0.8415
-0.8405
-0.8375
-0.837
-0.8365
-0.841
-0.8425
-0.84
-0.84
-0.834
-0.8345
-0.8365
-0.836
-0.8335
-0.8295
-0.828
-0.8275
-0.8285
-0.8215
-0.827
-0.8285
-0.8205
-0.8185
-0.8195
-0.821
-0.8165
-0.8155
-0.8125
-0.8185
-0.823
-0.82
-0.817
-0.809
-0.8045
-0.8
-0.8055
-0.7995
-0.799
-0.7905
-0.7785
-0.791
-0.7905
-0.7905
-0.794
-0.7955
-0.796
-0.7995
-0.798
-0.793
-0.793
-0.792
-0.797
-0.7955
-0.7985
-0.805
-0.7975
-0.7935
-0.794
-0.7945
-0.783
-0.7825
-0.7975
-0.7945
-0.7895
-0.787
-0.788
-0.7895
-0.788
-0.789
-0.7835
-0.782
-0.779
-0.781
-0.789
-0.789
-0.797
-0.8025
-0.8055
-0.8125
-0.82
-0.831
-0.835
-0.842
-0.8525
-0.853
-0.854
-0.8585
-0.8625
-0.8615
-0.8595
-0.8595
-0.86
-0.862
-0.864
-0.861
-0.861
-0.863
-0.866
-0.864
-0.862
-0.8705
-0.8655
-0.86
-0.8605
-0.8595
-0.866
-0.865
-0.859
-0.8585
-0.855
-0.853
-0.854
-0.86
-0.861
-0.854
-0.8545
-0.856
-0.854
-0.8535
-0.8605
-0.861
-0.856
-0.857
-0.8565
-0.858
-0.861
-0.8655
-0.8655
-0.862
-0.86
-0.856
-0.858
-0.861
-0.8635
-0.8655
-0.8685
-0.8735
-0.876
-0.8855
-0.895
-0.9045
-0.914
-0.911
-0.9055
-0.9085
-0.904
-0.891
-0.8855
-0.877
-0.865
-0.854
-0.84
-0.819
-0.7975
-0.7745
-0.745
-0.703
-0.6625
-0.6455
-0.628
-0.6025
-0.566
-0.5215
-0.471
-0.42
-0.384
-0.355
-0.311
-0.252
-0.2185
-0.2215
-0.2565
-0.2995
-0.333
-0.38
-0.4475
-0.5185
-0.5635
-0.595
-0.6265
-0.6565
-0.6815
-0.6905
-0.691
-0.7105
-0.7525
-0.7795
-0.8165
-0.863
-0.89
-0.9015
-0.9005
-0.898
-0.8905
-0.881
-0.875
-0.877
-0.878
-0.869
-0.8605
-0.862
-0.86
-0.8565
-0.857
-0.853
-0.8555
-0.856
-0.8515
-0.8505
-0.8505
-0.8495
-0.8535
-0.8615
-0.8585
-0.856
-0.8575
-0.8595
-0.8605
-0.8565
-0.857
-0.861
-0.866
-0.8675
-0.865
-0.8665
-0.8625
-0.861
-0.8605
-0.8555
-0.8535
-0.8525
-0.8595
-0.8605
-0.8565
-0.852
-0.853
-0.854
-0.8535
-0.8565
-0.853
-0.854
-0.858
-0.8535
-0.8495
-0.854
-0.855
-0.8515
-0.853
-0.849
-0.8485
-0.855
-0.8535
-0.8505
-0.8355
-0.8315
-0.85
-0.8495
-0.843
-0.84
-0.843
-0.848
-0.8455
-0.846
-0.8445
-0.842
-0.8445
-0.846
-0.847
-0.846
-0.835
-0.8335
-0.837
-0.8345
-0.8355
-0.841
-0.8405
-0.8385
-0.8405
-0.8375
-0.8375
-0.84
-0.8395
-0.8365
-0.8335
-0.8325
-0.8315
-0.837
-0.843
-0.8375
-0.83
-0.8285
-0.83
-0.83
-0.8305
-0.83
-0.829
-0.8295
-0.83
-0.8325
-0.831
-0.835
-0.835
-0.826
-0.828
-0.8325
-0.8345
-0.8345
-0.8365
-0.835
-0.8295
-0.8295
-0.8295
-0.8295
-0.83
-0.827
-0.8275
-0.8295
-0.8305
-0.831
-0.8295
-0.8295
-0.8285
-0.826
-0.826
-0.826
-0.8265
-0.83
-0.8255
-0.821
-0.815
-0.816
-0.824
-0.823
-0.823
-0.8225
-0.8215
-0.818
-0.817
-0.818
-0.82
-0.822
-0.818
-0.8165
-0.8155
-0.818
-0.8195
-0.819
-0.816
-0.8115
-0.814
-0.8125
-0.8105
-0.8115
-0.8115
-0.8135
-0.814
-0.8095
-0.8075
-0.8095
-0.8075
-0.8115
-0.814
-0.8115
-0.817
-0.803
-0.801
-0.8115
-0.8085
-0.8125
-0.8105
-0.809
-0.808
-0.806
-0.801
-0.7945
-0.799
-0.7975
-0.7955
-0.799
-0.799
-0.803
-0.798
-0.789
-0.793
-0.7965
-0.7915
-0.7885
-0.791
-0.7925
-0.791
-0.792
-0.791
-0.7825
-0.7775
-0.776
-0.7765
-0.7775
-0.7745
-0.7725
-0.773
-0.772
-0.7685
-0.7715
-0.771
-0.768
-0.769
-0.7705
-0.765
-0.763
-0.7665
-0.762
-0.762
-0.7625
-0.761
-0.7615
-0.76
-0.7575
-0.755
-0.754
-0.758
-0.7585
-0.7565
-0.758
-0.7575
-0.7595
-0.7595
-0.758
-0.7605
-0.761
-0.758
-0.76
-0.7585
-0.758
-0.7605
-0.7585
-0.7575
-0.758
-0.7605
-0.7615
-0.7615
-0.765
-0.764
-0.7645
-0.767
-0.768
-0.768
-0.7695
-0.7715
-0.777
-0.782
-0.7775
-0.779
-0.782
-0.7835
-0.785
-0.7865
-0.795
-0.8
-0.7985
-0.8025
-0.8075
-0.809
-0.8115
-0.809
-0.8135
-0.816
-0.8205
-0.829
-0.8305
-0.8305
-0.826
-0.83
-0.8325
-0.83
-0.833
-0.833
-0.837
-0.8395
-0.843
-0.8485
-0.847
-0.849
-0.855
-0.856
-0.8585
-0.857
-0.855
-0.8575
-0.8585
-0.8605
-0.8595
-0.861
-0.854
-0.8645
-0.878
-0.8705
-0.873
-0.8715
-0.8725
-0.8715
-0.871
-0.8745
-0.874
-0.8745
-0.8755
-0.8795
-0.8795
-0.88
-0.881
-0.881
-0.878
-0.877
-0.8775
-0.8785
-0.877
-0.875
-0.881
-0.8785
-0.8755
-0.8775
-0.879
-0.8755
-0.8705
-0.872
-0.872
-0.878
-0.88
-0.881
-0.879
-0.8765
-0.877
-0.874
-0.8775
-0.876
-0.8725
-0.873
-0.879
-0.8835
-0.8755
-0.868
-0.87
-0.877
-0.8775
-0.874
-0.877
-0.88
-0.874
-0.869
-0.877
-0.8805
-0.877
-0.8805
-0.8805
-0.8755
-0.872
-0.873
-0.8735
-0.871
-0.87
-0.8725
-0.878
-0.8765
-0.8775
-0.8785
-0.879
-0.877
-0.8705
-0.871
-0.8775
-0.8825
-0.88
-0.8825
-0.8865
-0.8845
-0.883
-0.881
-0.8825
-0.8805
-0.876
-0.8795
-0.8855
-0.8825
-0.8825
-0.884
-0.883
-0.8805
-0.88
-0.884
-0.883
-0.884
-0.8795
-0.879
-0.881
-0.8785
-0.881
-0.882
-0.884
-0.884
-0.884
-0.884
-0.8845
-0.885
-0.8785
-0.882
-0.878
-0.8685
-0.885
-0.8915
-0.8855
-0.8825
-0.88
-0.882
-0.8815
-0.8805
-0.8805
-0.881
-0.879
-0.8785
-0.8845
-0.888
-0.8885
-0.884
-0.8775
-0.878
-0.881
-0.878
-0.8815
-0.884
-0.8765
-0.8775
-0.879
-0.881
-0.885
-0.879
-0.8795
-0.877
-0.8715
-0.879
-0.88
-0.8795
-0.89
-0.8915
-0.8785
-0.871
-0.8785
-0.8845
-0.8835
-0.8785
-0.8705
-0.874
-0.881
-0.8825
-0.8835
-0.881
-0.8815
-0.879
-0.878
-0.8765
-0.878
-0.883
-0.8845
-0.8905
-0.885
-0.887
-0.8945
-0.8895
-0.881
-0.878
-0.882
-0.8815
-0.8755
-0.877
-0.8815
-0.877
-0.8795
-0.879
-0.874
-0.878
-0.8735
-0.866
-0.8765
-0.8835
-0.876
-0.8715
-0.8705
-0.8775
-0.8805
-0.875
-0.8715
-0.8705
-0.8755
-0.8785
-0.879
-0.8755
-0.8725
-0.876
-0.871
-0.875
-0.8785
-0.8765
-0.8805
-0.8775
-0.882
-0.878
-0.8715
-0.8745
-0.879
-0.88
-0.8765
-0.8795
-0.8775
-0.878
-0.878
-0.873
-0.872
-0.875
-0.8775
-0.878
-0.873
-0.871
-0.8735
-0.874
-0.876
-0.871
-0.8755
-0.879
-0.878
-0.8825
-0.8825
-0.8795
-0.8755
-0.8785
-0.8765
-0.875
-0.8785
-0.878
-0.8785
-0.8825
-0.8855
-0.8795
-0.88
-0.8695
-0.877
-0.88
-0.865
-0.8765
-0.877
-0.872
-0.8725
-0.873
-0.8785
-0.879
-0.8765
-0.876
-0.8705
-0.8715
-0.8735
-0.8775
-0.878
-0.873
-0.875
-0.872
-0.873
-0.8745
-0.8775
-0.877
-0.8745
-0.8785
-0.874
-0.871
-0.8695
-0.8695
-0.8685
-0.8665
-0.869
-0.875
-0.877
-0.8705
-0.8745
-0.8715
-0.8675
-0.871
-0.8705
-0.87
-0.8665
-0.866
-0.8685
-0.87
-0.8655
-0.866
-0.8675
-0.8655
-0.8705
-0.8735
-0.868
-0.8625
-0.858
-0.8605
-0.864
-0.86
-0.86
-0.867
-0.8695
-0.867
-0.86
-0.8605
-0.8665
-0.865
-0.867
-0.8655
-0.8595
-0.8545
-0.861
-0.869
-0.8675
-0.8655
-0.8635
-0.86
-0.8575
-0.8575
-0.86
-0.858
-0.857
-0.8575
-0.851
-0.8525
-0.8495
-0.8465
-0.8515
-0.848
-0.847
-0.8465
-0.84
-0.8365
-0.834
-0.8335
-0.8365
-0.8385
-0.84
-0.839
-0.839
-0.8365
-0.835
-0.833
-0.8275
-0.827
-0.8325
-0.828
-0.8185
-0.818
-0.816
-0.8185
-0.8185
-0.816
-0.8145
-0.808
-0.803
-0.811
-0.8105
-0.8025
-0.802
-0.7955
-0.7915
-0.791
-0.795
-0.8005
-0.81
-0.8155
-0.8115
-0.81
-0.805
-0.8035
-0.792
-0.782
-0.7875
-0.7905
-0.805
-0.8
-0.7995
-0.82
-0.821
-0.813
-0.8095
-0.806
-0.803
-0.806
-0.803
-0.8005
-0.8
-0.7945
-0.7895
-0.797
-0.805
-0.8005
-0.795
-0.7885
-0.786
-0.796
-0.798
-0.7945
-0.809
-0.8165
-0.8185
-0.826
-0.833
-0.8485
-0.86
-0.86
-0.8605
-0.863
-0.8665
-0.8685
-0.8635
-0.861
-0.861
-0.8635
-0.8745
-0.875
-0.8685
-0.867
-0.8715
-0.873
-0.874
-0.8735
-0.8685
-0.8755
-0.8785
-0.872
-0.868
-0.877
-0.8825
-0.876
-0.8735
-0.875
-0.881
-0.878
-0.873
-0.874
-0.876
-0.8775
-0.8795
-0.881
-0.8775
-0.8805
-0.881
-0.883
-0.888
-0.879
-0.8785
-0.8815
-0.877
-0.8785
-0.8765
-0.882
-0.8855
-0.876
-0.876
-0.876
-0.879
-0.8845
-0.8915
-0.899
-0.905
-0.916
-0.927
-0.934
-0.933
-0.9345
-0.9335
-0.9225
-0.91
-0.904
-0.897
-0.8825
-0.8685
-0.8555
-0.842
-0.8205
-0.794
-0.766
-0.732
-0.6995
-0.6615
-0.6275
-0.618
-0.5905
-0.5355
-0.479
-0.4275
-0.385
-0.3475
-0.304
-0.254
-0.2195
-0.225
-0.261
-0.299
-0.3325
-0.376
-0.4385
-0.5145
-0.569
-0.603
-0.6275
-0.6515
-0.6835
-0.6955
-0.6915
-0.7105
-0.7545
-0.785
-0.821
-0.8725
-0.912
-0.9285
-0.925
-0.922
-0.9115
-0.897
-0.89
-0.8895
-0.8905
-0.8835
-0.878
-0.872
-0.8715
-0.861
-0.846
-0.8665
-0.8745
-0.862
-0.8605
-0.8635
-0.864
-0.862
-0.861
-0.8615
-0.867
-0.8655
-0.8635
-0.862
-0.8605
-0.86
-0.8565
-0.8575
-0.86
-0.8675
-0.8755
-0.872
-0.8665
-0.8625
-0.86
-0.8625
-0.8675
-0.867
-0.863
-0.862
-0.8645
-0.868
-0.864
-0.8655
-0.866
-0.861
-0.8645
-0.86
-0.857
-0.859
-0.858
-0.8605
-0.862
-0.8575
-0.8535
-0.8615
-0.8645
-0.8705
-0.8735
-0.864
-0.8575
-0.8555
-0.8635
-0.8695
-0.867
-0.8645
-0.863
-0.8605
-0.857
-0.8555
-0.8565
-0.8565
-0.8585
-0.8575
-0.857
-0.86
-0.858
-0.8525
-0.85
-0.8505
-0.848
-0.8455
-0.842
-0.844
-0.8495
-0.855
-0.8585
-0.8515
-0.853
-0.858
-0.8555
-0.8545
-0.8575
-0.8525
-0.8495
-0.85
-0.848
-0.8455
-0.845
-0.849
-0.846
-0.847
-0.837
-0.8365
-0.852
-0.846
-0.8395
-0.8415
-0.844
-0.8435
-0.84
-0.8405
-0.845
-0.842
-0.8375
-0.8405
-0.8385
-0.8365
-0.833
-0.8315
-0.8365
-0.838
-0.8375
-0.84
-0.8405
-0.84
-0.839
-0.8385
-0.8435
-0.841
-0.8385
-0.832
-0.83
-0.834
-0.8325
-0.836
-0.8325
-0.831
-0.837
-0.8345
-0.8275
-0.826
-0.823
-0.822
-0.823
-0.819
-0.8215
-0.8235
-0.824
-0.824
-0.8225
-0.824
-0.827
-0.823
-0.8145
-0.8125
-0.8155
-0.8185
-0.817
-0.8155
-0.8125
-0.8145
-0.8135
-0.812
-0.812
-0.814
-0.8195
-0.816
-0.8165
-0.8085
-0.8055
-0.8055
-0.8035
-0.8055
-0.8065
-0.8065
-0.8005
-0.7995
-0.7995
-0.8015
-0.8015
-0.8
-0.8005
-0.8005
-0.7975
-0.796
-0.795
-0.7915
-0.7935
-0.7935
-0.791
-0.782
-0.775
-0.7795
-0.779
-0.7765
-0.785
-0.788
-0.7865
-0.7855
-0.776
-0.776
-0.7805
-0.782
-0.781
-0.782
-0.78
-0.778
-0.782
-0.78
-0.7775
-0.777
-0.777
-0.7785
-0.776
-0.7715
-0.7655
-0.768
-0.7735
-0.774
-0.772
-0.766
-0.7605
-0.763
-0.765
-0.764
-0.7605
-0.757
-0.758
-0.76
-0.763
-0.761
-0.761
-0.7605
-0.759
-0.765
-0.7635
-0.761
-0.761
-0.7585
-0.7575
-0.7575
-0.76
-0.761
-0.763
-0.7645
-0.766
-0.7635
-0.7575
-0.7595
-0.7615
-0.7635
-0.7685
-0.7715
-0.769
-0.7725
-0.7735
-0.7715
-0.7715
-0.774
-0.7785
-0.772
-0.7855
-0.801
-0.7975
-0.798
-0.794
-0.791
-0.796
-0.8035
-0.7985
-0.794
-0.809
-0.8145
-0.812
-0.8155
-0.8145
-0.8185
-0.824
-0.826
-0.827
-0.827
-0.826
-0.8295
-0.8355
-0.84
-0.845
-0.8465
-0.85
-0.85
-0.8535
-0.8605
-0.8585
-0.8565
-0.854
-0.856
-0.8595
-0.8585
-0.856
-0.8565
-0.858
-0.8605
-0.863
-0.8655
-0.866
-0.863
-0.8625
-0.8635
-0.863
-0.8655
-0.867
-0.8685
-0.8685
-0.8605
-0.863
-0.8665
-0.8625
-0.8655
-0.8665
-0.8675
-0.8695
-0.8645
-0.8635
-0.8705
-0.8775
-0.874
-0.8695
-0.8715
-0.872
-0.8705
-0.8725
-0.872
-0.871
-0.8715
-0.868
-0.868
-0.8635
-0.865
-0.8685
-0.8615
-0.862
-0.863
-0.8645
-0.8665
-0.866
-0.8655
-0.8585
-0.862
-0.864
-0.87
-0.875
-0.863
-0.86
-0.8605
-0.8595
-0.8575
-0.8565
-0.86
-0.861
-0.8565
-0.858
-0.8605
-0.8615
-0.8635
-0.8635
-0.8635
-0.863
-0.863
-0.863
-0.866
-0.8665
-0.864
-0.8635
-0.865
-0.8595
-0.858
-0.863
-0.8575
-0.8545
-0.8525
-0.8545
-0.8455
-0.8445
-0.865
-0.8645
-0.8595
-0.859
-0.8555
-0.8565
-0.8555
-0.854
-0.8525
-0.855
-0.858
-0.8575
-0.856
-0.8545
-0.851
-0.8505
-0.856
-0.853
-0.852
-0.8515
-0.8465
-0.851
-0.853
-0.854
-0.855
-0.8545
-0.8575
-0.855
-0.8495
-0.8545
-0.856
-0.85
-0.854
-0.8505
-0.8485
-0.8505
-0.849
-0.85
-0.853
-0.8545
-0.855
-0.8545
-0.853
-0.855
-0.854
-0.8535
-0.8515
-0.857
-0.8605
-0.8595
-0.863
-0.856
-0.8555
-0.8585
-0.858
-0.855
-0.8505
-0.85
-0.854
-0.859
-0.8605
-0.8585
-0.853
-0.853
-0.8535
-0.8545
-0.8565
-0.8555
-0.8505
-0.8475
-0.853
-0.8535
-0.854
-0.8515
-0.85
-0.8505
-0.8475
-0.8535
-0.861
-0.858
-0.8535
-0.8525
-0.8475
-0.8465
-0.8465
-0.8495
-0.8545
-0.8565
-0.8565
-0.8525
-0.8485
-0.8515
-0.8535
-0.8525
-0.854
-0.852
-0.8525
-0.8545
-0.8565
-0.8575
-0.8555
-0.8565
-0.8565
-0.857
-0.856
-0.856
-0.8575
-0.856
-0.8555
-0.857
-0.8545
-0.85
-0.849
-0.8495
-0.8505
-0.847
-0.8485
-0.846
-0.84
-0.844
-0.846
-0.849
-0.849
-0.846
-0.85
-0.85
-0.851
-0.8565
-0.855
-0.8505
-0.847
-0.8485
-0.8515
-0.8505
-0.851
-0.8495
-0.8505
-0.846
-0.843
-0.8485
-0.8475
-0.8465
-0.8465
-0.8535
-0.8575
-0.855
-0.855
-0.8505
-0.847
-0.847
-0.8515
-0.8535
-0.851
-0.8525
-0.857
-0.855
-0.8515
-0.848
-0.848
-0.8525
-0.8505
-0.8545
-0.858
-0.8515
-0.848
-0.8525
-0.854
-0.852
-0.849
-0.8485
-0.8515
-0.85
-0.847
-0.849
-0.8505
-0.8485
-0.846
-0.847
-0.8515
-0.8515
-0.848
-0.848
-0.8485
-0.8505
-0.85
-0.8505
-0.854
-0.8525
-0.85
-0.8505
-0.8525
-0.8505
-0.8495
-0.8535
-0.852
-0.847
-0.8465
-0.8445
-0.8455
-0.847
-0.848
-0.8505
-0.8505
-0.848
-0.846
-0.848
-0.8455
-0.8425
-0.8445
-0.847
-0.847
-0.842
-0.84
-0.842
-0.8435
-0.8445
-0.844
-0.8455
-0.8465
-0.841
-0.8395
-0.8425
-0.844
-0.843
-0.84
-0.8395
-0.842
-0.8425
-0.8395
-0.8355
-0.8295
-0.8255
-0.826
-0.826
-0.8265
-0.8255
-0.826
-0.8265
-0.8245
-0.8255
-0.827
-0.829
-0.83
-0.825
-0.8175
-0.8185
-0.8255
-0.823
-0.8175
-0.812
-0.807
-0.806
-0.8035
-0.8045
-0.804
-0.8035
-0.8045
-0.802
-0.802
-0.7965
-0.7915
-0.7905
-0.788
-0.784
-0.78
-0.778
-0.7785
-0.7795
-0.7785
-0.783
-0.781
-0.7765
-0.7825
-0.7855
-0.783
-0.7775
-0.7755
-0.778
-0.7835
-0.7905
-0.791
-0.7925
-0.791
-0.7875
-0.789
-0.785
-0.783
-0.7885
-0.788
-0.787
-0.7825
-0.7725
-0.775
-0.779
-0.776
-0.7745
-0.77
-0.77
-0.772
-0.7735
-0.7795
-0.784
-0.7855
-0.791
-0.8015
-0.8115
-0.821
-0.8315
-0.8415
-0.8475
-0.8445
-0.842
-0.8505
-0.847
-0.843
-0.8465
-0.8435
-0.847
-0.852
-0.8525
-0.8545
-0.8595
-0.86
-0.857
-0.8565
-0.8605
-0.863
-0.861
-0.862
-0.8605
-0.8605
-0.86
-0.8615
-0.863
-0.8635
-0.8635
-0.8575
-0.859
-0.861
-0.86
-0.861
-0.86
-0.8605
-0.8595
-0.856
-0.857
-0.8615
-0.866
-0.8655
-0.8615
-0.864
-0.8665
-0.8675
-0.8665
-0.8645
-0.86
-0.86
-0.8625
-0.8595
-0.8635
-0.868
-0.875
-0.8825
-0.8845
-0.891
-0.9
-0.9115
-0.9185
-0.914
-0.9095
-0.9075
-0.897
-0.888
-0.8815
-0.8685
-0.8615
-0.856
-0.8385
-0.8155
-0.793
-0.7755
-0.7485
-0.703
-0.6645
-0.6315
-0.61
-0.5925
-0.556
-0.5105
-0.4575
-0.404
-0.368
-0.3405
-0.2975
-0.243
-0.2135
-0.227
-0.261
-0.302
-0.3395
-0.387
-0.4635
-0.531
-0.572
-0.6025
-0.6285
-0.657
-0.6815
-0.687
-0.6895
-0.716
-0.7565
-0.7885
-0.832
-0.875
-0.9
-0.91
-0.9095
-0.9035
-0.896
-0.891
-0.885
-0.882
-0.88
-0.8725
-0.8675
-0.872
-0.867
-0.8565
-0.8565
-0.855
-0.854
-0.854
-0.854
-0.854
-0.8545
-0.854
-0.8545
-0.859
-0.8565
-0.8585
-0.8625
-0.8605
-0.8595
-0.854
-0.8555
-0.858
-0.859
-0.8615
-0.8575
-0.8535
-0.8545
-0.8565
-0.856
-0.8555
-0.8565
-0.857
-0.8545
-0.855
-0.8565
-0.857
-0.8565
-0.857
-0.856
-0.852
-0.8545
-0.8575
-0.8585
-0.8555
-0.853
-0.856
-0.855
-0.8525
-0.8505
-0.8535
-0.852
-0.8495
-0.85
-0.8525
-0.853
-0.85
-0.8495
-0.85
-0.854
-0.853
-0.855
-0.8545
-0.8525
-0.8555
-0.8525
-0.8525
-0.85
-0.8495
-0.85
-0.85
-0.8485
-0.846
-0.8435
-0.8435
-0.844
-0.8435
-0.8465
-0.8465
-0.8465
-0.8435
-0.8435
-0.848
-0.846
-0.845
-0.8485
-0.85
-0.8425
-0.8405
-0.8435
-0.84
-0.836
-0.8395
-0.843
-0.8465
-0.8455
-0.8385
-0.8425
-0.8395
-0.834
-0.8375
-0.841
-0.8435
-0.8425
-0.841
-0.8375
-0.8365
-0.8345
-0.833
-0.836
-0.8355
-0.831
-0.829
-0.828
-0.828
-0.8295
-0.831
-0.833
-0.83
-0.829
-0.83
-0.829
-0.831
-0.827
-0.826
-0.827
-0.8285
-0.829
-0.8255
-0.827
-0.823
-0.8215
-0.823
-0.822
-0.823
-0.8215
-0.8185
-0.82
-0.8175
-0.815
-0.8155
-0.816
-0.819
-0.8205
-0.8185
-0.8155
-0.816
-0.8135
-0.8095
-0.811
-0.811
-0.806
-0.8055
-0.8045
-0.802
-0.8005
-0.8005
-0.8015
-0.8015
-0.802
-0.8045
-0.8055
-0.803
-0.7985
-0.798
-0.7985
-0.796
-0.797
-0.7985
-0.798
-0.796
-0.793
-0.7895
-0.791
-0.791
-0.7865
-0.785
-0.7855
-0.7855
-0.7845
-0.7835
-0.787
-0.787
-0.7845
-0.785
-0.785
-0.7855
-0.7825
-0.7815
-0.7815
-0.777
-0.7745
-0.776
-0.7755
-0.773
-0.77
-0.7645
-0.764
-0.7675
-0.768
-0.7685
-0.767
-0.762
-0.7605
-0.7615
-0.76
-0.758
-0.757
-0.754
-0.7555
-0.757
-0.7535
-0.75
-0.7485
-0.7495
-0.746
-0.743
-0.744
-0.7415
-0.7395
-0.7405
-0.7455
-0.7415
-0.7405
-0.741
-0.7365
-0.7425
-0.741
-0.74
-0.7405
-0.7375
-0.737
-0.733
-0.736
-0.737
-0.7325
-0.7335
-0.7335
-0.7355
-0.74
-0.7405
-0.742
-0.7415
-0.739
-0.742
-0.7455
-0.748
-0.744
-0.742
-0.746
-0.751
-0.7535
-0.7525
-0.756
-0.757
-0.759
-0.7625
-0.7675
-0.7725
-0.774
-0.772
-0.7725
-0.779
-0.7805
-0.7835
-0.788
-0.7905
-0.791
-0.795
-0.797
-0.7975
-0.8045
-0.8055
-0.8055
-0.8055
-0.809
-0.813
-0.8155
-0.821
-0.8225
-0.8225
-0.827
-0.833
-0.8365
-0.8385
-0.838
-0.8355
-0.832
-0.831
-0.8365
-0.841
-0.842
-0.8405
-0.835
-0.834
-0.839
-0.841
-0.8455
-0.8445
-0.8405
-0.84
-0.8425
-0.8495
-0.849
-0.8485
-0.8475
-0.8425
-0.8375
-0.84
-0.846
-0.8435
-0.8405
-0.837
-0.838
-0.8405
-0.839
-0.8405
-0.8445
-0.844
-0.8425
-0.8445
-0.8455
-0.845
-0.847
-0.8495
-0.849
-0.85
-0.849
-0.8485
-0.847
-0.845
-0.846
-0.8435
-0.8445
-0.849
-0.8495
-0.85
-0.8515
-0.8535
-0.8525
-0.847
-0.8465
-0.852
-0.8495
-0.852
-0.8535
-0.851
-0.8535
-0.8495
-0.8485
-0.85
-0.8485
-0.8465
-0.848
-0.8505
-0.848
-0.8495
-0.8495
-0.85
-0.852
-0.851
-0.8565
-0.854
-0.854
-0.8565
-0.8535
-0.8565
-0.851
-0.8505
-0.8545
-0.8575
-0.856
-0.8445
-0.8465
-0.8515
-0.85
-0.8475
-0.8465
-0.845
-0.843
-0.8455
-0.847
-0.8515
-0.851
-0.847
-0.8495
-0.851
-0.8465
-0.8435
-0.8455
-0.849
-0.8505
-0.8515
-0.849
-0.846
-0.852
-0.8505
-0.8505
-0.853
-0.8495
-0.8445
-0.844
-0.851
-0.8505
-0.8505
-0.8485
-0.843
-0.843
-0.8485
-0.848
-0.848
-0.8515
-0.8485
-0.8465
-0.8475
-0.8465
-0.841
-0.8425
-0.8425
-0.8405
-0.845
-0.846
-0.848
-0.85
-0.8465
-0.847
-0.8465
-0.8425
-0.843
-0.8425
-0.8455
-0.8465
-0.8445
-0.844
-0.843
-0.8435
-0.8425
-0.844
-0.844
-0.841
-0.8405
-0.846
-0.85
-0.849
-0.845
-0.846
-0.848
-0.8415
-0.845
-0.845
-0.8395
-0.841
-0.8415
-0.842
-0.841
-0.839
-0.8375
-0.8405
-0.8405
-0.8405
-0.844
-0.843
-0.843
-0.843
-0.8405
-0.8425
-0.844
-0.837
-0.838
-0.842
-0.84
-0.8415
-0.8425
-0.841
-0.843
-0.8465
-0.8455
-0.8415
-0.841
-0.8425
-0.8415
-0.846
-0.8495
-0.8485
-0.843
-0.8435
-0.8435
-0.839
-0.844
-0.8425
-0.845
-0.846
-0.8415
-0.847
-0.849
-0.849
-0.8425
-0.8375
-0.8415
-0.8415
-0.842
-0.8435
-0.8415
-0.839
-0.839
-0.8425
-0.84
-0.839
-0.8425
-0.8395
-0.84
-0.8435
-0.8435
-0.8415
-0.835
-0.8355
-0.843
-0.8425
-0.84
-0.84
-0.843
-0.846
-0.8475
-0.8505
-0.8445
-0.8385
-0.8415
-0.838
-0.8355
-0.8395
-0.844
-0.8415
-0.8345
-0.8375
-0.8375
-0.8365
-0.8385
-0.8405
-0.843
-0.8405
-0.84
-0.8455
-0.846
-0.844
-0.8465
-0.8445
-0.846
-0.8455
-0.844
-0.843
-0.84
-0.842
-0.842
-0.842
-0.841
-0.8395
-0.843
-0.8475
-0.847
-0.8465
-0.8465
-0.8495
-0.8515
-0.8475
-0.8505
-0.851
-0.8475
-0.8465
-0.8465
-0.8525
-0.8525
-0.8485
-0.8465
-0.8465
-0.8465
-0.848
-0.8455
-0.8435
-0.8455
-0.8425
-0.845
-0.851
-0.849
-0.8515
-0.8525
-0.8445
-0.846
-0.844
-0.8425
-0.845
-0.8415
-0.84
-0.837
-0.8355
-0.8365
-0.836
-0.833
-0.8395
-0.8375
-0.8295
-0.833
-0.831
-0.8325
-0.8325
-0.8275
-0.83
-0.829
-0.8265
-0.821
-0.81
-0.815
-0.8215
-0.8175
-0.8145
-0.819
-0.8195
-0.8155
-0.8135
-0.8105
-0.806
-0.803
-0.8025
-0.799
-0.8
-0.7955
-0.7935
-0.7955
-0.794
-0.7975
-0.799
-0.8025
-0.802
-0.7935
-0.788
-0.7855
-0.7835
-0.78
-0.779
-0.772
-0.7675
-0.7665
-0.7645
-0.7695
-0.77
-0.769
-0.7735
-0.777
-0.777
-0.7735
-0.7725
-0.775
-0.769
-0.767
-0.7795
-0.779
-0.779
-0.7845
-0.78
-0.7745
-0.7685
-0.7705
-0.775
-0.776
-0.7755
-0.7735
-0.766
-0.762
-0.763
-0.766
-0.77
-0.761
-0.7535
-0.7525
-0.7515
-0.7585
-0.767
-0.7725
-0.776
-0.781
-0.7895
-0.8
-0.8105
-0.823
-0.8335
-0.834
-0.8355
-0.835
-0.8295
-0.833
-0.841
-0.8395
-0.84
-0.842
-0.8335
-0.834
-0.8405
-0.844
-0.85
-0.852
-0.8495
-0.8505
-0.8535
-0.8505
-0.846
-0.8485
-0.851
-0.8485
-0.8485
-0.8505
-0.8505
-0.849
-0.8445
-0.8435
-0.843
-0.846
-0.8475
-0.843
-0.8435
-0.846
-0.8445
-0.8445
-0.847
-0.843
-0.848
-0.853
-0.851
-0.853
-0.848
-0.8465
-0.8425
-0.8405
-0.8465
-0.849
-0.847
-0.8485
-0.8575
-0.863
-0.868
-0.8765
-0.883
-0.888
-0.8965
-0.9015
-0.898
-0.8915
-0.8845
-0.8765
-0.867
-0.858
-0.85
-0.847
-0.8375
-0.811
-0.785
-0.76
-0.7395
-0.7105
-0.6745
-0.6385
-0.6025
-0.584
-0.5555
-0.511
-0.4625
-0.4085
-0.3575
-0.326
-0.288
-0.2265
-0.1785
-0.178
-0.213
-0.2455
-0.2795
-0.32
-0.3785
-0.4545
-0.5155
-0.555
-0.5795
-0.6065
-0.64
-0.6505
-0.653
-0.6635
-0.698
-0.7395
-0.7795
-0.83
-0.8605
-0.8755
-0.8835
-0.881
-0.8715
-0.864
-0.8605
-0.857
-0.8565
-0.853
-0.847
-0.844
-0.8405
-0.836
-0.8385
-0.8365
-0.8305
-0.836
-0.8365
-0.831
-0.8345
-0.837
-0.8365
-0.8365
-0.8365
-0.8385
-0.8405
-0.84
-0.843
-0.8475
-0.8455
-0.8445
-0.843
-0.843
-0.8445
-0.847
-0.8505
-0.8535
-0.852
-0.8475
-0.8475
-0.8425
-0.8465
-0.8525
-0.847
-0.8455
-0.8405
-0.841
-0.8465
-0.8425
-0.8395
-0.8425
-0.846
-0.841
-0.8385
-0.841
-0.8425
-0.8445
-0.8415
-0.835
-0.833
-0.8345
-0.8355
-0.832
-0.8325
-0.831
-0.8265
-0.8255
-0.8285
-0.834
-0.8315
-0.8325
-0.832
-0.83
-0.8275
-0.8275
-0.8325
-0.8285
-0.825
-0.8245
-0.825
-0.824
-0.8215
-0.8195
-0.819
-0.8195
-0.822
-0.8195
-0.8185
-0.826
-0.819
-0.812
-0.8135
-0.8135
-0.819
-0.821
-0.8145
-0.8145
-0.815
-0.809
-0.8115
-0.8135
-0.8115
-0.808
-0.8085
-0.812
-0.8075
-0.8095
-0.8135
-0.8115
-0.81
-0.8115
-0.8115
-0.8075
-0.8125
-0.816
-0.8085
-0.8085
-0.8045
-0.7995
-0.8035
-0.8095
-0.8105
-0.8085
-0.8065
-0.804
-0.7995
-0.7995
-0.803
-0.802
-0.803
-0.7995
-0.799
-0.8045
-0.806
-0.8025
-0.7995
-0.799
-0.795
-0.802
-0.8055
-0.7975
-0.792
-0.7975
-0.801
-0.795
-0.7955
-0.7925
-0.791
-0.7915
-0.793
-0.796
-0.795
-0.7955
-0.7955
-0.7925
-0.795
-0.7995
-0.787
-0.785
-0.7915
-0.7885
-0.788
-0.783
-0.784
-0.783
-0.781
-0.7795
-0.7765
-0.781
-0.786
-0.7845
-0.7795
-0.781
-0.782
-0.782
-0.78
-0.778
-0.777
-0.777
-0.7785
-0.7735
-0.773
-0.772
-0.7655
-0.7675
-0.767
-0.768
-0.7695
-0.7645
-0.7645
-0.761
-0.764
-0.763
-0.7625
-0.761
-0.753
-0.7575
-0.7525
-0.7455
-0.743
-0.741
-0.743
-0.7445
-0.741
-0.74
-0.74
-0.737
-0.7405
-0.741
-0.74
-0.7395
-0.74
-0.739
-0.7385
-0.7395
-0.737
-0.736
-0.729
-0.7275
-0.728
-0.7255
-0.7285
-0.7275
-0.724
-0.7215
-0.722
-0.724
-0.724
-0.7275
-0.726
-0.7205
-0.722
-0.7275
-0.732
-0.729
-0.724
-0.7225
-0.72
-0.7175
-0.7235
-0.7255
-0.7225
-0.7235
-0.7195
-0.715
-0.7135
-0.7155
-0.717
-0.719
-0.721
-0.7205
-0.7215
-0.725
-0.727
-0.7265
-0.7235
-0.7285
-0.735
-0.7375
-0.7405
-0.7425
-0.739
-0.7365
-0.74
-0.7455
-0.75
-0.7495
-0.7555
-0.758
-0.759
-0.765
-0.763
-0.7715
-0.7805
-0.779
-0.7805
-0.782
-0.7815
-0.7905
-0.7965
-0.795
-0.793
-0.792
-0.7945
-0.7995
-0.809
-0.806
-0.81
-0.817
-0.816
-0.8195
-0.819
-0.8225
-0.8235
-0.8225
-0.822
-0.824
-0.827
-0.826
-0.8285
-0.8305
-0.8345
-0.828
-0.8265
-0.834
-0.8335
-0.8305
-0.832
-0.837
-0.837
-0.8405
-0.838
-0.8335
-0.836
-0.837
-0.8385
-0.8355
-0.8325
-0.834
-0.8395
-0.84
-0.836
-0.8365
-0.8335
-0.838
-0.8415
-0.8395
-0.8435
-0.8385
-0.838
-0.8435
-0.8425
-0.8435
-0.8435
-0.8415
-0.8435
-0.8465
-0.844
-0.841
-0.839
-0.8405
-0.845
-0.839
-0.8385
-0.838
-0.8315
-0.8335
-0.839
-0.8445
-0.8405
-0.8365
-0.836
-0.8355
-0.84
-0.8375
-0.8375
-0.8395
-0.8365
-0.8355
-0.838
-0.8415
-0.8415
-0.839
-0.837
-0.8335
-0.8355
-0.839
-0.8405
-0.8405
-0.837
-0.837
-0.84
-0.8405
-0.84
-0.8375
-0.8365
-0.836
-0.8365
-0.8345
-0.8295
-0.832
-0.838
-0.8385
-0.832
-0.8305
-0.8345
-0.835
-0.8385
-0.84
-0.834
-0.833
-0.8315
-0.83
-0.835
-0.836
-0.836
-0.8415
-0.842
-0.838
-0.834
-0.8355
-0.8405
-0.8375
-0.831
-0.8335
-0.834
-0.831
-0.8375
-0.8395
-0.836
-0.8365
-0.8365
-0.8365
-0.835
-0.8325
-0.8345
-0.8345
-0.8315
-0.8265
-0.828
-0.8305
-0.8295
-0.83
-0.826
-0.827
-0.8285
-0.823
-0.8295
-0.8375
-0.837
-0.8375
-0.833
-0.8305
-0.834
-0.832
-0.83
-0.827
-0.826
-0.8275
-0.8275
-0.8295
-0.826
-0.8255
-0.8265
-0.828
-0.833
-0.833
-0.8275
-0.8285
-0.829
-0.83
-0.8325
-0.831
-0.83
-0.8315
-0.834
-0.833
-0.8325
-0.83
-0.8295
-0.8295
-0.8235
-0.819
-0.815
-0.82
-0.8265
-0.8265
-0.827
-0.824
-0.8245
-0.826
-0.8245
-0.8225
-0.823
-0.822
-0.8235
-0.8295
-0.8265
-0.831
-0.8275
-0.814
-0.8125
-0.8165
-0.82
-0.8185
-0.816
-0.817
-0.821
-0.822
-0.819
-0.8195
-0.8205
-0.819
-0.8185
-0.822
-0.8255
-0.8245
-0.821
-0.818
-0.822
-0.82
-0.82
-0.822
-0.816
-0.8175
-0.823
-0.819
-0.821
-0.8255
-0.8235
-0.8255
-0.8195
-0.823
-0.827
-0.822
-0.823
-0.827
-0.828
-0.823
-0.8215
-0.821
-0.8225
-0.8185
-0.816
-0.8195
-0.82
-0.818
-0.8205
-0.823
-0.82
-0.8185
-0.8175
-0.818
-0.818
-0.8165
-0.818
-0.8215
-0.8185
-0.816
-0.8175
-0.822
-0.823
-0.82
-0.8205
-0.8195
-0.819
-0.819
-0.821
-0.8215
-0.819
-0.816
-0.821
-0.829
-0.829
-0.825
-0.8175
-0.8205
-0.8265
-0.8245
-0.8235
-0.821
-0.8195
-0.815
-0.812
-0.8145
-0.8155
-0.8185
-0.8195
-0.8215
-0.8205
-0.8215
-0.8245
-0.822
-0.827
-0.8335
-0.8265
-0.8225
-0.8245
-0.821
-0.819
-0.816
-0.8185
-0.817
-0.815
-0.81
-0.8065
-0.815
-0.8165
-0.814
-0.812
-0.812
-0.8145
-0.824
-0.8255
-0.8205
-0.816
-0.8105
-0.8155
-0.814
-0.808
-0.8075
-0.813
-0.8125
-0.8115
-0.8165
-0.8135
-0.811
-0.81
-0.8065
-0.812
-0.818
-0.814
-0.81
-0.8095
-0.8125
-0.809
-0.8125
-0.82
-0.8185
-0.8165
-0.8125
-0.814
-0.817
-0.8175
-0.8145
-0.8105
-0.811
-0.8145
-0.8155
-0.812
-0.814
-0.8125
-0.8075
-0.8055
-0.8085
-0.8125
-0.8095
-0.807
-0.8035
-0.7985
-0.797
-0.7995
-0.798
-0.7985
-0.793
-0.786
-0.7855
-0.7855
-0.794
-0.7965
-0.795
-0.7965
-0.7915
-0.7885
-0.792
-0.7915
-0.7855
-0.782
-0.7785
-0.7785
-0.7775
-0.7745
-0.7725
-0.7665
-0.764
-0.7635
-0.767
-0.77
-0.767
-0.7715
-0.774
-0.7695
-0.763
-0.758
-0.755
-0.753
-0.7545
-0.746
-0.733
-0.734
-0.741
-0.7415
-0.7445
-0.748
-0.7455
-0.745
-0.7485
-0.7535
-0.7515
-0.7485
-0.7505
-0.7465
-0.7465
-0.7515
-0.75
-0.757
-0.7565
-0.75
-0.7535
-0.747
-0.747
-0.7505
-0.744
-0.74
-0.737
-0.7335
-0.7295
-0.7335
-0.739
-0.748
-0.7465
-0.735
-0.7335
-0.744
-0.7515
-0.7485
-0.7535
-0.756
-0.766
-0.78
-0.791
-0.7985
-0.7975
-0.808
-0.814
-0.813
-0.8125
-0.816
-0.818
-0.8175
-0.8135
-0.809
-0.8135
-0.8185
-0.8225
-0.823
-0.8295
-0.832
-0.8225
-0.8185
-0.8215
-0.8245
-0.8265
-0.825
-0.825
-0.826
-0.8275
-0.8345
-0.833
-0.828
-0.824
-0.8235
-0.8285
-0.827
-0.8285
-0.83
-0.8315
-0.832
-0.8215
-0.819
-0.8255
-0.8305
-0.8275
-0.8225
-0.826
-0.8305
-0.8285
-0.8215
-0.825
-0.8285
-0.8245
-0.826
-0.829
-0.8305
-0.835
-0.8365
-0.84
-0.848
-0.8555
-0.8645
-0.868
-0.881
-0.8925
-0.8855
-0.878
-0.8635
-0.853
-0.852
-0.84
-0.8325
-0.827
-0.8095
-0.7865
-0.7615
-0.7425
-0.715
-0.676
-0.639
-0.6025
-0.5765
-0.557
-0.518
-0.467
-0.4145
-0.362
-0.3265
-0.2955
-0.2565
-0.2
-0.156
-0.171
-0.2065
-0.248
-0.2895
-0.321
-0.398
-0.479
-0.5155
-0.546
-0.561
-0.5845
-0.6145
-0.6245
-0.6305
-0.6615
-0.7105
-0.7435
-0.7835
-0.828
-0.8605
-0.8765
-0.872
-0.865
-0.8605
-0.858
-0.8505
-0.8445
-0.843
-0.8355
-0.8265
-0.8265
-0.8215
-0.809
-0.8175
-0.83
-0.822
-0.809
-0.801
-0.804
-0.813
-0.8115
-0.8095
-0.815
-0.82
-0.8165
-0.8155
-0.8215
-0.8195
-0.8135
-0.8185
-0.8235
-0.819
-0.825
-0.8285
-0.8185
-0.815
-0.8175
-0.8195
-0.8215
-0.8235
-0.8215
-0.816
-0.8155
-0.8255
-0.8275
-0.816
-0.813
-0.8125
-0.811
-0.814
-0.8115
-0.807
-0.8065
-0.805
-0.8055
-0.8085
-0.811
-0.812
-0.8055
-0.8
-0.804
-0.812
-0.813
-0.8085
-0.8065
-0.802
-0.804
-0.8095
-0.803
-0.799
-0.7975
-0.7995
-0.8045
-0.801
-0.7945
-0.7985
-0.7925
-0.789
-0.7955
-0.7935
-0.7985
-0.8005
-0.8075
-0.8025
-0.792
-0.7925
-0.7955
-0.7985
-0.794
-0.794
-0.789
-0.7905
-0.796
-0.794
-0.7935
-0.796
-0.7915
-0.7905
-0.8025
-0.7955
-0.7875
-0.7905
-0.793
-0.7955
-0.8065
-0.806
-0.7885
-0.7835
-0.782
-0.7905
-0.792
-0.7935
-0.7915
-0.782
-0.781
-0.781
-0.787
-0.785
-0.7775
-0.778
-0.782
-0.791
-0.7955
-0.791
-0.7785
-0.7755
-0.7875
-0.783
-0.773
-0.7775
-0.7805
-0.7755
-0.7755
-0.7795
-0.779
-0.7755
-0.773
-0.772
-0.774
-0.7805
-0.7755
-0.776
-0.7825
-0.78
-0.775
-0.772
-0.7805
-0.788
-0.779
-0.769
-0.777
-0.777
-0.769
-0.769
-0.7595
-0.765
-0.772
-0.7665
-0.769
-0.7675
-0.763
-0.761
-0.7635
-0.767
-0.7655
-0.7635
-0.759
-0.754
-0.7505
-0.7535
-0.7565
-0.757
-0.753
-0.7515
-0.752
-0.7505
-0.749
-0.743
-0.7495
-0.7545
-0.753
-0.758
-0.7505
-0.7475
-0.752
-0.745
-0.7435
-0.736
-0.732
-0.742
-0.7405
-0.7425
-0.745
-0.743
-0.74
-0.7325
-0.732
-0.726
-0.7305
-0.7305
-0.7275
-0.729
-0.7255
-0.727
-0.727
-0.7255
-0.723
-0.728
-0.7255
-0.718
-0.7155
-0.716
-0.713
-0.716
-0.715
-0.708
-0.708
-0.7045
-0.7095
-0.7125
-0.716
-0.708
-0.703
-0.7085
-0.714
-0.7185
-0.7055
-0.703
-0.7015
-0.708
-0.7165
-0.703
-0.702
-0.6995
-0.7015
-0.7055
-0.702
-0.7005
-0.6975
-0.6925
-0.69
-0.695
-0.6975
-0.701
-0.6965
-0.6955
-0.6965
-0.691
-0.698
-0.7065
-0.7015
-0.705
-0.7075
-0.703
-0.713
-0.7145
-0.7135
-0.7155
-0.718
-0.72
-0.7155
-0.7195
-0.7155
-0.7165
-0.725
-0.726
-0.7315
-0.729
-0.733
-0.7355
-0.7325
-0.7435
-0.751
-0.747
-0.739
-0.7455
-0.7535
-0.7545
-0.7595
-0.7665
-0.7715
-0.764
-0.773
-0.7805
-0.7805
-0.7875
-0.7805
-0.7855
-0.7845
-0.7805
-0.79
-0.79
-0.7885
-0.7845
-0.7855
-0.789
-0.7925
-0.7845
-0.7845
-0.795
-0.7905
-0.787
-0.7925
-0.799
-0.799
-0.7995
-0.7965
-0.7995
-0.8
-0.795
-0.8015
-0.803
-0.805
-0.803
-0.8045
-0.8125
-0.8045
-0.7965
-0.813
-0.816
-0.798
-0.8055
-0.808
-0.803
-0.812
-0.8065
-0.8015
-0.8025
-0.801
-0.807
-0.8075
-0.797
-0.798
-0.7985
-0.8025
-0.8035
-0.7915
-0.794
-0.802
-0.805
-0.808
-0.8
-0.794
-0.806
-0.8105
-0.805
-0.8025
-0.801
-0.797
-0.7935
-0.802
-0.8065
-0.8035
-0.805
-0.8025
-0.802
-0.8015
-0.795
-0.8
-0.807
-0.804
-0.799
-0.8
-0.7995
-0.8005
-0.8105
-0.81
-0.809
-0.8075
-0.803
-0.797
-0.801
-0.805
-0.7945
-0.798
-0.803
-0.799
-0.7975
-0.793
-0.789
-0.798
-0.802
-0.7985
-0.793
-0.793
-0.795
-0.799
-0.8015
-0.7885
-0.785
-0.7915
-0.7935
-0.8
-0.8025
-0.7985
-0.7935
-0.789
-0.7885
-0.789
-0.795
-0.7985
-0.798
-0.802
-0.7995
-0.799
-0.7905
-0.794
-0.805
-0.793
-0.7875
-0.7925
-0.7965
-0.789
-0.7875
-0.8005
-0.798
-0.797
-0.796
-0.7995
-0.804
-0.793
-0.798
-0.8025
-0.799
-0.803
-0.8045
-0.8005
-0.7935
-0.797
-0.7935
-0.7845
-0.788
-0.8015
-0.7975
-0.7885
-0.7905
-0.778
-0.7845
-0.7925
-0.797
-0.791
-0.7875
-0.7915
-0.784
-0.787
-0.785
-0.7885
-0.784
-0.7825
-0.7865
-0.7955
-0.7935
-0.776
-0.7855
-0.79
-0.786
-0.782
-0.782
-0.7895
-0.7905
-0.7955
-0.795
-0.792
-0.7885
-0.788
-0.7905
-0.786
-0.786
-0.787
-0.781
-0.7875
-0.797
-0.788
-0.783
-0.787
-0.778
-0.7745
-0.7885
-0.793
-0.783
-0.7825
-0.7925
-0.785
-0.779
-0.7875
-0.785
-0.786
-0.7905
-0.7855
-0.775
-0.771
-0.779
-0.786
-0.785
-0.7825
-0.787
-0.7885
-0.777
-0.7775
-0.7825
-0.7805
-0.7835
-0.782
-0.7845
-0.7965
-0.7945
-0.7925
-0.7905
-0.787
-0.7935
-0.7835
-0.7835
-0.792
-0.78
-0.7835
-0.792
-0.7865
-0.7715
-0.7825
-0.796
-0.784
-0.7835
-0.78
-0.779
-0.7865
-0.79
-0.779
-0.776
-0.7855
-0.781
-0.782
-0.7805
-0.781
-0.793
-0.793
-0.7815
-0.7795
-0.7865
-0.789
-0.788
-0.784
-0.7805
-0.785
-0.785
-0.7875
-0.7935
-0.7955
-0.796
-0.792
-0.7875
-0.787
-0.794
-0.796
-0.795
-0.796
-0.798
-0.793
-0.789
-0.797
-0.7955
-0.7975
-0.8
-0.798
-0.805
-0.8015
-0.7965
-0.8005
-0.7965
-0.791
-0.7925
-0.7935
-0.7955
-0.7975
-0.7865
-0.784
-0.7885
-0.783
-0.7875
-0.8055
-0.8115
-0.803
-0.8025
-0.8015
-0.802
-0.7995
-0.7985
-0.8055
-0.807
-0.805
-0.8045
-0.8015
-0.808
-0.814
-0.7985
-0.7945
-0.8045
-0.8095
-0.811
-0.816
-0.8105
-0.7995
-0.8045
-0.809
-0.8105
-0.8105
-0.8095
-0.8135
-0.8095
-0.804
-0.8085
-0.8095
-0.8085
-0.8075
-0.8135
-0.8135
-0.812
-0.819
-0.8125
-0.8085
-0.815
-0.815
-0.811
-0.8095
-0.803
-0.8055
-0.815
-0.81
-0.807
-0.806
-0.81
-0.8135
-0.8105
-0.8035
-0.799
-0.8145
-0.8155
-0.8105
-0.8095
-0.811
-0.8115
-0.81
-0.806
-0.79
-0.788
-0.7945
-0.7995
-0.794
-0.7965
-0.795
-0.784
-0.7875
-0.7935
-0.795
-0.7895
-0.7875
-0.7905
-0.792
-0.7845
-0.789
-0.7965
-0.787
-0.785
-0.7925
-0.7875
-0.781
-0.781
-0.783
-0.7735
-0.765
-0.771
-0.7695
-0.764
-0.7635
-0.768
-0.7605
-0.7485
-0.755
-0.756
-0.753
-0.755
-0.746
-0.7425
-0.7355
-0.743
-0.7545
-0.7515
-0.7525
-0.7565
-0.7515
-0.7465
-0.7475
-0.7475
-0.7475
-0.735
-0.7385
-0.75
-0.754
-0.7605
-0.765
-0.76
-0.753
-0.745
-0.741
-0.7525
-0.757
-0.7465
-0.7375
-0.7465
-0.738
-0.7315
-0.7365
-0.7325
-0.729
-0.7285
-0.7345
-0.7325
-0.7375
-0.7445
-0.7485
-0.755
-0.7565
-0.7665
-0.77
-0.785
-0.8025
-0.8065
-0.8085
-0.802
-0.806
-0.804
-0.798
-0.804
-0.799
-0.7945
-0.811
-0.812
-0.8135
-0.815
-0.8145
-0.815
-0.814
-0.808
-0.8
-0.818
-0.829
-0.8325
-0.824
-0.8245
-0.8175
-0.796
-0.8055
-0.8125
-0.81
-0.816
-0.8115
-0.7995
-0.8015
-0.807
-0.8135
-0.812
-0.8055
-0.8135
-0.82
-0.811
-0.806
-0.816
-0.8185
-0.8105
-0.8125
-0.8125
-0.8105
-0.8085
-0.801
-0.81
-0.818
-0.8135
-0.8165
-0.8195
-0.8295
-0.84
-0.8415
-0.8395
-0.8515
-0.863
-0.875
-0.882
-0.8655
-0.855
-0.8415
-0.8415
-0.8285
-0.8185
-0.8245
-0.8
-0.7755
-0.7525
-0.7355
-0.716
-0.6765
-0.6435
-0.613
-0.584
-0.5675
-0.556
-0.531
-0.4865
-0.429
-0.3705
-0.34
-0.2965
-0.2345
-0.209
-0.216
-0.2445
-0.2765
-0.3165
-0.3515
-0.397
-0.474
-0.528
-0.5585
-0.5785
-0.6055
-0.6245
-0.625
-0.6375
-0.667
-0.703
-0.7185
-0.7575
-0.8
-0.825
-0.8625
-0.8655
-0.8625
-0.8565
-0.849
-0.841
-0.831
-0.8265
-0.8185
-0.822
-0.8225
-0.8175
-0.803
-0.799
-0.7995
-0.802
-0.805
-0.795
-0.7995
-0.799
-0.7845
-0.785
-0.7875
-0.789
-0.79
-0.7945
-0.8025
-0.7995
-0.8005
-0.8025
-0.799
-0.7965
-0.7985
-0.797
-0.794
-0.798
-0.799
-0.785
-0.794
-0.8025
-0.792
-0.8
-0.791
-0.784
-0.7855
-0.7835
-0.7925
-0.8045
-0.797
-0.7895
-0.792
-0.79
-0.79
-0.7885
-0.79
-0.785
-0.782
-0.7775
-0.7745
-0.7795
-0.786
-0.7845
-0.7675
-0.7705
-0.7795
-0.7785
-0.783
-0.787
-0.78
-0.7755
-0.7825
-0.781
-0.7805
-0.78
-0.7715
-0.771
-0.778
-0.7755
-0.776
-0.768
-0.759
-0.765
-0.771
-0.7755
-0.7735
-0.7755
-0.773
-0.767
-0.7625
-0.7635
-0.772
-0.765
-0.7595
-0.779
-0.7875
-0.7785
-0.7695
-0.7535
-0.7555
-0.7685
-0.7655
-0.767
-0.768
-0.761
-0.76
-0.7605
-0.7655
-0.77
-0.7685
-0.7685
-0.76
-0.7565
-0.759
-0.762
-0.7685
-0.76
-0.7555
-0.762
-0.7615
-0.7565
-0.755
-0.7535
-0.755
-0.751
-0.7565
-0.76
-0.7495
-0.7455
-0.743
-0.7545
-0.759
-0.747
-0.746
-0.7515
-0.751
-0.744
-0.7385
-0.7345
-0.7265
-0.741
-0.754
-0.743
-0.74
-0.738
-0.7375
-0.7255
-0.7335
-0.7505
-0.7395
-0.74
-0.736
-0.7305
-0.731
-0.727
-0.7415
-0.745
-0.7325
-0.7215
-0.7155
-0.723
-0.7285
-0.732
-0.733
-0.7315
-0.731
-0.7255
-0.7245
-0.7215
-0.7185
-0.7255
-0.7295
-0.7295
-0.7305
-0.7295
-0.733
-0.7295
-0.7185
-0.7315
-0.7365
-0.721
-0.725
-0.723
-0.7115
-0.7125
-0.714
-0.7165
-0.714
-0.712
-0.7145
-0.7135
-0.718
-0.718
-0.715
-0.7085
-0.706
-0.7075
-0.708
-0.7065
-0.7005
-0.7005
-0.706
-0.7075
-0.6965
-0.7
-0.6995
-0.689
-0.6855
-0.688
-0.697
-0.694
-0.68
-0.66
-0.6745
-0.69
-0.6795
-0.681
-0.683
-0.68
-0.678
-0.6665
-0.6635
-0.6765
-0.6725
-0.675
-0.676
-0.6625
-0.6685
-0.6715
-0.66
-0.665
-0.669
-0.6625
-0.6685
-0.6735
-0.6745
-0.6725
-0.6605
-0.6555
-0.6665
-0.6635
-0.664
-0.669
-0.6695
-0.679
-0.6705
-0.665
-0.6735
-0.6665
-0.6665
-0.672
-0.675
-0.6795
-0.679
-0.6805
-0.686
-0.69
-0.693
-0.6885
-0.684
-0.6945
-0.692
-0.6875
-0.685
-0.685
-0.6905
-0.695
-0.707
-0.704
-0.7065
-0.716
-0.7065
-0.717
-0.722
-0.714
-0.7155
-0.715
-0.726
-0.734
-0.737
-0.7415
-0.7395
-0.7315
-0.7435
-0.7525
-0.7475
-0.7505
-0.7515
-0.752
-0.7515
-0.7565
-0.7605
-0.7645
-0.7675
-0.763
-0.7645
-0.7665
-0.7705
-0.7745
-0.7655
-0.7715
-0.773
-0.766
-0.759
-0.7595
-0.779
-0.7775
-0.7795
-0.7855
-0.7885
-0.786
-0.7745
-0.775
-0.784
-0.788
-0.782
-0.785
-0.782
-0.7665
-0.7685
-0.7825
-0.7835
-0.769
-0.7655
-0.7715
-0.777
-0.7735
-0.7725
-0.7715
-0.77
-0.7835
-0.7805
-0.773
-0.78
-0.7815
-0.773
-0.7695
-0.7735
-0.773
-0.7755
-0.7835
-0.775
-0.7725
-0.7715
-0.773
-0.7865
-0.775
-0.7785
-0.7805
-0.7735
-0.785
-0.785
-0.7795
-0.771
-0.7705
-0.776
-0.7745
-0.778
-0.7765
-0.7695
-0.775
-0.778
-0.7695
-0.7635
-0.771
-0.7765
-0.7665
-0.765
-0.7715
-0.771
-0.781
-0.7925
-0.7705
-0.7585
-0.778
-0.781
-0.7685
-0.76
-0.7685
-0.779
-0.775
-0.7755
-0.774
-0.764
-0.7665
-0.7715
-0.769
-0.769
-0.7685
-0.776
-0.771
-0.7665
-0.7685
-0.77
-0.779
-0.772
-0.768
-0.759
-0.768
-0.7815
-0.762
-0.7645
-0.758
-0.756
-0.7665
-0.765
-0.7675
-0.7625
-0.766
-0.7785
-0.7915
-0.7755
-0.7585
-0.762
-0.762
-0.764
-0.775
-0.769
-0.757
-0.765
-0.7645
-0.7715
-0.771
-0.767
-0.7765
-0.7715
-0.766
-0.7605
-0.7525
-0.7635
-0.776
-0.773
-0.774
-0.7685
-0.7675
-0.764
-0.751
-0.75
-0.756
-0.7575
-0.746
-0.768
-0.775
-0.7605
-0.7655
-0.754
-0.7475
-0.7545
-0.7535
-0.7455
-0.756
-0.7535
-0.7495
-0.754
-0.7505
-0.756
-0.748
-0.752
-0.756
-0.75
-0.7555
-0.7535
-0.75
-0.7425
-0.743
-0.753
-0.7635
-0.7755
-0.7655
-0.7465
-0.755
-0.7585
-0.751
-0.762
-0.7695
-0.7675
-0.759
-0.753
-0.766
-0.768
-0.7585
-0.7565
-0.7635
-0.767
-0.765
-0.7545
-0.7425
-0.7535
-0.7565
-0.7685
-0.7635
-0.7505
-0.758
-0.755
-0.7565
-0.758
-0.746
-0.7335
-0.7565
-0.7675
-0.7605
-0.7495
-0.7325
-0.7435
-0.7565
-0.758
-0.7615
-0.7675
-0.766
-0.756
-0.757
-0.757
-0.7525
-0.76
-0.756
-0.7515
-0.76
-0.767
-0.7615
-0.7575
-0.768
-0.765
-0.762
-0.7495
-0.7485
-0.7635
-0.7635
-0.77
-0.755
-0.7455
-0.746
-0.7475
-0.7655
-0.76
-0.746
-0.7505
-0.7535
-0.746
-0.7555
-0.761
-0.7405
-0.742
-0.76
-0.7615
-0.7535
-0.7565
-0.76
-0.7515
-0.7465
-0.7535
-0.7575
-0.7535
-0.7595
-0.77
-0.765
-0.7605
-0.7575
-0.7525
-0.7565
-0.751
-0.7455
-0.7515
-0.7625
-0.764
-0.752
-0.753
-0.7495
-0.7645
-0.7705
-0.75
-0.758
-0.752
-0.7465
-0.7565
-0.749
-0.74
-0.7395
-0.7445
-0.751
-0.7445
-0.738
-0.743
-0.7585
-0.7675
-0.7565
-0.7535
-0.7565
-0.7435
-0.752
-0.7695
-0.759
-0.755
-0.7525
-0.757
-0.766
-0.764
-0.7445
-0.738
-0.76
-0.767
-0.767
-0.7575
-0.7495
-0.7425
-0.746
-0.743
-0.7375
-0.7745
-0.7655
-0.746
-0.7605
-0.7585
-0.7525
-0.756
-0.764
-0.7655
-0.762
-0.7575
-0.756
-0.756
-0.7615
-0.756
-0.751
-0.735
-0.7475
-0.766
-0.746
-0.76
-0.7585
-0.7455
-0.753
-0.7585
-0.758
-0.7605
-0.7555
-0.745
-0.7525
-0.7545
-0.755
-0.7565
-0.7545
-0.7565
-0.743
-0.7415
-0.7495
-0.7385
-0.7435
-0.7445
-0.741
-0.753
-0.744
-0.735
-0.738
-0.745
-0.752
-0.753
-0.7315
-0.717
-0.735
-0.7335
-0.741
-0.741
-0.7295
-0.737
-0.729
-0.726
-0.7215
-0.726
-0.7335
-0.72
-0.722
-0.7275
-0.7225
-0.719
-0.731
-0.733
-0.709
-0.705
-0.7135
-0.707
-0.708
-0.705
-0.704
-0.6975
-0.6775
-0.679
-0.6895
-0.698
-0.7055
-0.7065
-0.7075
-0.7035
-0.7075
-0.705
-0.702
-0.7055
-0.7015
-0.6965
-0.697
-0.7025
-0.695
-0.693
-0.701
-0.6975
-0.6975
-0.705
-0.694
-0.686
-0.689
-0.6955
-0.69
-0.686
-0.699
-0.7
-0.694
-0.693
-0.696
-0.6825
-0.691
-0.7035
-0.691
-0.6915
-0.6975
-0.706
-0.712
-0.724
-0.7365
-0.741
-0.7535
-0.7435
-0.737
-0.7505
-0.75
-0.757
-0.757
-0.7575
-0.7545
-0.7575
-0.7585
-0.7415
-0.758
-0.75
-0.737
-0.7385
-0.757
-0.785
-0.762
-0.7495
-0.7545
-0.757
-0.761
-0.7675
-0.7675
-0.766
-0.7735
-0.766
-0.7595
-0.7625
-0.7635
-0.7585
-0.7625
-0.7765
-0.762
-0.7525
-0.7625
-0.75
-0.763
-0.7765
-0.7675
-0.759
-0.756
-0.761
-0.757
-0.7715
-0.775
-0.757
-0.757
-0.764
-0.76
-0.756
-0.766
-0.767
-0.7655
-0.7745
-0.7825
-0.797
-0.8025
-0.814
-0.821
-0.809
-0.811
-0.813
-0.792
-0.7735
-0.766
-0.7495
-0.753
-0.7515
-0.718
-0.686
-0.673
-0.6455
-0.6125
-0.5905
-0.5735
-0.5485
-0.512
-0.495
-0.4665
-0.4325
-0.3885
-0.339
-0.315
-0.267
-0.2325
-0.2105
-0.213
-0.2535
-0.2775
-0.326
-0.364
-0.417
-0.4945
-0.5285
-0.525
-0.551
-0.5875
-0.594
-0.6135
-0.6095
-0.629
-0.6605
-0.6785
-0.7085
-0.7385
-0.79
-0.8085
-0.8045
-0.793
-0.791
-0.7995
-0.7795
-0.7725
-0.7645
-0.7625
-0.7635
-0.7525
-0.7555
-0.753
-0.7435
-0.7455
-0.748
-0.754
-0.757
-0.75
-0.753
-0.7515
-0.7435
-0.742
-0.741
-0.747
-0.764
-0.766
-0.752
-0.7465
-0.7495
-0.739
-0.7455
-0.7675
-0.7405
-0.722
-0.743
-0.7495
-0.754
-0.75
-0.743
-0.75
-0.7565
-0.751
-0.749
-0.759
-0.755
-0.752
-0.738
-0.748
-0.754
-0.7305
-0.74
-0.7515
-0.7545
-0.7465
-0.736
-0.741
-0.748
-0.7405
-0.735
-0.7335
-0.7375
-0.752
-0.7465
-0.7505
-0.7635
-0.743
-0.7205
-0.731
-0.754
-0.747
-0.7355
-0.7395
-0.743
-0.7365
-0.7295
-0.7385
-0.7455
-0.74
-0.732
-0.7315
-0.7295
-0.7265
-0.7265
-0.725
-0.734
-0.7315
-0.721
-0.7325
-0.732
-0.724
-0.726
-0.7335
-0.727
-0.7195
-0.7355
-0.733
-0.724
-0.719
-0.7225
-0.723
-0.7175
-0.7275
-0.7205
-0.7205
-0.7285
-0.716
-0.7115
-0.7195
-0.724
-0.719
-0.7155
-0.712
-0.703
-0.708
-0.7175
-0.7085
-0.705
-0.7105
-0.7115
-0.72
-0.71
-0.6985
-0.707
-0.7095
-0.714
-0.7055
-0.7075
-0.7085
-0.6905
-0.701
-0.7025
-0.6955
-0.7105
-0.7155
-0.722
-0.7165
-0.6995
-0.7055
-0.7065
-0.7055
-0.7035
-0.698
-0.702
-0.707
-0.7085
-0.6945
-0.7045
-0.719
-0.7035
-0.697
-0.6915
-0.6985
-0.7015
-0.6855
-0.695
-0.706
-0.695
-0.6905
-0.6955
-0.7095
-0.7075
-0.689
-0.69
-0.7015
-0.696
-0.691
-0.6865
-0.6795
-0.688
-0.697
-0.699
-0.683
-0.673
-0.6875
-0.6835
-0.6905
-0.695
-0.6855
-0.695
-0.6945
-0.6745
-0.659
-0.671
-0.692
-0.687
-0.6685
-0.666
-0.664
-0.663
-0.671
-0.6755
-0.6715
-0.662
-0.67
-0.6675
-0.659
-0.675
-0.669
-0.668
-0.676
-0.6695
-0.6775
-0.678
-0.6695
-0.652
-0.6555
-0.659
-0.645
-0.6555
-0.645
-0.645
-0.652
-0.64
-0.6595
-0.6675
-0.6495
-0.6445
-0.6485
-0.646
-0.646
-0.6465
-0.645
-0.649
-0.6405
-0.638
-0.6265
-0.6355
-0.6475
-0.635
-0.6395
-0.639
-0.646
-0.634
-0.6365
-0.6465
-0.645
-0.656
-0.6425
-0.6355
-0.6375
-0.6455
-0.6385
-0.6355
-0.643
-0.6295
-0.6425
-0.6515
-0.647
-0.6485
-0.642
-0.644
-0.642
-0.648
-0.6545
-0.6395
-0.644
-0.649
-0.6455
-0.6585
-0.6535
-0.6495
-0.668
-0.662
-0.657
-0.66
-0.666
-0.666
-0.6665
-0.6895
-0.689
-0.6905
-0.6925
-0.6925
-0.6945
-0.683
-0.6855
-0.681
-0.6775
-0.6915
-0.7025
-0.7075
-0.708
-0.7035
-0.7045
-0.7285
-0.7245
-0.7105
-0.7195
-0.711
-0.7095
-0.726
-0.734
-0.738
-0.74
-0.7155
-0.708
-0.725
-0.7315
-0.7415
-0.7325
-0.729
-0.7205
-0.7175
-0.7405
-0.739
-0.738
-0.737
-0.736
-0.7325
-0.717
-0.7235
-0.7375
-0.7405
-0.7305
-0.7275
-0.74
-0.745
-0.7475
-0.7455
-0.739
-0.747
-0.748
-0.7405
-0.7455
-0.7425
-0.741
-0.736
-0.734
-0.747
-0.7385
-0.739
-0.7485
-0.741
-0.75
-0.7525
-0.7435
-0.7455
-0.7455
-0.7485
-0.748
-0.741
-0.7305
-0.7385
-0.752
-0.7385
-0.7325
-0.736
-0.7305
-0.7175
-0.7295
-0.7485
-0.743
-0.7525
-0.758
-0.7465
-0.7545
-0.752
-0.742
-0.7505
-0.742
-0.7385
-0.749
-0.751
-0.751
-0.739
-0.738
-0.7445
-0.744
-0.739
-0.7535
-0.7595
-0.739
-0.74
-0.747
-0.741
-0.734
-0.7395
-0.743
-0.7465
-0.7505
-0.7385
-0.731
-0.745
-0.7365
-0.7225
-0.749
-0.749
-0.737
-0.751
-0.752
-0.7495
-0.751
-0.7565
-0.759
-0.7525
-0.737
-0.7375
-0.7435
-0.7415
-0.754
-0.7505
-0.7455
-0.748
-0.745
-0.741
-0.731
-0.7285
-0.7305
-0.738
-0.7415
-0.743
-0.748
-0.733
-0.73
-0.739
-0.7315
-0.737
-0.7435
-0.7405
-0.752
-0.7455
-0.7305
-0.726
-0.7275
-0.7485
-0.743
-0.7415
-0.756
-0.7445
-0.735
-0.7325
-0.746
-0.7425
-0.734
-0.738
-0.7375
-0.748
-0.7555
-0.7395
-0.726
-0.746
-0.743
-0.736
-0.748
-0.74
-0.743
-0.7535
-0.742
-0.725
-0.728
-0.748
-0.7485
-0.7365
-0.737
-0.7335
-0.737
-0.736
-0.7305
-0.7275
-0.7395
-0.7475
-0.732
-0.743
-0.746
-0.735
-0.7305
-0.7225
-0.731
-0.734
-0.733
-0.7355
-0.73
-0.7405
-0.737
-0.7245
-0.7265
-0.7355
-0.736
-0.723
-0.736
-0.7355
-0.7315
-0.7365
-0.731
-0.7315
-0.7335
-0.733
-0.727
-0.725
-0.7325
-0.74
-0.7355
-0.7175
-0.711
-0.7255
-0.7275
-0.735
-0.743
-0.733
-0.734
-0.734
-0.7295
-0.7335
-0.7385
-0.741
-0.729
-0.7315
-0.729
-0.7155
-0.7215
-0.73
-0.729
-0.7185
-0.7185
-0.727
-0.727
-0.723
-0.726
-0.7275
-0.7355
-0.7365
-0.729
-0.732
-0.739
-0.735
-0.726
-0.7275
-0.7155
-0.718
-0.7325
-0.742
-0.7445
-0.72
-0.7165
-0.7375
-0.7475
-0.7435
-0.742
-0.736
-0.7275
-0.7235
-0.73
-0.744
-0.7355
-0.7425
-0.7345
-0.737
-0.747
-0.713
-0.7305
-0.752
-0.738
-0.7315
-0.724
-0.7305
-0.717
-0.712
-0.7305
-0.727
-0.739
-0.7395
-0.7275
-0.7205
-0.7215
-0.732
-0.7325
-0.747
-0.7355
-0.735
-0.741
-0.7365
-0.738
-0.7275
-0.7375
-0.747
-0.744
-0.74
-0.7375
-0.739
-0.7465
-0.7495
-0.7445
-0.7455
-0.7445
-0.734
-0.724
-0.726
-0.736
-0.7315
-0.7345
-0.7505
-0.74
-0.7365
-0.746
-0.748
-0.739
-0.7255
-0.7395
-0.739
-0.7365
-0.7375
-0.7305
-0.743
-0.7425
-0.742
-0.7295
-0.7335
-0.744
-0.7345
-0.732
-0.7265
-0.7445
-0.754
-0.74
-0.7295
-0.728
-0.7255
-0.73
-0.741
-0.7515
-0.7485
-0.724
-0.726
-0.741
-0.7395
-0.7445
-0.7435
-0.729
-0.7345
-0.735
-0.7355
-0.7375
-0.74
-0.7415
-0.7395
-0.7485
-0.7385
-0.7225
-0.73
-0.7485
-0.735
-0.73
-0.726
-0.706
-0.7265
-0.7325
-0.7275
-0.731
-0.7255
-0.727
-0.723
-0.7235
-0.735
-0.732
-0.743
-0.733
-0.7445
-0.752
-0.7125
-0.7175
-0.7225
-0.7285
-0.727
-0.714
-0.7135
-0.7125
-0.7135
-0.7135
-0.7125
-0.713
-0.729
-0.73
-0.719
-0.712
-0.704
-0.717
-0.7175
-0.7055
-0.6985
-0.681
-0.6975
-0.7055
-0.7035
-0.72
-0.698
-0.6885
-0.707
-0.6965
-0.6885
-0.694
-0.6895
-0.6905
-0.7005
-0.6935
-0.673
-0.6805
-0.679
-0.6745
-0.673
-0.668
-0.681
-0.6695
-0.6745
-0.689
-0.6765
-0.674
-0.6835
-0.692
-0.692
-0.681
-0.6835
-0.7055
-0.6985
-0.697
-0.7065
-0.679
-0.685
-0.699
-0.681
-0.687
-0.695
-0.6895
-0.6845
-0.678
-0.675
-0.6745
-0.6935
-0.6985
-0.6685
-0.675
-0.6995
-0.6935
-0.681
-0.6875
-0.702
-0.6985
-0.703
-0.714
-0.7265
-0.732
-0.7415
-0.751
-0.7365
-0.7395
-0.749
-0.7425
-0.7205
-0.714
-0.7265
-0.736
-0.736
-0.75
-0.7635
-0.748
-0.7445
-0.75
-0.7515
-0.7575
-0.7595
-0.7495
-0.7535
-0.749
-0.747
-0.762
-0.763
-0.751
-0.748
-0.759
-0.7465
-0.732
-0.7405
-0.7445
-0.7395
-0.738
-0.7525
-0.767
-0.7505
-0.75
-0.755
-0.741
-0.7495
-0.749
-0.747
-0.747
-0.746
-0.7525
-0.75
-0.7465
-0.7415
-0.7505
-0.7565
-0.748
-0.7505
-0.7645
-0.7705
-0.776
-0.7755
-0.7705
-0.7835
-0.8005
-0.8035
-0.7945
-0.796
-0.803
-0.803
-0.782
-0.7675
-0.762
-0.7595
-0.757
-0.7245
-0.7065
-0.694
-0.677
-0.6515
-0.6115
-0.58
-0.5705
-0.568
-0.5315
-0.493
-0.463
-0.4255
-0.386
-0.353
-0.316
-0.275
-0.2425
-0.219
-0.24
-0.283
-0.3275
-0.3775
-0.4165
-0.476
-0.53
-0.557
-0.5755
-0.593
-0.6195
-0.6245
-0.622
-0.6345
-0.658
-0.681
-0.7055
-0.751
-0.7885
-0.8115
-0.819
-0.823
-0.8245
-0.808
-0.7905
-0.7875
-0.782
-0.774
-0.7785
-0.763
-0.757
-0.755
-0.7475
-0.749
-0.753
-0.752
-0.7425
-0.7445
-0.7455
-0.7375
-0.7395
-0.7535
-0.743
-0.7475
-0.7615
-0.744
-0.7385
-0.7475
-0.751
-0.746
-0.748
-0.7425
-0.733
-0.745
-0.749
-0.7405
-0.7365
-0.7425
-0.745
-0.7525
-0.747
-0.7375
-0.742
-0.734
-0.746
-0.743
-0.73
-0.7405
-0.7455
-0.7355
-0.736
-0.7505
-0.734
-0.7375
-0.74
-0.7195
-0.733
-0.74
-0.718
-0.7275
-0.7375
-0.722
-0.726
-0.7255
-0.732
-0.74
-0.735
-0.7325
-0.7255
-0.7235
-0.739
-0.7305
-0.731
-0.7505
-0.7345
-0.732
-0.74
-0.7365
-0.731
-0.7325
-0.724
-0.7275
-0.7325
-0.73
-0.738
-0.724
-0.7205
-0.722
-0.7215
-0.718
-0.7195
-0.7305
-0.726
-0.7075
-0.6965
-0.71
-0.7295
-0.74
-0.7325
-0.7135
-0.7125
-0.7255
-0.731
-0.727
-0.7205
-0.72
-0.7215
-0.7155
-0.7175
-0.733
-0.731
-0.7265
-0.7265
-0.72
-0.7265
-0.716
-0.7145
-0.726
-0.7245
-0.719
-0.716
-0.73
-0.7235
-0.7195
-0.7145
-0.7005
-0.7145
-0.724
-0.7135
-0.7195
-0.7115
-0.7085
-0.7185
-0.7225
-0.7445
-0.731
-0.721
-0.721
-0.7205
-0.7285
-0.716
-0.718
-0.715
-0.707
-0.713
-0.715
-0.7165
-0.72
-0.719
-0.7175
-0.708
-0.701
-0.7105
-0.7205
-0.72
-0.7135
-0.713
-0.716
-0.713
-0.707
-0.708
-0.709
-0.7095
-0.702
-0.6975
-0.716
-0.7225
-0.711
-0.703
-0.7065
-0.709
-0.7065
-0.702
-0.69
-0.697
-0.6985
-0.6865
-0.6995
-0.7025
-0.691
-0.69
-0.687
-0.6945
-0.682
-0.681
-0.685
-0.6695
-0.7015
-0.6925
-0.668
-0.6895
-0.68
-0.68
-0.6905
-0.68
-0.6735
-0.6755
-0.6715
-0.666
-0.6785
-0.67
-0.6655
-0.675
-0.6685
-0.6745
-0.6705
-0.654
-0.6555
-0.667
-0.6685
-0.6565
-0.6585
-0.6745
-0.677
-0.671
-0.67
-0.6625
-0.6335
-0.636
-0.6545
-0.65
-0.6525
-0.646
-0.6375
-0.6405
-0.646
-0.6475
-0.642
-0.654
-0.646
-0.627
-0.64
-0.6425
-0.632
-0.633
-0.636
-0.6235
-0.621
-0.6265
-0.63
-0.6345
-0.631
-0.6415
-0.6405
-0.6275
-0.622
-0.6295
-0.638
-0.634
-0.6405
-0.647
-0.646
-0.643
-0.654
-0.6525
-0.6415
-0.6365
-0.63
-0.6385
-0.6245
-0.62
-0.6495
-0.6535
-0.6475
-0.654
-0.652
-0.6515
-0.6605
-0.6725
-0.679
-0.676
-0.67
-0.675
-0.679
-0.661
-0.6655
-0.6835
-0.675
-0.6755
-0.6815
-0.682
-0.686
-0.691
-0.6935
-0.699
-0.7065
-0.6955
-0.704
-0.7255
-0.713
-0.704
-0.709
-0.7155
-0.7155
-0.707
-0.712
-0.7105
-0.7125
-0.7165
-0.712
-0.7095
-0.714
-0.725
-0.73
-0.7305
-0.726
-0.7255
-0.7355
-0.7355
-0.7265
-0.7195
-0.716
-0.7255
-0.73
-0.7175
-0.7215
-0.7265
-0.7075
-0.71
-0.7205
-0.7235
-0.7305
-0.7215
-0.698
-0.7025
-0.724
-0.7165
-0.7165
-0.7205
-0.7305
-0.7395
-0.7265
-0.729
-0.7265
-0.7175
-0.723
-0.7205
-0.7125
-0.7095
-0.71
-0.703
-0.702
-0.7195
-0.7125
-0.717
-0.723
-0.7065
-0.704
-0.711
-0.7325
-0.7265
-0.7125
-0.7105
-0.7145
-0.7255
-0.7225
-0.7195
-0.7175
-0.7195
-0.711
-0.704
-0.7025
-0.698
-0.702
-0.71
-0.7105
-0.704
-0.7115
-0.713
-0.719
-0.7315
-0.726
-0.715
-0.709
-0.705
-0.7045
-0.7085
-0.712
-0.7075
-0.7165
-0.7225
-0.7075
-0.7145
-0.7165
-0.714
-0.713
-0.713
-0.716
-0.72
-0.7265
-0.723
-0.7175
-0.707
-0.707
-0.711
-0.7085
-0.697
-0.7125
-0.7215
-0.711
-0.713
-0.7005
-0.6985
-0.6945
-0.721
-0.7345
-0.711
-0.716
-0.7055
-0.707
-0.7185
-0.7055
-0.707
-0.717
-0.7035
-0.6955
-0.7035
-0.6975
-0.6985
-0.7085
-0.7065
-0.7095
-0.7115
-0.694
-0.685
-0.6875
-0.688
-0.6935
-0.6975
-0.708
-0.711
-0.703
-0.697
-0.7015
-0.703
-0.6975
-0.6935
-0.693
-0.6945
-0.684
-0.685
-0.6875
-0.686
-0.6935
-0.6945
-0.696
-0.696
-0.6945
-0.69
-0.688
-0.6985
-0.703
-0.6975
-0.6855
-0.682
-0.691
-0.6875
-0.693
-0.6875
-0.6745
-0.6965
-0.6935
-0.688
-0.701
-0.6925
-0.6965
-0.699
-0.6955
-0.7
-0.699
-0.6935
-0.6795
-0.686
-0.697
-0.686
-0.6975
-0.707
-0.6945
-0.6815
-0.6815
-0.692
-0.701
-0.698
-0.69
-0.6935
-0.691
-0.697
-0.6945
-0.696
-0.7045
-0.6875
-0.6895
-0.692
-0.69
-0.6985
-0.6845
-0.683
-0.6935
-0.692
-0.692
-0.6975
-0.6985
-0.697
-0.699
-0.7
-0.7045
-0.6955
-0.6975
-0.6905
-0.6825
-0.691
-0.68
-0.68
-0.693
-0.6985
-0.6915
-0.6885
-0.6925
-0.688
-0.688
-0.7005
-0.6845
-0.678
-0.686
-0.681
-0.6895
-0.6955
-0.6905
-0.6905
-0.696
-0.6935
-0.686
-0.682
-0.6855
-0.692
-0.69
-0.688
-0.685
-0.6905
-0.696
-0.684
-0.6865
-0.6945
-0.6945
-0.6825
-0.683
-0.6975
-0.6935
-0.691
-0.6785
-0.669
-0.6835
-0.6905
-0.6775
-0.6705
-0.6845
-0.6795
-0.684
-0.6945
-0.6845
-0.685
-0.6885
-0.6825
-0.6765
-0.6905
-0.704
-0.701
-0.697
-0.693
-0.691
-0.694
-0.6945
-0.6895
-0.691
-0.695
-0.6945
-0.684
-0.684
-0.693
-0.6955
-0.6945
-0.6765
-0.673
-0.688
-0.693
-0.6895
-0.695
-0.698
-0.6835
-0.692
-0.6995
-0.6815
-0.679
-0.688
-0.6965
-0.6925
-0.681
-0.6815
-0.6825
-0.689
-0.6925
-0.6905
-0.6875
-0.6825
-0.692
-0.6945
-0.686
-0.6895
-0.688
-0.669
-0.677
-0.691
-0.686
-0.684
-0.6835
-0.6835
-0.6715
-0.6805
-0.693
-0.6885
-0.6925
-0.6925
-0.679
-0.674
-0.6835
-0.682
-0.6865
-0.694
-0.6865
-0.683
-0.6805
-0.68
-0.6795
-0.679
-0.696
-0.704
-0.685
-0.6785
-0.6835
-0.683
-0.6855
-0.691
-0.6835
-0.679
-0.6825
-0.6765
-0.6855
-0.6925
-0.684
-0.676
-0.682
-0.6865
-0.6825
-0.687
-0.686
-0.6855
-0.6895
-0.692
-0.6845
-0.6845
-0.679
-0.6715
-0.6865
-0.684
-0.6805
-0.6825
-0.68
-0.68
-0.68
-0.6815
-0.6885
-0.694
-0.6835
-0.6835
-0.6865
-0.6765
-0.6665
-0.6665
-0.667
-0.661
-0.659
-0.6715
-0.6775
-0.6655
-0.663
-0.6625
-0.672
-0.6735
-0.673
-0.6795
-0.667
-0.6705
-0.6725
-0.662
-0.6665
-0.6715
-0.6785
-0.6675
-0.656
-0.6575
-0.6485
-0.65
-0.6535
-0.657
-0.654
-0.6505
-0.649
-0.64
-0.641
-0.643
-0.633
-0.641
-0.639
-0.627
-0.6265
-0.619
-0.6285
-0.634
-0.6325
-0.634
-0.628
-0.6345
-0.6305
-0.618
-0.6285
-0.635
-0.626
-0.628
-0.6455
-0.6455
-0.6455
-0.6515
-0.6435
-0.6395
-0.6385
-0.6415
-0.6435
-0.6395
-0.639
-0.631
-0.6295
-0.633
-0.6305
-0.6395
-0.6315
-0.6145
-0.6195
-0.628
-0.63
-0.625
-0.629
-0.64
-0.6415
-0.6415
-0.652
-0.66
-0.658
-0.666
-0.6785
-0.67
-0.669
-0.68
-0.686
-0.6945
-0.7025
-0.698
-0.698
-0.6985
-0.6965
-0.7015
-0.7005
-0.7
-0.6945
-0.703
-0.7095
-0.6945
-0.6905
-0.691
-0.693
-0.698
-0.6895
-0.687
-0.6995
-0.6985
-0.6905
-0.698
-0.707
-0.702
-0.6925
-0.6995
-0.712
-0.705
-0.6905
-0.6915
-0.6975
-0.6955
-0.691
-0.695
-0.698
-0.703
-0.7105
-0.6945
-0.698
-0.7
-0.6865
-0.6875
-0.6945
-0.7115
-0.709
-0.707
-0.7085
-0.703
-0.7115
-0.725
-0.733
-0.7325
-0.723
-0.726
-0.7415
-0.7455
-0.7445
-0.7335
-0.7295
-0.726
-0.714
-0.711
-0.699
-0.6805
-0.667
-0.645
-0.631
-0.617
-0.57
-0.541
-0.5225
-0.494
-0.476
-0.45
-0.4225
-0.389
-0.3515
-0.3105
-0.285
-0.2475
-0.194
-0.167
-0.1655
-0.2035
-0.2465
-0.2755
-0.321
-0.3865
-0.4405
-0.474
-0.5015
-0.5375
-0.5545
-0.557
-0.564
-0.5645
-0.5745
-0.608
-0.632
-0.649
-0.6925
-0.72
-0.745
-0.7655
-0.7535
-0.749
-0.7355
-0.727
-0.732
-0.711
-0.7115
-0.715
-0.702
-0.705
-0.7
-0.697
-0.69
-0.684
-0.6965
-0.701
-0.694
-0.69
-0.6965
-0.693
-0.6995
-0.7065
-0.6955
-0.7
-0.7005
-0.701
-0.693
-0.693
-0.691
-0.695
-0.7065
-0.6835
-0.6835
-0.691
-0.692
-0.695
-0.6925
-0.6935
-0.6925
-0.694
-0.691
-0.702
-0.712
-0.6995
-0.6835
-0.684
-0.6935
-0.691
-0.687
-0.6835
-0.6845
-0.69
-0.688
-0.6955
-0.693
-0.685
-0.6885
-0.667
-0.674
-0.694
-0.691
-0.6885
-0.683
-0.6955
-0.687
-0.6795
-0.6965
-0.692
-0.69
-0.6865
-0.6815
-0.6835
-0.685
-0.6885
-0.6805
-0.6815
-0.6885
-0.684
-0.676
-0.682
-0.679
-0.6775
-0.687
-0.6845
-0.6795
-0.6895
-0.698
-0.675
-0.6695
-0.6795
-0.679
-0.6755
-0.667
-0.667
-0.671
-0.6755
-0.672
-0.6685
-0.671
-0.672
-0.675
-0.6655
-0.6735
-0.679
-0.6645
-0.6645
-0.6605
-0.6685
-0.67
-0.658
-0.6615
-0.663
-0.658
-0.6675
-0.671
-0.6625
-0.6725
-0.67
-0.6705
-0.68
-0.6715
-0.6745
-0.6735
-0.668
-0.6735
-0.669
-0.6695
-0.6705
-0.669
-0.6675
-0.6595
-0.659
-0.655
-0.66
-0.668
-0.6635
-0.6645
-0.655
-0.651
-0.6535
-0.656
-0.664
-0.665
-0.658
-0.6525
-0.662
-0.6675
-0.6655
-0.67
-0.6595
-0.6505
-0.6545
-0.6565
-0.6595
-0.658
-0.657
-0.6525
-0.656
-0.6585
-0.661
-0.6635
-0.6555
-0.663
-0.6625
-0.656
-0.6515
-0.651
-0.66
-0.6515
-0.6435
-0.6505
-0.6545
-0.6585
-0.644
-0.6405
-0.652
-0.6435
-0.6425
-0.6455
-0.647
-0.6475
-0.6465
-0.6455
-0.641
-0.6455
-0.648
-0.646
-0.6495
-0.6445
-0.6335
-0.6385
-0.639
-0.6465
-0.6495
-0.6505
-0.652
-0.636
-0.6345
-0.6315
-0.632
-0.6345
-0.6305
-0.637
-0.6355
-0.62
-0.621
-0.6285
-0.6365
-0.6305
-0.619
-0.627
-0.6165
-0.619
-0.6235
-0.6185
-0.6145
-0.6125
-0.616
-0.6145
-0.6175
-0.6135
-0.6135
-0.6115
-0.6095
-0.6045
-0.6025
-0.609
-0.6055
-0.605
-0.605
-0.604
-0.6015
-0.602
-0.6055
-0.603
-0.606
-0.607
-0.605
-0.6015
-0.6
-0.612
-0.615
-0.6095
-0.6105
-0.6095
-0.603
-0.6005
-0.6075
-0.602
-0.607
-0.614
-0.607
-0.6095
-0.603
-0.612
-0.617
-0.6075
-0.6165
-0.6185
-0.616
-0.6185
-0.619
-0.6255
-0.631
-0.6295
-0.6345
-0.6415
-0.6435
-0.6425
-0.6415
-0.6495
-0.6545
-0.6535
-0.6555
-0.6555
-0.665
-0.6665
-0.673
-0.6795
-0.6725
-0.678
-0.6765
-0.6805
-0.692
-0.6895
-0.6875
-0.678
-0.6845
-0.6915
-0.6925
-0.6975
-0.69
-0.692
-0.6865
-0.6945
-0.7025
-0.695
-0.7105
-0.7155
-0.712
-0.7145
-0.7125
-0.7075
-0.71
-0.706
-0.7065
-0.715
-0.7125
-0.7105
-0.7045
-0.699
-0.7025
-0.715
-0.7145
-0.7035
-0.7005
-0.697
-0.698
-0.706
-0.7095
-0.7075
-0.7155
-0.7125
-0.7145
-0.7255
-0.7045
-0.709
-0.7115
-0.701
-0.7075
-0.699
-0.6985
-0.695
-0.7025
-0.7095
-0.707
-0.7145
-0.7045
-0.7005
-0.7005
-0.697
-0.702
-0.703
-0.7035
-0.703
-0.706
-0.712
-0.703
-0.697
-0.7
-0.6975
-0.699
-0.7065
-0.7045
-0.71
-0.713
-0.704
-0.7125
-0.71
-0.7025
-0.708
-0.7185
-0.7215
-0.7045
-0.7175
-0.73
-0.714
-0.705
-0.7035
-0.7035
-0.695
-0.705
-0.716
-0.7055
-0.699
-0.7135
-0.7135
-0.7115
-0.707
-0.6965
-0.717
-0.709
-0.6985
-0.703
-0.7045
-0.7135
-0.714
-0.711
-0.7055
-0.701
-0.696
-0.7035
-0.7145
-0.7115
-0.7065
-0.711
-0.714
-0.707
-0.704
-0.707
-0.7135
-0.7125
-0.705
-0.6985
-0.694
-0.707
-0.7065
-0.698
-0.7035
-0.707
-0.704
-0.705
-0.7035
-0.701
-0.705
-0.7005
-0.701
-0.7045
-0.71
-0.7025
-0.6975
-0.709
-0.701
-0.703
-0.7025
-0.701
-0.7055
-0.6985
-0.704
-0.7055
-0.7025
-0.7055
-0.7015
-0.695
-0.7015
-0.7105
-0.7055
-0.7045
-0.7085
-0.719
-0.717
-0.703
-0.7
-0.706
-0.7065
-0.698
-0.7015
-0.7065
-0.7035
-0.701
-0.7015
-0.705
-0.706
-0.7045
-0.7125
-0.708
-0.7075
-0.7055
-0.695
-0.7015
-0.7045
-0.7025
-0.7005
-0.6995
-0.697
-0.6985
-0.7055
-0.702
-0.699
-0.706
-0.7055
-0.698
-0.696
-0.695
-0.706
-0.7155
-0.702
-0.6955
-0.6955
-0.6975
-0.7115
-0.7125
-0.706
-0.709
-0.7085
-0.7005
-0.7025
-0.712
-0.7135
-0.71
-0.7045
-0.7035
-0.709
-0.715
-0.7125
-0.706
-0.704
-0.701
-0.7035
-0.7095
-0.7075
-0.7075
-0.71
-0.7065
-0.7105
-0.7165
-0.711
-0.71
-0.714
-0.711
-0.7055
-0.7105
-0.7115
-0.707
-0.7085
-0.7075
-0.711
-0.713
-0.7095
-0.705
-0.7045
-0.705
-0.6995
-0.703
-0.704
-0.7
-0.709
-0.7095
-0.6985
-0.696
-0.698
-0.7005
-0.7015
-0.697
-0.701
-0.6975
-0.691
-0.7005
-0.6995
-0.7
-0.7025
-0.701
-0.7015
-0.702
-0.704
-0.7055
-0.709
-0.698
-0.701
-0.7095
-0.6985
-0.6965
-0.699
-0.6975
-0.6995
-0.701
-0.6985
-0.7025
-0.7
-0.6985
-0.7065
-0.704
-0.704
-0.7015
-0.7
-0.692
-0.6965
-0.7045
-0.685
-0.6915
-0.708
-0.7065
-0.695
-0.6945
-0.7015
-0.7015
-0.703
-0.692
-0.6845
-0.6985
-0.7015
-0.693
-0.697
-0.699
-0.6905
-0.6975
-0.7005
-0.7065
-0.713
-0.71
-0.705
-0.6925
-0.703
-0.7015
-0.7005
-0.7015
-0.6885
-0.694
-0.697
-0.706
-0.7005
-0.6975
-0.711
-0.71
-0.702
-0.693
-0.691
-0.6955
-0.708
-0.708
-0.693
-0.6935
-0.698
-0.7005
-0.703
-0.692
-0.6955
-0.7015
-0.694
-0.705
-0.699
-0.6895
-0.699
-0.695
-0.6915
-0.697
-0.697
-0.694
-0.6895
-0.6875
-0.692
-0.693
-0.689
-0.695
-0.7025
-0.697
-0.6935
-0.696
-0.696
-0.6975
-0.6985
-0.695
-0.6945
-0.694
-0.692
-0.693
-0.6915
-0.6895
-0.692
-0.6915
-0.691
-0.6905
-0.6855
-0.681
-0.6875
-0.6905
-0.691
-0.6965
-0.6905
-0.701
-0.708
-0.711
-0.7075
-0.6955
-0.698
-0.6915
-0.6925
-0.6995
-0.7
-0.6985
-0.6905
-0.6795
-0.681
-0.6895
-0.6925
-0.6965
-0.6875
-0.679
-0.6845
-0.689
-0.6925
-0.6885
-0.693
-0.692
-0.682
-0.6875
-0.69
-0.6875
-0.6885
-0.683
-0.676
-0.6825
-0.685
-0.6815
-0.6855
-0.681
-0.6805
-0.6865
-0.688
-0.693
-0.6915
-0.6855
-0.688
-0.6945
-0.6965
-0.6865
-0.6725
-0.6695
-0.678
-0.6885
-0.6855
-0.681
-0.68
-0.6795
-0.6835
-0.6755
-0.666
-0.67
-0.6735
-0.6695
-0.6635
-0.6645
-0.672
-0.678
-0.674
-0.662
-0.6665
-0.675
-0.6695
-0.665
-0.667
-0.6635
-0.659
-0.6565
-0.6575
-0.661
-0.6495
-0.6475
-0.6525
-0.657
-0.661
-0.65
-0.645
-0.6425
-0.6445
-0.651
-0.643
-0.6335
-0.631
-0.6265
-0.6255
-0.634
-0.639
-0.6385
-0.639
-0.6435
-0.6415
-0.6345
-0.6315
-0.6325
-0.6355
-0.6385
-0.643
-0.6445
-0.6495
-0.6475
-0.637
-0.6395
-0.6495
-0.6445
-0.638
-0.636
-0.635
-0.6385
-0.6325
-0.6385
-0.6395
-0.635
-0.6375
-0.6305
-0.634
-0.638
-0.638
-0.6415
-0.644
-0.644
-0.639
-0.6445
-0.6485
-0.6605
-0.673
-0.674
-0.6785
-0.6735
-0.6795
-0.694
-0.688
-0.681
-0.689
-0.688
-0.687
-0.694
-0.692
-0.692
-0.6975
-0.701
-0.7005
-0.6915
-0.6945
-0.693
-0.689
-0.691
-0.6925
-0.6985
-0.701
-0.697
-0.6895
-0.693
-0.695
-0.6985
-0.6975
-0.6945
-0.7
-0.6995
-0.6995
-0.694
-0.692
-0.695
-0.6955
-0.689
-0.6875
-0.693
-0.691
-0.697
-0.703
-0.703
-0.7005
-0.6915
-0.6945
-0.699
-0.694
-0.6945
-0.6955
-0.693
-0.696
-0.7015
-0.706
-0.7175
-0.7255
-0.7225
-0.7255
-0.743
-0.751
-0.7385
-0.7295
-0.734
-0.7285
-0.718
-0.7185
-0.7115
-0.7005
-0.6895
-0.6705
-0.6505
-0.6345
-0.6025
-0.566
-0.537
-0.5015
-0.476
-0.461
-0.4345
-0.3975
-0.3495
-0.304
-0.2695
-0.2375
-0.2085
-0.1525
-0.0995
-0.093
-0.113
-0.171
-0.228
-0.226
-0.252
-0.3335
-0.401
-0.442
-0.4695
-0.49
-0.51
-0.5215
-0.528
-0.534
-0.557
-0.593
-0.616
-0.659
-0.6975
-0.72
-0.74
-0.735
-0.7295
-0.7255
-0.712
-0.7115
-0.714
-0.714
-0.705
-0.699
-0.7015
-0.6925
-0.692
-0.6985
-0.6965
-0.6915
-0.695
-0.697
-0.695
-0.7
-0.708
-0.708
-0.7055
-0.707
-0.7045
-0.7025
-0.7035
-0.7035
-0.6975
-0.6955
-0.7035
-0.702
-0.7055
-0.71
-0.708
-0.7025
-0.6975
-0.701
-0.698
-0.6985
-0.694
-0.691
-0.691
-0.6865
-0.689
-0.6935
-0.6935
-0.6935
-0.6955
-0.6895
-0.687
-0.6835
-0.683
-0.6835
-0.6865
-0.695
-0.691
-0.685
-0.6855
-0.6875
-0.69
-0.69
-0.697
-0.6945
-0.68
-0.688
-0.6905
-0.68
-0.6795
-0.681
-0.6825
-0.6885
-0.684
-0.68
-0.688
-0.685
-0.6805
-0.676
-0.6745
-0.6775
-0.681
-0.6845
-0.68
-0.6805
-0.6835
-0.679
-0.68
-0.677
-0.6705
-0.6745
-0.6765
-0.677
-0.6845
-0.6835
-0.671
-0.6735
-0.675
-0.6725
-0.679
-0.673
-0.6685
-0.679
-0.672
-0.6625
-0.6735
-0.67
-0.666
-0.6725
-0.667
-0.6695
-0.668
-0.6665
-0.6665
-0.667
-0.679
-0.671
-0.664
-0.6675
-0.6655
-0.671
-0.6755
-0.671
-0.664
-0.6645
-0.667
-0.6665
-0.668
-0.6745
-0.676
-0.667
-0.66
-0.664
-0.6665
-0.667
-0.6705
-0.6715
-0.669
-0.665
-0.6655
-0.6685
-0.669
-0.6685
-0.6645
-0.661
-0.659
-0.663
-0.667
-0.6665
-0.656
-0.649
-0.6535
-0.6515
-0.656
-0.664
-0.664
-0.6665
-0.654
-0.6485
-0.66
-0.654
-0.652
-0.6555
-0.6555
-0.6485
-0.6525
-0.6515
-0.6405
-0.645
-0.64
-0.639
-0.6435
-0.641
-0.642
-0.654
-0.654
-0.6385
-0.6375
-0.6405
-0.643
-0.65
-0.648
-0.6395
-0.636
-0.6365
-0.631
-0.63
-0.6325
-0.6215
-0.622
-0.6335
-0.6395
-0.6305
-0.619
-0.62
-0.6165
-0.6165
-0.621
-0.617
-0.61
-0.6145
-0.621
-0.609
-0.607
-0.6155
-0.608
-0.613
-0.618
-0.61
-0.6135
-0.614
-0.6105
-0.6045
-0.603
-0.6
-0.5995
-0.6085
-0.6045
-0.602
-0.602
-0.5985
-0.6065
-0.605
-0.5895
-0.585
-0.5875
-0.59
-0.5875
-0.5855
-0.587
-0.585
-0.5865
-0.5925
-0.5895
-0.5875
-0.592
-0.5915
-0.59
-0.591
-0.589
-0.587
-0.589
-0.5905
-0.591
-0.591
-0.587
-0.5835
-0.5905
-0.598
-0.592
-0.586
-0.592
-0.5925
-0.5875
-0.5935
-0.598
-0.6
-0.6035
-0.6025
-0.6
-0.61
-0.614
-0.603
-0.604
-0.613
-0.6145
-0.623
-0.621
-0.607
-0.616
-0.617
-0.612
-0.6165
-0.6235
-0.6285
-0.6265
-0.6275
-0.628
-0.6275
-0.6315
-0.634
-0.6275
-0.635
-0.6485
-0.6525
-0.66
-0.666
-0.6615
-0.6565
-0.664
-0.6695
-0.669
-0.6725
-0.679
-0.673
-0.669
-0.675
-0.6755
-0.6745
-0.6825
-0.6935
-0.6845
-0.675
-0.6895
-0.69
-0.6815
-0.686
-0.6835
-0.6825
-0.6785
-0.6815
-0.69
-0.688
-0.68
-0.6755
-0.687
-0.688
-0.6845
-0.687
-0.697
-0.6945
-0.6895
-0.6955
-0.6955
-0.6985
-0.694
-0.695
-0.7
-0.702
-0.701
-0.7
-0.6995
-0.6975
-0.6995
-0.698
-0.7005
-0.704
-0.7035
-0.699
-0.6975
-0.7005
-0.704
-0.705
-0.7035
-0.6995
-0.7
-0.6925
-0.6795
-0.6935
-0.7075
-0.7095
-0.7005
-0.6915
-0.692
-0.689
-0.695
-0.704
-0.702
-0.7025
-0.704
-0.695
-0.6985
-0.7075
-0.7055
-0.6935
-0.6915
-0.706
-0.7045
-0.7025
-0.6995
-0.6995
-0.698
-0.6965
-0.701
-0.6945
-0.693
-0.6915
-0.691
-0.694
-0.6965
-0.6975
-0.7025
-0.701
-0.6955
-0.703
-0.699
-0.6975
-0.7055
-0.703
-0.7015
-0.694
-0.6885
-0.6955
-0.6975
-0.6965
-0.69
-0.692
-0.6995
-0.697
-0.698
-0.698
-0.6985
-0.6985
-0.6995
-0.6945
-0.6885
-0.698
-0.7005
-0.698
-0.6975
-0.697
-0.6945
-0.694
-0.6975
-0.7
-0.7035
-0.692
-0.6905
-0.7005
-0.694
-0.694
-0.699
-0.7
-0.6985
-0.6995
-0.698
-0.7045
-0.7055
-0.6955
-0.7
-0.695
-0.6865
-0.6915
-0.693
-0.69
-0.692
-0.6945
-0.694
-0.7
-0.6985
-0.7045
-0.705
-0.6945
-0.6975
-0.696
-0.698
-0.7005
-0.695
-0.695
-0.696
-0.6915
-0.692
-0.692
-0.6955
-0.704
-0.6985
-0.694
-0.6975
-0.698
-0.6975
-0.7
-0.699
-0.7015
-0.6995
-0.6985
-0.7
-0.697
-0.7025
-0.702
-0.6935
-0.69
-0.6945
-0.697
-0.695
-0.6975
-0.7075
-0.7045
-0.6995
-0.697
-0.6855
-0.694
-0.702
-0.699
-0.6995
-0.6935
-0.695
-0.699
-0.6955
-0.694
-0.689
-0.6885
-0.693
-0.693
-0.6925
-0.6875
-0.688
-0.692
-0.698
-0.6975
-0.694
-0.6955
-0.6905
-0.6885
-0.6935
-0.6965
-0.694
-0.6975
-0.699
-0.6955
-0.6945
-0.696
-0.6975
-0.697
-0.6995
-0.699
-0.6975
-0.6955
-0.6935
-0.685
-0.6965
-0.7015
-0.6935
-0.701
-0.6975
-0.7005
-0.7075
-0.707
-0.7055
-0.711
-0.706
-0.6925
-0.6955
-0.702
-0.701
-0.6995
-0.705
-0.708
-0.706
-0.6995
-0.6925
-0.692
-0.7
-0.708
-0.694
-0.693
-0.7035
-0.6955
-0.6935
-0.7035
-0.7055
-0.695
-0.6935
-0.6965
-0.6935
-0.698
-0.703
-0.6945
-0.693
-0.694
-0.693
-0.701
-0.7035
-0.702
-0.6985
-0.693
-0.6905
-0.6885
-0.6895
-0.697
-0.702
-0.7025
-0.697
-0.6905
-0.694
-0.693
-0.6885
-0.695
-0.7015
-0.7005
-0.6995
-0.6995
-0.7
-0.7005
-0.7055
-0.7035
-0.6895
-0.6875
-0.69
-0.687
-0.688
-0.6885
-0.6875
-0.688
-0.6885
-0.698
-0.701
-0.691
-0.689
-0.6895
-0.688
-0.6895
-0.692
-0.693
-0.699
-0.698
-0.6885
-0.687
-0.6925
-0.693
-0.6975
-0.697
-0.6855
-0.682
-0.6825
-0.6875
-0.6995
-0.6975
-0.681
-0.6865
-0.699
-0.6955
-0.693
-0.6935
-0.696
-0.692
-0.685
-0.6935
-0.7005
-0.7035
-0.702
-0.687
-0.691
-0.697
-0.6905
-0.6885
-0.696
-0.702
-0.6985
-0.6945
-0.6925
-0.6965
-0.6965
-0.6965
-0.697
-0.6965
-0.6935
-0.695
-0.6965
-0.696
-0.694
-0.693
-0.6945
-0.6955
-0.702
-0.6965
-0.6935
-0.6965
-0.691
-0.695
-0.699
-0.7
-0.697
-0.693
-0.697
-0.7005
-0.703
-0.698
-0.6955
-0.698
-0.6965
-0.6945
-0.698
-0.697
-0.69
-0.6885
-0.6885
-0.693
-0.69
-0.69
-0.7015
-0.7
-0.695
-0.6925
-0.6875
-0.7005
-0.707
-0.6935
-0.6935
-0.6885
-0.6875
-0.69
-0.6845
-0.687
-0.69
-0.6895
-0.6875
-0.695
-0.701
-0.6925
-0.687
-0.6925
-0.6985
-0.6975
-0.6935
-0.6915
-0.6885
-0.693
-0.6935
-0.689
-0.692
-0.6855
-0.683
-0.6835
-0.6825
-0.6885
-0.689
-0.687
-0.686
-0.6865
-0.687
-0.678
-0.674
-0.68
-0.677
-0.677
-0.675
-0.673
-0.6795
-0.673
-0.667
-0.671
-0.6675
-0.665
-0.667
-0.6695
-0.6755
-0.6725
-0.666
-0.6675
-0.6685
-0.671
-0.667
-0.663
-0.666
-0.664
-0.6615
-0.658
-0.653
-0.65
-0.6485
-0.647
-0.6445
-0.637
-0.636
-0.6365
-0.6375
-0.64
-0.6315
-0.626
-0.6205
-0.6215
-0.63
-0.632
-0.6295
-0.628
-0.6315
-0.6265
-0.6225
-0.626
-0.6245
-0.6255
-0.625
-0.625
-0.6275
-0.628
-0.6295
-0.6365
-0.641
-0.6325
-0.6295
-0.6255
-0.628
-0.63
-0.629
-0.63
-0.6245
-0.628
-0.62
-0.6195
-0.63
-0.6275
-0.6255
-0.623
-0.62
-0.6215
-0.6295
-0.6255
-0.6245
-0.6355
-0.641
-0.6525
-0.6565
-0.6715
-0.684
-0.6775
-0.6825
-0.684
-0.683
-0.6825
-0.6795
-0.679
-0.6805
-0.6825
-0.68
-0.685
-0.6865
-0.6845
-0.686
-0.6845
-0.688
-0.6935
-0.6925
-0.6925
-0.6965
-0.6925
-0.691
-0.693
-0.691
-0.686
-0.6875
-0.691
-0.69
-0.686
-0.676
-0.6815
-0.689
-0.686
-0.693
-0.696
-0.6935
-0.692
-0.6905
-0.6945
-0.691
-0.6915
-0.6985
-0.686
-0.683
-0.702
-0.699
-0.6875
-0.6855
-0.6865
-0.6925
-0.6925
-0.6955
-0.6925
-0.6915
-0.7055
-0.7105
-0.7205
-0.7325
-0.734
-0.735
-0.737
-0.7405
-0.7445
-0.74
-0.7335
-0.7225
-0.7095
-0.708
-0.6985
-0.6915
-0.6815
-0.664
-0.651
-0.6215
-0.595
-0.569
-0.5315
-0.502
-0.479
-0.46
-0.427
-0.3835
-0.343
-0.302
-0.252
-0.2105
-0.186
-0.1405
-0.084
-0.0615
-0.077
-0.1185
-0.1635
-0.196
-0.2425
-0.318
-0.384
-0.417
-0.4435
-0.466
-0.4895
-0.5075
-0.5135
-0.518
-0.5385
-0.572
-0.5945
-0.6375
-0.687
-0.7145
-0.7225
-0.717
-0.7185
-0.721
-0.715
-0.714
-0.708
-0.7095
-0.701
-0.684
-0.696
-0.695
-0.6885
-0.6855
-0.6815
-0.683
-0.6835
-0.687
-0.6815
-0.6795
-0.681
-0.6765
-0.6785
-0.6835
-0.6865
-0.6845
-0.685
-0.692
-0.689
-0.688
-0.69
-0.689
-0.6895
-0.6935
-0.691
-0.685
-0.688
-0.689
-0.6875
-0.687
-0.688
-0.6875
-0.6905
-0.6935
-0.6925
-0.6925
-0.6885
-0.678
-0.6795
-0.696
-0.6965
-0.6875
-0.681
-0.6815
-0.692
-0.6925
-0.685
-0.6805
-0.6845
-0.6855
-0.679
-0.677
-0.6815
-0.6855
-0.6835
-0.6845
-0.681
-0.677
-0.677
-0.677
-0.6865
-0.688
-0.6795
-0.6775
-0.6735
-0.6745
-0.672
-0.669
-0.673
-0.68
-0.6745
-0.6665
-0.671
-0.666
-0.668
-0.6695
-0.6755
-0.674
-0.67
-0.673
-0.6705
-0.6755
-0.668
-0.6655
-0.675
-0.6735
-0.672
-0.6725
-0.664
-0.6615
-0.668
-0.6705
-0.669
-0.6685
-0.6695
-0.6675
-0.6645
-0.667
-0.669
-0.666
-0.6655
-0.663
-0.658
-0.661
-0.6635
-0.6655
-0.666
-0.658
-0.6485
-0.6475
-0.653
-0.656
-0.652
-0.653
-0.6605
-0.6565
-0.6545
-0.6545
-0.6515
-0.6555
-0.6545
-0.6575
-0.6585
-0.659
-0.66
-0.6535
-0.6485
-0.644
-0.6465
-0.654
-0.652
-0.647
-0.6455
-0.6455
-0.6435
-0.64
-0.638
-0.637
-0.6395
-0.643
-0.6495
-0.6515
-0.643
-0.64
-0.643
-0.639
-0.639
-0.647
-0.6445
-0.629
-0.623
-0.6395
-0.6455
-0.6425
-0.6375
-0.631
-0.632
-0.6285
-0.6255
-0.629
-0.6315
-0.633
-0.6295
-0.6265
-0.623
-0.6195
-0.62
-0.625
-0.6255
-0.6245
-0.627
-0.625
-0.6195
-0.6145
-0.617
-0.617
-0.6125
-0.6135
-0.6145
-0.6085
-0.6125
-0.6155
-0.604
-0.6095
-0.6145
-0.6185
-0.611
-0.6015
-0.602
-0.599
-0.6055
-0.6055
-0.6045
-0.6
-0.5955
-0.6
-0.602
-0.6
-0.5975
-0.5995
-0.596
-0.5935
-0.59
-0.589
-0.594
-0.591
-0.5825
-0.58
-0.587
-0.591
-0.5805
-0.579
-0.5885
-0.5875
-0.5825
-0.5855
-0.592
-0.587
-0.584
-0.5815
-0.5765
-0.579
-0.5725
-0.573
-0.581
-0.5775
-0.576
-0.579
-0.5815
-0.5795
-0.5765
-0.578
-0.585
-0.5885
-0.5795
-0.5745
-0.587
-0.5885
-0.5825
-0.581
-0.584
-0.589
-0.5815
-0.577
-0.5805
-0.581
-0.582
-0.5805
-0.581
-0.585
-0.584
-0.5875
-0.594
-0.5995
-0.607
-0.605
-0.6025
-0.6065
-0.6095
-0.614
-0.6165
-0.616
-0.6135
-0.617
-0.626
-0.626
-0.625
-0.6285
-0.6355
-0.6405
-0.6415
-0.645
-0.6475
-0.649
-0.648
-0.6505
-0.654
-0.656
-0.6585
-0.657
-0.66
-0.662
-0.662
-0.6685
-0.6765
-0.673
-0.668
-0.673
-0.672
-0.6725
-0.677
-0.68
-0.6805
-0.673
-0.6735
-0.6805
-0.6825
-0.686
-0.687
-0.6855
-0.6795
-0.6775
-0.6835
-0.688
-0.6885
-0.686
-0.6865
-0.683
-0.6865
-0.6885
-0.684
-0.6885
-0.6895
-0.689
-0.696
-0.6995
-0.6935
-0.685
-0.6795
-0.688
-0.6885
-0.685
-0.692
-0.694
-0.6945
-0.6905
-0.6895
-0.688
-0.6905
-0.6965
-0.6905
-0.6895
-0.6885
-0.6855
-0.686
-0.687
-0.689
-0.689
-0.689
-0.6865
-0.686
-0.6895
-0.687
-0.6865
-0.687
-0.684
-0.6805
-0.6775
-0.6785
-0.6765
-0.6755
-0.684
-0.6875
-0.68
-0.676
-0.676
-0.6765
-0.68
-0.685
-0.686
-0.689
-0.6875
-0.6815
-0.6795
-0.6775
-0.6785
-0.6775
-0.674
-0.674
-0.6815
-0.6875
-0.6835
-0.6855
-0.684
-0.681
-0.678
-0.68
-0.6865
-0.688
-0.6925
-0.6865
-0.6835
-0.683
-0.6805
-0.679
-0.6735
-0.6795
-0.6815
-0.6785
-0.68
-0.6855
-0.6865
-0.683
-0.6895
-0.6885
-0.691
-0.6995
-0.6945
-0.689
-0.6865
-0.6835
-0.682
-0.68
-0.684
-0.6795
-0.6775
-0.6735
-0.6725
-0.6835
-0.686
-0.685
-0.6755
-0.6855
-0.692
-0.681
-0.679
-0.6735
-0.676
-0.678
-0.678
-0.6805
-0.6795
-0.6725
-0.6725
-0.675
-0.6725
-0.671
-0.6675
-0.6715
-0.676
-0.675
-0.674
-0.6725
-0.6715
-0.672
-0.673
-0.6685
-0.662
-0.6725
-0.681
-0.6765
-0.6725
-0.6725
-0.6735
-0.672
-0.669
-0.6695
-0.6675
-0.6675
-0.6675
-0.666
-0.67
-0.669
-0.672
-0.67
-0.67
-0.675
-0.6715
-0.675
-0.6735
-0.669
-0.6715
-0.6725
-0.6755
-0.675
-0.672
-0.671
-0.6715
-0.676
-0.677
-0.6695
-0.6625
-0.668
-0.673
-0.669
-0.6705
-0.674
-0.671
-0.6715
-0.6815
-0.682
-0.6725
-0.6705
-0.6655
-0.667
-0.6745
-0.675
-0.6765
-0.6695
-0.668
-0.6755
-0.6755
-0.678
-0.674
-0.6675
-0.663
-0.6685
-0.6705
-0.675
-0.679
-0.6735
-0.676
-0.672
-0.6705
-0.6735
-0.6755
-0.675
-0.6745
-0.671
-0.6695
-0.6755
-0.6695
-0.671
-0.675
-0.673
-0.6705
-0.6695
-0.6755
-0.6745
-0.6755
-0.674
-0.6685
-0.672
-0.676
-0.6745
-0.6705
-0.672
-0.6705
-0.667
-0.669
-0.67
-0.6635
-0.6655
-0.6735
-0.673
-0.679
-0.6775
-0.672
-0.6725
-0.6765
-0.6815
-0.675
-0.671
-0.6735
-0.6755
-0.6755
-0.675
-0.675
-0.674
-0.6725
-0.671
-0.672
-0.6725
-0.67
-0.6715
-0.6725
-0.6695
-0.67
-0.6715
-0.671
-0.6725
-0.6745
-0.672
-0.6745
-0.6755
-0.671
-0.669
-0.6685
-0.67
-0.67
-0.6665
-0.666
-0.668
-0.6685
-0.669
-0.6665
-0.6655
-0.6685
-0.6725
-0.671
-0.669
-0.672
-0.671
-0.6645
-0.665
-0.663
-0.661
-0.6605
-0.656
-0.654
-0.655
-0.659
-0.6615
-0.6665
-0.665
-0.6635
-0.664
-0.661
-0.6625
-0.6645
-0.6675
-0.67
-0.6685
-0.671
-0.67
-0.666
-0.671
-0.671
-0.6685
-0.6675
-0.6655
-0.665
-0.6695
-0.673
-0.6675
-0.6665
-0.67
-0.675
-0.675
-0.677
-0.6725
-0.668
-0.674
-0.676
-0.672
-0.6655
-0.662
-0.659
-0.658
-0.665
-0.6695
-0.665
-0.671
-0.6755
-0.668
-0.664
-0.6655
-0.671
-0.6645
-0.6635
-0.6715
-0.671
-0.6705
-0.6655
-0.6615
-0.6595
-0.661
-0.673
-0.6675
-0.656
-0.66
-0.662
-0.661
-0.6645
-0.6685
-0.665
-0.6695
-0.6745
-0.667
-0.6665
-0.663
-0.6585
-0.6575
-0.655
-0.66
-0.66
-0.654
-0.6555
-0.6535
-0.655
-0.662
-0.659
-0.6595
-0.663
-0.662
-0.662
-0.6605
-0.662
-0.6665
-0.6655
-0.662
-0.662
-0.6615
-0.662
-0.664
-0.662
-0.657
-0.6545
-0.6545
-0.651
-0.6525
-0.6595
-0.6595
-0.6585
-0.6545
-0.6515
-0.6565
-0.663
-0.666
-0.6625
-0.662
-0.6625
-0.659
-0.661
-0.662
-0.661
-0.6595
-0.658
-0.653
-0.65
-0.659
-0.663
-0.6625
-0.66
-0.6545
-0.656
-0.659
-0.658
-0.6635
-0.664
-0.664
-0.665
-0.658
-0.6585
-0.655
-0.651
-0.652
-0.644
-0.641
-0.645
-0.6455
-0.6445
-0.645
-0.645
-0.6465
-0.645
-0.6445
-0.6465
-0.6455
-0.65
-0.651
-0.646
-0.642
-0.6405
-0.6335
-0.633
-0.639
-0.627
-0.621
-0.6225
-0.62
-0.62
-0.6235
-0.6235
-0.627
-0.6235
-0.6215
-0.6235
-0.616
-0.615
-0.6115
-0.6095
-0.6005
-0.5925
-0.5965
-0.596
-0.5965
-0.5995
-0.6005
-0.603
-0.6
-0.5975
-0.6035
-0.6065
-0.6075
-0.601
-0.603
-0.6105
-0.6135
-0.617
-0.608
-0.6055
-0.6035
-0.6005
-0.6
-0.5985
-0.6
-0.595
-0.5915
-0.5915
-0.5935
-0.594
-0.59
-0.59
-0.5915
-0.5905
-0.5875
-0.59
-0.594
-0.5985
-0.5975
-0.596
-0.6025
-0.607
-0.6185
-0.6305
-0.631
-0.644
-0.655
-0.6485
-0.656
-0.6615
-0.6605
-0.66
-0.658
-0.6595
-0.6575
-0.6665
-0.6665
-0.6675
-0.672
-0.6625
-0.664
-0.6665
-0.6635
-0.6645
-0.6675
-0.6655
-0.6635
-0.6615
-0.663
-0.667
-0.666
-0.6655
-0.67
-0.673
-0.6705
-0.6705
-0.6685
-0.6655
-0.664
-0.6635
-0.663
-0.6685
-0.6705
-0.668
-0.6665
-0.6635
-0.662
-0.6615
-0.6665
-0.666
-0.667
-0.6725
-0.6725
-0.6685
-0.668
-0.671
-0.6675
-0.671
-0.6755
-0.672
-0.6765
-0.6865
-0.697
-0.7025
-0.7065
-0.711
-0.72
-0.7255
-0.7205
-0.719
-0.717
-0.7115
-0.7055
-0.699
-0.6845
-0.6765
-0.6725
-0.653
-0.634
-0.6135
-0.584
-0.5525
-0.519
-0.484
-0.454
-0.4335
-0.406
-0.37
-0.3275
-0.277
-0.2295
-0.192
-0.16
-0.1095
-0.056
-0.038
-0.056
-0.0965
-0.1395
-0.1715
-0.2165
-0.285
-0.3525
-0.39
-0.4225
-0.451
-0.4705
-0.4955
-0.5035
-0.5065
-0.5355
-0.578
-0.6035
-0.6465
-0.694
-0.7165
-0.7265
-0.727
-0.725
-0.718
-0.7085
-0.7005
-0.7005
-0.7015
-0.7015
-0.6895
-0.686
-0.6905
-0.684
-0.6795
-0.677
-0.6805
-0.683
-0.6815
-0.679
-0.679
-0.684
-0.6865
-0.69
-0.6925
-0.6885
-0.6875
-0.69
-0.687
-0.687
-0.686
-0.678
-0.682
-0.683
-0.6765
-0.685
-0.6885
-0.686
-0.685
-0.6805
-0.672
-0.678
-0.6915
-0.684
-0.6825
-0.689
-0.686
-0.683
-0.681
-0.679
-0.6815
-0.6825
-0.6825
-0.6845
-0.686
-0.688
-0.6915
-0.692
-0.6865
-0.682
-0.6835
-0.6855
-0.689
-0.6845
-0.6795
-0.682
-0.6765
-0.677
-0.6765
-0.6785
-0.6815
-0.675
-0.674
-0.673
-0.6765
-0.679
-0.6755
-0.6745
-0.677
-0.6735
-0.672
-0.6735
-0.6725
-0.675
-0.6745
-0.6745
-0.6665
-0.668
-0.676
-0.675
-0.6705
-0.6675
-0.669
-0.669
-0.6725
-0.6765
-0.674
-0.67
-0.6655
-0.665
-0.6685
-0.672
-0.674
-0.6705
-0.669
-0.667
-0.663
-0.665
-0.6705
-0.6685
-0.6635
-0.6625
-0.6595
-0.6585
-0.6615
-0.662
-0.664
-0.6635
-0.6605
-0.661
-0.6625
-0.663
-0.661
-0.658
-0.662
-0.6655
-0.6625
-0.658
-0.655
-0.6555
-0.657
-0.6635
-0.6595
-0.6565
-0.6635
-0.668
-0.664
-0.6515
-0.652
-0.652
-0.652
-0.6555
-0.659
-0.6585
-0.653
-0.652
-0.653
-0.655
-0.652
-0.652
-0.6515
-0.648
-0.6535
-0.6595
-0.659
-0.656
-0.6555
-0.655
-0.6495
-0.6545
-0.657
-0.646
-0.6495
-0.655
-0.6525
-0.655
-0.653
-0.6465
-0.6475
-0.648
-0.6425
-0.6415
-0.647
-0.647
-0.642
-0.6385
-0.648
-0.654
-0.641
-0.638
-0.641
-0.638
-0.6355
-0.6375
-0.6385
-0.629
-0.627
-0.63
-0.6245
-0.6215
-0.6235
-0.625
-0.6215
-0.6165
-0.621
-0.6235
-0.616
-0.615
-0.617
-0.6115
-0.612
-0.6135
-0.609
-0.6075
-0.607
-0.608
-0.6125
-0.612
-0.606
-0.604
-0.603
-0.603
-0.599
-0.5935
-0.5975
-0.595
-0.5885
-0.59
-0.5945
-0.594
-0.592
-0.5895
-0.5885
-0.5925
-0.5905
-0.5865
-0.586
-0.5875
-0.579
-0.5805
-0.584
-0.5775
-0.5815
-0.581
-0.582
-0.581
-0.577
-0.5765
-0.574
-0.5775
-0.58
-0.581
-0.581
-0.5835
-0.5865
-0.588
-0.5875
-0.588
-0.5905
-0.5885
-0.587
-0.5875
-0.586
-0.585
-0.5805
-0.582
-0.587
-0.585
-0.59
-0.5915
-0.588
-0.593
-0.5995
-0.6035
-0.604
-0.604
-0.601
-0.603
-0.604
-0.605
-0.6105
-0.611
-0.616
-0.6205
-0.623
-0.629
-0.633
-0.6335
-0.628
-0.629
-0.6415
-0.647
-0.6415
-0.6375
-0.6405
-0.6465
-0.6515
-0.653
-0.655
-0.655
-0.6555
-0.6585
-0.6585
-0.665
-0.6665
-0.6645
-0.6695
-0.6685
-0.6665
-0.67
-0.68
-0.685
-0.683
-0.682
-0.679
-0.678
-0.681
-0.6855
-0.6815
-0.6815
-0.683
-0.681
-0.684
-0.6855
-0.686
-0.6875
-0.6885
-0.6845
-0.6875
-0.6895
-0.6865
-0.688
-0.689
-0.691
-0.69
-0.6895
-0.693
-0.6955
-0.691
-0.6865
-0.6885
-0.6945
-0.695
-0.693
-0.696
-0.6965
-0.696
-0.6955
-0.695
-0.695
-0.6915
-0.687
-0.694
-0.695
-0.692
-0.697
-0.696
-0.696
-0.6955
-0.692
-0.6885
-0.688
-0.692
-0.6935
-0.694
-0.692
-0.6935
-0.7015
-0.694
-0.69
-0.695
-0.6845
-0.6855
-0.6915
-0.696
-0.6915
-0.68
-0.6825
-0.6855
-0.6855
-0.6875
-0.688
-0.685
-0.6855
-0.689
-0.69
-0.6895
-0.6915
-0.6925
-0.6915
-0.6935
-0.6935
-0.6925
-0.693
-0.693
-0.6905
-0.689
-0.6885
-0.6895
-0.6855
-0.6875
-0.689
-0.6865
-0.6885
-0.683
-0.6845
-0.685
-0.6785
-0.6805
-0.6835
-0.686
-0.6885
-0.692
-0.6925
-0.692
-0.6925
-0.689
-0.6895
-0.689
-0.6875
-0.6875
-0.684
-0.688
-0.689
-0.686
-0.6875
-0.688
-0.6875
-0.687
-0.6905
-0.6965
-0.693
-0.6895
-0.6905
-0.6875
-0.686
-0.6855
-0.6875
-0.6875
-0.6855
-0.68
-0.677
-0.6855
-0.687
-0.6895
-0.693
-0.6865
-0.682
-0.687
-0.692
-0.6875
-0.6865
-0.6865
-0.6855
-0.6865
-0.683
-0.6795
-0.6835
-0.6835
-0.677
-0.674
-0.6695
-0.666
-0.6695
-0.6745
-0.6755
-0.68
-0.6785
-0.672
-0.6775
-0.6725
-0.669
-0.672
-0.676
-0.6805
-0.6765
-0.6755
-0.6755
-0.675
-0.67
-0.6735
-0.675
-0.673
-0.6755
-0.6775
-0.679
-0.68
-0.684
-0.68
-0.675
-0.6775
-0.685
-0.684
-0.678
-0.6815
-0.6785
-0.6735
-0.6715
-0.6725
-0.6765
-0.674
-0.673
-0.6735
-0.6725
-0.671
-0.6725
-0.6775
-0.676
-0.6735
-0.6725
-0.6765
-0.673
-0.6685
-0.6785
-0.677
-0.6785
-0.6765
-0.672
-0.676
-0.6735
-0.675
-0.673
-0.669
-0.6685
-0.6695
-0.6725
-0.6735
-0.67
-0.6685
-0.6685
-0.667
-0.6715
-0.6755
-0.676
-0.6745
-0.676
-0.6755
-0.673
-0.677
-0.6785
-0.6765
-0.675
-0.6745
-0.672
-0.6735
-0.675
-0.6815
-0.683
-0.678
-0.679
-0.6775
-0.676
-0.6765
-0.6765
-0.6785
-0.681
-0.6765
-0.6775
-0.679
-0.679
-0.6785
-0.675
-0.677
-0.6755
-0.67
-0.6695
-0.6765
-0.6755
-0.672
-0.674
-0.672
-0.6755
-0.678
-0.6815
-0.682
-0.679
-0.679
-0.6785
-0.6755
-0.6755
-0.6785
-0.676
-0.678
-0.679
-0.679
-0.679
-0.677
-0.6805
-0.68
-0.6825
-0.6875
-0.683
-0.6845
-0.69
-0.68
-0.675
-0.6735
-0.6755
-0.6785
-0.676
-0.6745
-0.671
-0.672
-0.6735
-0.676
-0.674
-0.6725
-0.676
-0.6735
-0.673
-0.6725
-0.6695
-0.6725
-0.6805
-0.6845
-0.6805
-0.676
-0.673
-0.6725
-0.6725
-0.6735
-0.6755
-0.6725
-0.677
-0.688
-0.687
-0.6825
-0.6825
-0.682
-0.677
-0.6755
-0.6835
-0.6855
-0.6865
-0.6865
-0.681
-0.6765
-0.676
-0.68
-0.68
-0.6785
-0.6795
-0.677
-0.6725
-0.675
-0.6785
-0.6795
-0.6815
-0.6815
-0.679
-0.6805
-0.6805
-0.6785
-0.6795
-0.6785
-0.6795
-0.682
-0.683
-0.683
-0.6775
-0.677
-0.6835
-0.6855
-0.6835
-0.6805
-0.677
-0.679
-0.6815
-0.6785
-0.675
-0.6755
-0.6785
-0.68
-0.681
-0.6785
-0.676
-0.6755
-0.6745
-0.68
-0.682
-0.6755
-0.6775
-0.681
-0.6765
-0.6745
-0.6765
-0.6825
-0.6825
-0.6835
-0.682
-0.6735
-0.6795
-0.6805
-0.6775
-0.679
-0.682
-0.6815
-0.673
-0.6725
-0.672
-0.6745
-0.6755
-0.6755
-0.6735
-0.6705
-0.676
-0.674
-0.6725
-0.6745
-0.6785
-0.6775
-0.6755
-0.6795
-0.6775
-0.6735
-0.6745
-0.673
-0.668
-0.6735
-0.676
-0.674
-0.672
-0.67
-0.6735
-0.673
-0.6715
-0.6745
-0.6755
-0.669
-0.666
-0.6735
-0.678
-0.6805
-0.676
-0.6695
-0.6695
-0.6715
-0.671
-0.6715
-0.6765
-0.6765
-0.67
-0.665
-0.666
-0.6655
-0.6655
-0.6655
-0.6655
-0.6655
-0.665
-0.666
-0.668
-0.667
-0.6635
-0.6615
-0.6595
-0.6585
-0.657
-0.6595
-0.662
-0.659
-0.657
-0.653
-0.6515
-0.649
-0.646
-0.645
-0.645
-0.645
-0.6425
-0.641
-0.645
-0.644
-0.6385
-0.6395
-0.6415
-0.6365
-0.625
-0.624
-0.621
-0.619
-0.6175
-0.6045
-0.604
-0.6035
-0.602
-0.6005
-0.6
-0.6025
-0.605
-0.609
-0.6085
-0.6065
-0.6035
-0.607
-0.6095
-0.608
-0.613
-0.614
-0.6145
-0.622
-0.6205
-0.612
-0.6135
-0.612
-0.6075
-0.607
-0.608
-0.6055
-0.604
-0.6025
-0.6025
-0.604
-0.604
-0.604
-0.604
-0.603
-0.5975
-0.5985
-0.5995
-0.6055
-0.604
-0.603
-0.622
-0.634
-0.6445
-0.6565
-0.6655
-0.664
-0.6625
-0.6675
-0.6695
-0.672
-0.673
-0.671
-0.6665
-0.668
-0.669
-0.667
-0.6685
-0.6805
-0.684
-0.675
-0.677
-0.6795
-0.6745
-0.6705
-0.6765
-0.6785
-0.679
-0.682
-0.6785
-0.678
-0.6805
-0.6855
-0.688
-0.679
-0.6685
-0.672
-0.6725
-0.6755
-0.6775
-0.664
-0.665
-0.672
-0.6715
-0.673
-0.6745
-0.676
-0.676
-0.6775
-0.679
-0.677
-0.6755
-0.6725
-0.675
-0.6785
-0.6785
-0.679
-0.6795
-0.6785
-0.6775
-0.681
-0.686
-0.6935
-0.702
-0.709
-0.7195
-0.7305
-0.734
-0.728
-0.724
-0.721
-0.7105
-0.703
-0.692
-0.6785
-0.6725
-0.6625
-0.644
-0.622
-0.5955
-0.5685
-0.5385
-0.502
-0.4645
-0.4435
-0.43
-0.394
-0.347
-0.3055
-0.2515
-0.2015
-0.1685
-0.1225
-0.0705
-0.028
-0.0255
-0.058
-0.102
-0.142
-0.166
-0.2265
-0.3075
-0.3605
-0.391
-0.419
-0.4525
-0.4805
-0.4935
-0.495
-0.5065
-0.544
-0.582
-0.614
-0.664
-0.7
-0.715
-0.723
-0.7195
-0.7155
-0.708
-0.697
-0.6915
-0.692
-0.6885
-0.682
-0.679
-0.6765
-0.6725
-0.675
-0.6735
-0.669
-0.6715
-0.672
-0.673
-0.6765
-0.68
-0.6785
-0.6795
-0.6795
-0.6765
-0.6825
-0.68
-0.6745
-0.6795
-0.6785
-0.684
-0.685
-0.6805
-0.6865
-0.6845
-0.6865
-0.685
-0.681
-0.6825
-0.682
-0.6825
-0.68
-0.679
-0.6775
-0.6765
-0.676
-0.6755
-0.676
-0.675
-0.6755
-0.678
-0.6795
-0.679
-0.681
-0.6825
-0.683
-0.683
-0.6835
-0.682
-0.679
-0.676
-0.6775
-0.679
-0.6775
-0.676
-0.6735
-0.6735
-0.6735
-0.673
-0.671
-0.67
-0.669
-0.6695
-0.6685
-0.671
-0.6725
-0.669
-0.671
-0.674
-0.6705
-0.6685
-0.6705
-0.67
-0.667
-0.6645
-0.668
-0.672
-0.673
-0.667
-0.6635
-0.6685
-0.6665
-0.6685
-0.6655
-0.6615
-0.662
-0.6625
-0.665
-0.667
-0.6665
-0.663
-0.661
-0.6595
-0.657
-0.6555
-0.654
-0.6515
-0.652
-0.6505
-0.652
-0.6535
-0.6495
-0.652
-0.649
-0.644
-0.647
-0.6515
-0.6525
-0.652
-0.6495
-0.6455
-0.643
-0.642
-0.6425
-0.6445
-0.6435
-0.6455
-0.6475
-0.6405
-0.6405
-0.641
-0.639
-0.641
-0.6415
-0.6415
-0.6405
-0.637
-0.638
-0.6395
-0.639
-0.638
-0.635
-0.634
-0.6375
-0.6425
-0.6415
-0.6375
-0.634
-0.632
-0.639
-0.64
-0.631
-0.627
-0.63
-0.632
-0.635
-0.6325
-0.6315
-0.6345
-0.632
-0.6295
-0.6275
-0.6295
-0.6305
-0.6275
-0.626
-0.624
-0.627
-0.626
-0.6195
-0.627
-0.6295
-0.623
-0.624
-0.615
-0.6125
-0.615
-0.644
-0.6465
-0.587
-0.5905
-0.6095
-0.6055
-0.606
-0.5985
-0.5995
-0.604
-0.603
-0.5995
-0.5995
-0.601
-0.599
-0.5935
-0.595
-0.5965
-0.595
-0.593
-0.588
-0.587
-0.588
-0.5845
-0.5895
-0.591
-0.5875
-0.587
-0.5805
-0.58
-0.581
-0.5795
-0.577
-0.5795
-0.5795
-0.5715
-0.5695
-0.57
-0.57
-0.569
-0.567
-0.5685
-0.568
-0.567
-0.568
-0.5645
-0.561
-0.5635
-0.562
-0.5605
-0.564
-0.559
-0.56
-0.5635
-0.561
-0.56
-0.5545
-0.558
-0.56
-0.5605
-0.563
-0.559
-0.562
-0.564
-0.5625
-0.563
-0.5645
-0.5655
-0.564
-0.5615
-0.5625
-0.5635
-0.5645
-0.567
-0.5715
-0.5765
-0.569
-0.5635
-0.5645
-0.5645
-0.566
-0.5685
-0.5715
-0.572
-0.5815
-0.584
-0.5855
-0.591
-0.588
-0.5855
-0.5825
-0.587
-0.5925
-0.5975
-0.6005
-0.602
-0.6055
-0.6075
-0.611
-0.6145
-0.618
-0.618
-0.6235
-0.6265
-0.626
-0.6285
-0.6275
-0.6245
-0.6255
-0.6305
-0.633
-0.6365
-0.6365
-0.643
-0.651
-0.653
-0.651
-0.6505
-0.6555
-0.657
-0.664
-0.6655
-0.6635
-0.6655
-0.665
-0.666
-0.667
-0.667
-0.6675
-0.668
-0.6685
-0.6685
-0.671
-0.6745
-0.675
-0.676
-0.6755
-0.6755
-0.6755
-0.6755
-0.674
-0.6745
-0.678
-0.674
-0.677
-0.677
-0.6725
-0.6775
-0.679
-0.676
-0.6735
-0.676
-0.6745
-0.6695
-0.674
-0.68
-0.6825
-0.6815
-0.682
-0.683
-0.6805
-0.6795
-0.677
-0.673
-0.6715
-0.673
-0.675
-0.673
-0.672
-0.675
-0.6755
-0.673
-0.672
-0.6725
-0.6725
-0.676
-0.6785
-0.679
-0.676
-0.6755
-0.677
-0.674
-0.6745
-0.6745
-0.671
-0.6715
-0.6755
-0.674
-0.671
-0.6665
-0.6655
-0.672
-0.669
-0.669
-0.6685
-0.666
-0.673
-0.674
-0.671
-0.6655
-0.6615
-0.667
-0.669
-0.668
-0.6675
-0.6685
-0.669
-0.6665
-0.664
-0.659
-0.6595
-0.666
-0.669
-0.6685
-0.668
-0.668
-0.669
-0.672
-0.673
-0.671
-0.673
-0.671
-0.6695
-0.6725
-0.671
-0.6715
-0.6735
-0.6765
-0.676
-0.672
-0.6685
-0.664
-0.6665
-0.6765
-0.6785
-0.676
-0.674
-0.6705
-0.6725
-0.6715
-0.67
-0.6725
-0.671
-0.6675
-0.67
-0.6725
-0.6695
-0.669
-0.6635
-0.661
-0.66
-0.661
-0.6615
-0.662
-0.666
-0.664
-0.6655
-0.6655
-0.6655
-0.665
-0.6645
-0.6655
-0.665
-0.6645
-0.6645
-0.6675
-0.665
-0.6665
-0.666
-0.662
-0.668
-0.6655
-0.6615
-0.6615
-0.6595
-0.6625
-0.6715
-0.671
-0.667
-0.666
-0.661
-0.659
-0.6575
-0.6585
-0.663
-0.667
-0.6655
-0.6665
-0.669
-0.6615
-0.6615
-0.666
-0.6655
-0.6655
-0.6655
-0.67
-0.673
-0.6695
-0.665
-0.6655
-0.6655
-0.665
-0.6665
-0.6595
-0.659
-0.6655
-0.665
-0.662
-0.6605
-0.6605
-0.6595
-0.6645
-0.6665
-0.663
-0.6615
-0.6615
-0.6625
-0.6615
-0.6625
-0.6635
-0.663
-0.663
-0.6635
-0.6635
-0.6615
-0.662
-0.6625
-0.663
-0.666
-0.664
-0.664
-0.666
-0.666
-0.6665
-0.666
-0.6635
-0.6615
-0.6625
-0.666
-0.668
-0.6705
-0.672
-0.673
-0.669
-0.6655
-0.6685
-0.669
-0.668
-0.6625
-0.6635
-0.667
-0.663
-0.6655
-0.669
-0.6675
-0.667
-0.6655
-0.6655
-0.6675
-0.667
-0.666
-0.6665
-0.6705
-0.6695
-0.6645
-0.6645
-0.6655
-0.665
-0.6615
-0.6655
-0.6715
-0.6635
-0.6605
-0.663
-0.6585
-0.6605
-0.6635
-0.6635
-0.6705
-0.6725
-0.6675
-0.6655
-0.666
-0.668
-0.669
-0.6715
-0.6705
-0.668
-0.666
-0.665
-0.6655
-0.668
-0.6675
-0.666
-0.6695
-0.669
-0.67
-0.674
-0.671
-0.67
-0.6765
-0.6775
-0.673
-0.669
-0.6645
-0.6635
-0.666
-0.6655
-0.6655
-0.6635
-0.662
-0.6665
-0.6675
-0.669
-0.6705
-0.666
-0.667
-0.667
-0.667
-0.6635
-0.661
-0.6645
-0.6645
-0.666
-0.6625
-0.6585
-0.664
-0.6705
-0.67
-0.6665
-0.663
-0.6615
-0.6615
-0.6655
-0.667
-0.665
-0.6675
-0.6655
-0.6695
-0.669
-0.6695
-0.6765
-0.6705
-0.67
-0.669
-0.6675
-0.6635
-0.6655
-0.6695
-0.6645
-0.663
-0.6625
-0.664
-0.667
-0.673
-0.6685
-0.665
-0.6665
-0.666
-0.6665
-0.6655
-0.6655
-0.663
-0.662
-0.657
-0.657
-0.664
-0.6625
-0.661
-0.661
-0.6585
-0.658
-0.6565
-0.655
-0.654
-0.6545
-0.6595
-0.66
-0.6595
-0.664
-0.6615
-0.6555
-0.6575
-0.658
-0.655
-0.662
-0.6665
-0.6625
-0.657
-0.655
-0.659
-0.6585
-0.661
-0.662
-0.6605
-0.6625
-0.6665
-0.6685
-0.6625
-0.6645
-0.666
-0.6655
-0.668
-0.6625
-0.664
-0.6715
-0.6665
-0.663
-0.6655
-0.6635
-0.6665
-0.672
-0.6715
-0.6715
-0.6735
-0.67
-0.667
-0.662
-0.659
-0.6625
-0.664
-0.668
-0.6655
-0.666
-0.6655
-0.658
-0.659
-0.665
-0.663
-0.66
-0.663
-0.662
-0.6595
-0.658
-0.664
-0.67
-0.6655
-0.6615
-0.6635
-0.6675
-0.6635
-0.665
-0.664
-0.6575
-0.6655
-0.667
-0.664
-0.6625
-0.656
-0.6555
-0.653
-0.654
-0.65
-0.6445
-0.644
-0.647
-0.648
-0.6435
-0.6495
-0.6495
-0.6485
-0.652
-0.6455
-0.6445
-0.648
-0.6485
-0.652
-0.651
-0.643
-0.637
-0.6275
-0.626
-0.632
-0.629
-0.6315
-0.628
-0.6235
-0.621
-0.624
-0.6325
-0.6315
-0.627
-0.6185
-0.612
-0.6025
-0.5995
-0.61
-0.608
-0.5985
-0.594
-0.5895
-0.591
-0.594
-0.596
-0.6015
-0.599
-0.5975
-0.5985
-0.594
-0.5895
-0.592
-0.599
-0.6015
-0.6005
-0.601
-0.604
-0.6035
-0.604
-0.6015
-0.596
-0.597
-0.597
-0.5965
-0.5935
-0.59
-0.5855
-0.583
-0.5865
-0.5895
-0.591
-0.591
-0.5835
-0.5805
-0.584
-0.586
-0.5905
-0.5935
-0.5965
-0.5975
-0.605
-0.619
-0.6325
-0.6435
-0.6465
-0.648
-0.655
-0.6595
-0.663
-0.66
-0.6535
-0.6535
-0.6515
-0.653
-0.659
-0.6605
-0.664
-0.664
-0.659
-0.6675
-0.67
-0.668
-0.67
-0.6625
-0.664
-0.6695
-0.6675
-0.6655
-0.665
-0.6675
-0.669
-0.668
-0.6655
-0.666
-0.6655
-0.666
-0.6695
-0.665
-0.6635
-0.665
-0.6605
-0.6545
-0.659
-0.6685
-0.663
-0.659
-0.6595
-0.658
-0.66
-0.662
-0.665
-0.666
-0.6655
-0.6665
-0.6635
-0.662
-0.6695
-0.67
-0.675
-0.6815
-0.6845
-0.6915
-0.6995
-0.7115
-0.725
-0.7325
-0.7175
-0.7065
-0.706
-0.696
-0.689
-0.6815
-0.674
-0.6665
-0.6525
-0.632
-0.6105
-0.583
-0.5535
-0.5245
-0.4875
-0.4515
-0.419
-0.3985
-0.3695
-0.3295
-0.2875
-0.233
-0.178
-0.149
-0.119
-0.0605
-0.0135
-0.0075
-0.041
-0.0805
-0.1185
-0.1555
-0.2145
-0.294
-0.344
-0.374
-0.403
-0.4305
-0.451
-0.4675
-0.4775
-0.4865
-0.5235
-0.5615
-0.592
-0.642
-0.6825
-0.7055
-0.716
-0.711
-0.704
-0.7085
-0.7065
-0.698
-0.692
-0.6825
-0.671
-0.6565
-0.6545
-0.6615
-0.6585
-0.6585
-0.6615
-0.6585
-0.6575
-0.6535
-0.655
-0.659
-0.6565
-0.6525
-0.652
-0.655
-0.655
-0.653
-0.6515
-0.6515
-0.653
-0.6525
-0.653
-0.6535
-0.653
-0.649
-0.649
-0.6515
-0.652
-0.6505
-0.6495
-0.6545
-0.654
-0.649
-0.653
-0.649
-0.6475
-0.6555
-0.6515
-0.652
-0.6505
-0.646
-0.6485
-0.648
-0.6455
-0.6475
-0.6475
-0.6485
-0.6495
-0.6475
-0.6505
-0.6465
-0.6425
-0.636
-0.644
-0.655
-0.6445
-0.6405
-0.638
-0.64
-0.645
-0.6435
-0.6395
-0.6415
-0.642
-0.6365
-0.639
-0.647
-0.6475
-0.6435
-0.6395
-0.6365
-0.639
-0.6415
-0.64
-0.6365
-0.6365
-0.6375
-0.635
-0.6345
-0.635
-0.631
-0.627
-0.63
-0.6325
-0.6295
-0.628
-0.6295
-0.6285
-0.628
-0.628
-0.6275
-0.63
-0.631
-0.6295
-0.624
-0.6245
-0.6225
-0.6195
-0.6235
-0.6215
-0.6195
-0.623
-0.6265
-0.6235
-0.6235
-0.624
-0.621
-0.6215
-0.6275
-0.6265
-0.6205
-0.6235
-0.6165
-0.614
-0.621
-0.621
-0.621
-0.6195
-0.6175
-0.616
-0.616
-0.618
-0.618
-0.6135
-0.6125
-0.611
-0.611
-0.6165
-0.6185
-0.6135
-0.6055
-0.608
-0.6095
-0.6115
-0.614
-0.6095
-0.6025
-0.597
-0.5975
-0.602
-0.6025
-0.6005
-0.601
-0.6015
-0.6095
-0.603
-0.5985
-0.6005
-0.6
-0.6055
-0.601
-0.601
-0.5985
-0.593
-0.6
-0.601
-0.5935
-0.595
-0.5985
-0.594
-0.593
-0.5925
-0.589
-0.5895
-0.588
-0.5875
-0.589
-0.588
-0.585
-0.5825
-0.5845
-0.584
-0.581
-0.5805
-0.576
-0.579
-0.5795
-0.574
-0.572
-0.5695
-0.5695
-0.5655
-0.57
-0.5725
-0.565
-0.5615
-0.558
-0.559
-0.5585
-0.5615
-0.5625
-0.5605
-0.5605
-0.5585
-0.5555
-0.5555
-0.5555
-0.552
-0.5535
-0.5475
-0.545
-0.55
-0.549
-0.5465
-0.5405
-0.538
-0.538
-0.544
-0.5445
-0.54
-0.539
-0.5345
-0.5305
-0.528
-0.5315
-0.531
-0.5285
-0.5275
-0.525
-0.5225
-0.522
-0.526
-0.5225
-0.515
-0.5145
-0.5185
-0.5195
-0.522
-0.523
-0.5235
-0.52
-0.5145
-0.5175
-0.5215
-0.519
-0.5205
-0.523
-0.519
-0.5195
-0.519
-0.521
-0.5225
-0.52
-0.5255
-0.53
-0.528
-0.526
-0.5285
-0.5285
-0.53
-0.5365
-0.536
-0.536
-0.5395
-0.5435
-0.5455
-0.551
-0.5515
-0.548
-0.552
-0.5595
-0.566
-0.5635
-0.5645
-0.57
-0.5695
-0.5735
-0.5795
-0.583
-0.5865
-0.589
-0.592
-0.591
-0.594
-0.6015
-0.586
-0.5845
-0.5815
-0.5775
-0.6195
-0.629
-0.6145
-0.6175
-0.6165
-0.62
-0.623
-0.6225
-0.6245
-0.6275
-0.624
-0.6225
-0.627
-0.6295
-0.63
-0.631
-0.6315
-0.63
-0.6275
-0.6295
-0.6355
-0.6375
-0.6315
-0.6345
-0.6395
-0.639
-0.643
-0.6445
-0.646
-0.6405
-0.6335
-0.6385
-0.645
-0.644
-0.639
-0.6405
-0.64
-0.6375
-0.637
-0.635
-0.64
-0.644
-0.643
-0.645
-0.6475
-0.645
-0.645
-0.6465
-0.647
-0.651
-0.651
-0.653
-0.653
-0.6505
-0.6475
-0.6495
-0.655
-0.6515
-0.6475
-0.643
-0.643
-0.646
-0.644
-0.646
-0.646
-0.645
-0.646
-0.6455
-0.6465
-0.649
-0.649
-0.6465
-0.6455
-0.646
-0.646
-0.648
-0.6485
-0.6485
-0.6475
-0.6425
-0.6405
-0.6415
-0.6415
-0.6415
-0.6445
-0.645
-0.6455
-0.644
-0.6425
-0.6475
-0.6445
-0.638
-0.641
-0.6435
-0.6415
-0.6435
-0.6445
-0.6455
-0.643
-0.642
-0.641
-0.639
-0.64
-0.6385
-0.6355
-0.6345
-0.6415
-0.6455
-0.6445
-0.642
-0.6445
-0.649
-0.644
-0.641
-0.639
-0.6375
-0.64
-0.64
-0.6395
-0.6375
-0.638
-0.6375
-0.635
-0.6395
-0.642
-0.6405
-0.6405
-0.6435
-0.648
-0.6485
-0.6445
-0.643
-0.645
-0.6445
-0.6445
-0.645
-0.6445
-0.644
-0.642
-0.6435
-0.644
-0.6365
-0.635
-0.639
-0.6375
-0.634
-0.6405
-0.646
-0.644
-0.643
-0.642
-0.639
-0.6415
-0.6425
-0.6345
-0.639
-0.643
-0.6415
-0.6405
-0.6375
-0.639
-0.64
-0.6385
-0.639
-0.644
-0.642
-0.6415
-0.645
-0.6385
-0.6405
-0.644
-0.641
-0.638
-0.635
-0.6375
-0.6395
-0.6405
-0.64
-0.635
-0.629
-0.6335
-0.6415
-0.637
-0.636
-0.6375
-0.632
-0.629
-0.631
-0.6355
-0.639
-0.642
-0.639
-0.637
-0.637
-0.6315
-0.6315
-0.632
-0.633
-0.6385
-0.635
-0.628
-0.63
-0.631
-0.6325
-0.635
-0.632
-0.6335
-0.635
-0.636
-0.638
-0.638
-0.637
-0.637
-0.635
-0.6325
-0.635
-0.6375
-0.6365
-0.634
-0.635
-0.6325
-0.631
-0.632
-0.6365
-0.6355
-0.6305
-0.631
-0.629
-0.6315
-0.633
-0.6315
-0.629
-0.6275
-0.6275
-0.6245
-0.625
-0.627
-0.6245
-0.6245
-0.625
-0.6225
-0.6215
-0.627
-0.6305
-0.6295
-0.6255
-0.622
-0.6265
-0.629
-0.6275
-0.6305
-0.634
-0.6295
-0.619
-0.6205
-0.628
-0.626
-0.624
-0.6245
-0.6245
-0.6245
-0.63
-0.629
-0.6235
-0.6265
-0.628
-0.6275
-0.629
-0.631
-0.63
-0.63
-0.6295
-0.63
-0.6315
-0.6305
-0.63
-0.632
-0.6305
-0.6275
-0.6275
-0.6275
-0.6335
-0.638
-0.634
-0.63
-0.6315
-0.6335
-0.631
-0.631
-0.6315
-0.632
-0.6335
-0.6315
-0.629
-0.6275
-0.6255
-0.626
-0.627
-0.6255
-0.6245
-0.6245
-0.626
-0.627
-0.625
-0.622
-0.622
-0.626
-0.6255
-0.627
-0.628
-0.628
-0.623
-0.6195
-0.6245
-0.6225
-0.6225
-0.622
-0.621
-0.6215
-0.62
-0.6185
-0.619
-0.6225
-0.625
-0.627
-0.6225
-0.6185
-0.623
-0.6295
-0.626
-0.6215
-0.62
-0.6205
-0.6275
-0.6295
-0.6245
-0.621
-0.6195
-0.612
-0.62
-0.6315
-0.626
-0.6245
-0.623
-0.6245
-0.629
-0.6305
-0.629
-0.628
-0.6285
-0.628
-0.628
-0.6245
-0.6285
-0.629
-0.626
-0.627
-0.631
-0.6295
-0.626
-0.628
-0.6295
-0.6315
-0.6295
-0.628
-0.6265
-0.623
-0.6205
-0.624
-0.631
-0.6305
-0.628
-0.629
-0.6345
-0.63
-0.622
-0.6225
-0.626
-0.6285
-0.625
-0.624
-0.622
-0.622
-0.626
-0.627
-0.625
-0.623
-0.625
-0.625
-0.6245
-0.6255
-0.624
-0.6245
-0.6235
-0.6205
-0.622
-0.626
-0.6265
-0.6225
-0.6205
-0.6235
-0.631
-0.6345
-0.63
-0.628
-0.6225
-0.622
-0.6225
-0.6215
-0.625
-0.6235
-0.623
-0.621
-0.6235
-0.6225
-0.623
-0.6245
-0.623
-0.6245
-0.6215
-0.6245
-0.623
-0.6205
-0.624
-0.6275
-0.6265
-0.624
-0.6255
-0.628
-0.626
-0.625
-0.6285
-0.63
-0.6325
-0.6225
-0.615
-0.618
-0.6145
-0.612
-0.609
-0.6105
-0.607
-0.601
-0.606
-0.6085
-0.606
-0.6025
-0.6
-0.6005
-0.6005
-0.6
-0.601
-0.599
-0.6
-0.5995
-0.595
-0.592
-0.589
-0.5945
-0.5965
-0.5905
-0.5875
-0.582
-0.578
-0.584
-0.5855
-0.5835
-0.584
-0.5825
-0.5805
-0.576
-0.573
-0.5745
-0.571
-0.564
-0.5635
-0.56
-0.5585
-0.5605
-0.5535
-0.544
-0.54
-0.5395
-0.5405
-0.544
-0.548
-0.553
-0.5535
-0.5545
-0.5565
-0.554
-0.5485
-0.5485
-0.5545
-0.556
-0.56
-0.5605
-0.5625
-0.565
-0.563
-0.5615
-0.557
-0.555
-0.5545
-0.5575
-0.554
-0.5485
-0.548
-0.548
-0.554
-0.5575
-0.5555
-0.55
-0.543
-0.5375
-0.543
-0.547
-0.546
-0.5595
-0.561
-0.5595
-0.576
-0.583
-0.588
-0.6
-0.6115
-0.6185
-0.614
-0.6115
-0.6165
-0.621
-0.6165
-0.616
-0.6175
-0.6145
-0.6205
-0.625
-0.6245
-0.6245
-0.623
-0.626
-0.6255
-0.6195
-0.6225
-0.624
-0.6225
-0.6275
-0.631
-0.631
-0.6285
-0.63
-0.633
-0.6355
-0.6315
-0.6215
-0.6215
-0.6215
-0.618
-0.6185
-0.6145
-0.616
-0.621
-0.62
-0.6215
-0.6245
-0.625
-0.624
-0.627
-0.6315
-0.6315
-0.6305
-0.6285
-0.6325
-0.6305
-0.624
-0.6315
-0.6275
-0.623
-0.6305
-0.6415
-0.6505
-0.648
-0.654
-0.667
-0.6775
-0.6835
-0.6815
-0.679
-0.679
-0.6685
-0.661
-0.6565
-0.6425
-0.6385
-0.6315
-0.6165
-0.593
-0.5625
-0.541
-0.5195
-0.4815
-0.444
-0.41
-0.378
-0.356
-0.323
-0.286
-0.2375
-0.1815
-0.135
-0.1005
-0.061
-0.0005
0.041
0.0365
0.0035
-0.0455
-0.088
-0.1155
-0.1755
-0.2575
-0.3065
-0.336
-0.359
-0.389
-0.4125
-0.419
-0.427
-0.4465
-0.489
-0.5245
-0.5585
-0.607
-0.6415
-0.6615
-0.667
-0.663
-0.661
-0.655
-0.647
-0.646
-0.646
-0.64
-0.6345
-0.633
-0.6305
-0.628
-0.627
-0.624
-0.6175
-0.6205
-0.623
-0.6185
-0.6175
-0.6185
-0.6195
-0.623
-0.621
-0.6185
-0.623
-0.626
-0.627
-0.615
-0.61
-0.62
-0.6235
-0.616
-0.6165
-0.627
-0.6265
-0.625
-0.6215
-0.618
-0.624
-0.6265
-0.623
-0.621
-0.621
-0.6205
-0.6205
-0.6175
-0.6175
-0.6205
-0.6165
-0.6175
-0.615
-0.614
-0.617
-0.6185
-0.6225
-0.62
-0.6135
-0.6145
-0.6215
-0.616
-0.6195
-0.622
-0.6125
-0.611
-0.6135
-0.608
-0.607
-0.6115
-0.604
-0.607
-0.6105
-0.6115
-0.614
-0.611
-0.613
-0.6175
-0.615
-0.609
-0.609
-0.609
-0.612
-0.608
-0.611
-0.611
-0.601
-0.5995
-0.6045
-0.611
-0.608
-0.607
-0.611
-0.607
-0.5975
-0.599
-0.6065
-0.608
-0.606
-0.601
-0.603
-0.6035
-0.599
-0.5985
-0.6015
-0.6025
-0.6
-0.6005
-0.5965
-0.5915
-0.5925
-0.5935
-0.5915
-0.5925
-0.5965
-0.5955
-0.5985
-0.598
-0.594
-0.593
-0.5935
-0.592
-0.5905
-0.5905
-0.595
-0.596
-0.5935
-0.5925
-0.5915
-0.5905
-0.584
-0.5885
-0.5925
-0.595
-0.5955
-0.591
-0.589
-0.588
-0.595
-0.5935
-0.594
-0.5915
-0.5895
-0.596
-0.592
-0.5965
-0.6005
-0.5905
-0.58
-0.579
-0.585
-0.585
-0.587
-0.5885
-0.587
-0.586
-0.583
-0.5845
-0.5825
-0.5795
-0.5815
-0.575
-0.5745
-0.574
-0.573
-0.572
-0.566
-0.5665
-0.564
-0.568
-0.571
-0.571
-0.5695
-0.5665
-0.5675
-0.5665
-0.569
-0.565
-0.563
-0.5695
-0.568
-0.561
-0.56
-0.558
-0.5545
-0.552
-0.549
-0.5595
-0.5615
-0.553
-0.551
-0.5495
-0.5535
-0.5515
-0.5465
-0.543
-0.542
-0.5465
-0.5475
-0.5475
-0.5485
-0.545
-0.542
-0.5435
-0.5425
-0.5425
-0.538
-0.5335
-0.535
-0.529
-0.5315
-0.5335
-0.529
-0.527
-0.5275
-0.5295
-0.531
-0.5325
-0.525
-0.52
-0.52
-0.5175
-0.5145
-0.5155
-0.5165
-0.52
-0.5205
-0.5165
-0.5125
-0.508
-0.508
-0.506
-0.511
-0.5115
-0.508
-0.505
-0.507
-0.513
-0.511
-0.512
-0.513
-0.5075
-0.5005
-0.5025
-0.5085
-0.503
-0.499
-0.5015
-0.5045
-0.505
-0.5045
-0.509
-0.51
-0.513
-0.5105
-0.4995
-0.4985
-0.5015
-0.5085
-0.515
-0.514
-0.518
-0.5275
-0.523
-0.5195
-0.5245
-0.528
-0.53
-0.5285
-0.533
-0.536
-0.5415
-0.543
-0.542
-0.5445
-0.5505
-0.555
-0.557
-0.571
-0.5675
-0.565
-0.5705
-0.5775
-0.585
-0.579
-0.575
-0.575
-0.58
-0.5795
-0.5815
-0.591
-0.5955
-0.597
-0.5955
-0.5975
-0.602
-0.607
-0.6055
-0.6065
-0.612
-0.616
-0.617
-0.6115
-0.6125
-0.617
-0.617
-0.6105
-0.6165
-0.624
-0.6215
-0.618
-0.621
-0.632
-0.6285
-0.619
-0.623
-0.636
-0.636
-0.638
-0.641
-0.6285
-0.625
-0.6315
-0.6305
-0.626
-0.621
-0.623
-0.627
-0.6245
-0.6335
-0.638
-0.635
-0.6355
-0.633
-0.6325
-0.628
-0.6315
-0.6335
-0.6305
-0.626
-0.6245
-0.6335
-0.6295
-0.6275
-0.634
-0.6355
-0.6295
-0.6215
-0.6205
-0.6245
-0.6265
-0.6225
-0.627
-0.6245
-0.621
-0.6265
-0.6335
-0.63
-0.6235
-0.627
-0.6255
-0.626
-0.6285
-0.6275
-0.6255
-0.6295
-0.6245
-0.6215
-0.63
-0.631
-0.631
-0.634
-0.633
-0.626
-0.6265
-0.6225
-0.6195
-0.6315
-0.6355
-0.6295
-0.6265
-0.624
-0.622
-0.624
-0.6365
-0.6385
-0.6245
-0.621
-0.6245
-0.6245
-0.621
-0.621
-0.6185
-0.6205
-0.6275
-0.62
-0.6165
-0.6225
-0.616
-0.611
-0.6185
-0.6245
-0.626
-0.6215
-0.618
-0.6185
-0.621
-0.617
-0.6165
-0.622
-0.624
-0.622
-0.612
-0.6085
-0.622
-0.622
-0.6145
-0.624
-0.628
-0.623
-0.616
-0.6105
-0.61
-0.614
-0.6195
-0.619
-0.6155
-0.609
-0.6115
-0.6085
-0.6205
-0.6365
-0.6105
-0.6015
-0.611
-0.613
-0.618
-0.6205
-0.6225
-0.612
-0.6075
-0.6145
-0.6155
-0.6115
-0.609
-0.62
-0.62
-0.611
-0.613
-0.61
-0.606
-0.612
-0.6165
-0.61
-0.613
-0.6125
-0.617
-0.6215
-0.6115
-0.6075
-0.606
-0.603
-0.601
-0.6135
-0.6175
-0.6085
-0.603
-0.6025
-0.606
-0.6075
-0.606
-0.602
-0.6075
-0.616
-0.616
-0.6095
-0.6105
-0.615
-0.6105
-0.6065
-0.6065
-0.6075
-0.608
-0.6065
-0.6035
-0.6065
-0.605
-0.601
-0.6015
-0.604
-0.611
-0.6115
-0.6095
-0.6075
-0.6055
-0.6075
-0.6115
-0.6075
-0.6075
-0.607
-0.601
-0.602
-0.603
-0.607
-0.6045
-0.6065
-0.6095
-0.603
-0.6075
-0.6065
-0.6045
-0.599
-0.6
-0.603
-0.5885
-0.599
-0.6115
-0.6085
-0.598
-0.596
-0.6135
-0.608
-0.6065
-0.605
-0.5935
-0.602
-0.599
-0.5915
-0.593
-0.588
-0.592
-0.6075
-0.6035
-0.595
-0.6045
-0.605
-0.608
-0.611
-0.6075
-0.608
-0.606
-0.601
-0.6
-0.598
-0.5965
-0.6
-0.5965
-0.6005
-0.6025
-0.5985
-0.5945
-0.5955
-0.6035
-0.598
-0.597
-0.6005
-0.6005
-0.6055
-0.6105
-0.608
-0.6005
-0.6005
-0.598
-0.596
-0.598
-0.595
-0.5945
-0.596
-0.5915
-0.5945
-0.6035
-0.605
-0.6085
-0.6055
-0.602
-0.6035
-0.596
-0.6025
-0.5995
-0.59
-0.5985
-0.611
-0.6105
-0.597
-0.596
-0.595
-0.6015
-0.606
-0.5965
-0.5955
-0.602
-0.6085
-0.6035
-0.604
-0.61
-0.602
-0.598
-0.5935
-0.595
-0.604
-0.6105
-0.6065
-0.5995
-0.6075
-0.6035
-0.6035
-0.5975
-0.592
-0.602
-0.6015
-0.6065
-0.602
-0.5945
-0.5985
-0.596
-0.587
-0.594
-0.6055
-0.6035
-0.597
-0.5925
-0.594
-0.5895
-0.5855
-0.5845
-0.5885
-0.5985
-0.5905
-0.587
-0.594
-0.5935
-0.594
-0.595
-0.5955
-0.5915
-0.5935
-0.5915
-0.584
-0.597
-0.6015
-0.593
-0.588
-0.593
-0.5955
-0.5905
-0.593
-0.6005
-0.6015
-0.596
-0.596
-0.593
-0.5905
-0.5915
-0.5955
-0.5945
-0.5955
-0.603
-0.6035
-0.6005
-0.598
-0.6
-0.5985
-0.594
-0.594
-0.5905
-0.591
-0.6025
-0.5995
-0.598
-0.6015
-0.5955
-0.5925
-0.6
-0.604
-0.596
-0.5945
-0.5955
-0.598
-0.6055
-0.603
-0.6
-0.598
-0.5935
-0.6035
-0.605
-0.594
-0.5935
-0.593
-0.5945
-0.5935
-0.5905
-0.594
-0.5915
-0.589
-0.5905
-0.588
-0.589
-0.5965
-0.5995
-0.5895
-0.585
-0.594
-0.5855
-0.5735
-0.5865
-0.5865
-0.5805
-0.582
-0.573
-0.5755
-0.582
-0.58
-0.582
-0.5805
-0.5865
-0.581
-0.571
-0.576
-0.571
-0.58
-0.595
-0.58
-0.5615
-0.5655
-0.563
-0.5615
-0.5615
-0.556
-0.5605
-0.5565
-0.56
-0.5635
-0.5655
-0.5625
-0.5535
-0.5515
-0.557
-0.56
-0.5435
-0.5465
-0.5485
-0.5345
-0.5335
-0.536
-0.5315
-0.5295
-0.542
-0.5465
-0.5425
-0.538
-0.5325
-0.5395
-0.5445
-0.537
-0.5375
-0.541
-0.544
-0.543
-0.5505
-0.5585
-0.5485
-0.5505
-0.548
-0.547
-0.547
-0.5345
-0.5245
-0.5205
-0.5225
-0.53
-0.5305
-0.5285
-0.5295
-0.5235
-0.5275
-0.5295
-0.528
-0.529
-0.531
-0.5425
-0.5475
-0.558
-0.5685
-0.5695
-0.579
-0.587
-0.5895
-0.5965
-0.599
-0.593
-0.59
-0.5925
-0.593
-0.589
-0.6
-0.603
-0.598
-0.611
-0.6235
-0.6275
-0.616
-0.609
-0.5985
-0.585
-0.5925
-0.6005
-0.5975
-0.6
-0.613
-0.6045
-0.592
-0.596
-0.5955
-0.5985
-0.606
-0.6045
-0.601
-0.6
-0.604
-0.6065
-0.602
-0.6055
-0.6035
-0.5925
-0.6025
-0.607
-0.5805
-0.584
-0.593
-0.588
-0.597
-0.5925
-0.587
-0.5855
-0.591
-0.5995
-0.59
-0.5945
-0.615
-0.6115
-0.601
-0.6125
-0.6185
-0.63
-0.64
-0.6495
-0.6595
-0.658
-0.6525
-0.637
-0.6345
-0.6235
-0.618
-0.621
-0.6125
-0.6035
-0.5815
-0.5655
-0.5475
-0.516
-0.486
-0.4465
-0.4085
-0.379
-0.362
-0.3455
-0.307
-0.2525
-0.199
-0.1655
-0.1315
-0.084
-0.044
-0.024
-0.0245
-0.043
-0.0795
-0.1155
-0.1475
-0.1985
-0.2615
-0.305
-0.3465
-0.377
-0.385
-0.408
-0.428
-0.4285
-0.4465
-0.4845
-0.51
-0.5375
-0.576
-0.619
-0.651
-0.6615
-0.6625
-0.6575
-0.663
-0.6635
-0.6435
-0.6305
-0.629
-0.6285
-0.618
-0.613
-0.6175
-0.602
-0.593
-0.5985
-0.5955
-0.588
-0.5925
-0.599
-0.6025
-0.6065
-0.602
-0.598
-0.5965
-0.592
-0.5915
-0.602
-0.605
-0.6035
-0.603
-0.602
-0.5915
-0.5845
-0.598
-0.601
-0.59
-0.586
-0.5945
-0.597
-0.5905
-0.601
-0.5985
-0.59
-0.592
-0.5795
-0.5795
-0.592
-0.591
-0.588
-0.583
-0.5865
-0.596
-0.586
-0.5785
-0.5775
-0.5855
-0.5965
-0.5895
-0.5835
-0.5875
-0.5855
-0.5835
-0.5855
-0.584
-0.5825
-0.5815
-0.579
-0.565
-0.577
-0.5935
-0.59
-0.588
-0.567
-0.5645
-0.5795
-0.5705
-0.5775
-0.5885
-0.5825
-0.5705
-0.573
-0.585
-0.578
-0.582
-0.5845
-0.5825
-0.5875
-0.592
-0.579
-0.566
-0.574
-0.5685
-0.567
-0.5695
-0.5645
-0.571
-0.576
-0.5705
-0.564
-0.564
-0.57
-0.575
-0.571
-0.576
-0.58
-0.5735
-0.5725
-0.56
-0.557
-0.567
-0.5655
-0.559
-0.5605
-0.563
-0.563
-0.5595
-0.557
-0.567
-0.5645
-0.565
-0.574
-0.569
-0.565
-0.57
-0.5675
-0.564
-0.5585
-0.5505
-0.5535
-0.557
-0.563
-0.567
-0.5665
-0.569
-0.571
-0.5745
-0.566
-0.5565
-0.5585
-0.556
-0.5575
-0.561
-0.5615
-0.557
-0.5525
-0.5525
-0.5635
-0.5585
-0.547
-0.5525
-0.553
-0.555
-0.5475
-0.5465
-0.5555
-0.5545
-0.5505
-0.55
-0.5495
-0.5465
-0.5425
-0.551
-0.5555
-0.556
-0.5615
-0.557
-0.5555
-0.56
-0.5575
-0.544
-0.5475
-0.548
-0.555
-0.5535
-0.5485
-0.552
-0.5375
-0.55
-0.546
-0.54
-0.5455
-0.5435
-0.542
-0.535
-0.5415
-0.5395
-0.53
-0.5185
-0.522
-0.526
-0.5245
-0.53
-0.526
-0.5305
-0.525
-0.523
-0.534
-0.5295
-0.5235
-0.527
-0.5285
-0.521
-0.518
-0.5225
-0.518
-0.5145
-0.516
-0.515
-0.509
-0.509
-0.515
-0.5175
-0.518
-0.5145
-0.5045
-0.492
-0.5005
-0.512
-0.506
-0.503
-0.5015
-0.5045
-0.505
-0.5065
-0.503
-0.49
-0.492
-0.49
-0.49
-0.494
-0.4925
-0.4845
-0.478
-0.489
-0.4855
-0.485
-0.4915
-0.477
-0.474
-0.4805
-0.479
-0.4985
-0.505
-0.4845
-0.489
-0.496
-0.4915
-0.4815
-0.483
-0.487
-0.4855
-0.492
-0.489
-0.4885
-0.4925
-0.504
-0.5085
-0.497
-0.499
-0.503
-0.5
-0.5055
-0.5105
-0.5115
-0.5205
-0.5225
-0.5135
-0.5225
-0.532
-0.519
-0.514
-0.527
-0.5235
-0.516
-0.527
-0.5355
-0.534
-0.539
-0.5505
-0.5555
-0.56
-0.5695
-0.575
-0.5615
-0.5575
-0.571
-0.567
-0.574
-0.586
-0.578
-0.578
-0.577
-0.584
-0.59
-0.581
-0.585
-0.588
-0.5905
-0.602
-0.597
-0.588
-0.5915
-0.6035
-0.6065
-0.609
-0.606
-0.5955
-0.6075
-0.609
-0.6085
-0.602
-0.5915
-0.5985
-0.602
-0.6105
-0.608
-0.605
-0.604
-0.5995
-0.5955
-0.5885
-0.6015
-0.609
-0.609
-0.6185
-0.6085
-0.6045
-0.6105
-0.6085
-0.603
-0.5995
-0.601
-0.594
-0.5995
-0.6075
-0.599
-0.596
-0.605
-0.6125
-0.6135
-0.6025
-0.599
-0.605
-0.6085
-0.6125
-0.602
-0.599
-0.599
-0.599
-0.6
-0.603
-0.6065
-0.5985
-0.594
-0.591
-0.588
-0.5955
-0.6065
-0.5995
-0.6065
-0.5995
-0.5945
-0.6055
-0.598
-0.6035
-0.6115
-0.6085
-0.593
-0.595
-0.5945
-0.597
-0.611
-0.596
-0.588
-0.5945
-0.5895
-0.585
-0.592
-0.587
-0.5875
-0.5995
-0.6015
-0.593
-0.5955
-0.6025
-0.592
-0.602
-0.607
-0.589
-0.5825
-0.5855
-0.594
-0.5965
-0.5975
-0.589
-0.587
-0.5965
-0.588
-0.5835
-0.5875
-0.595
-0.604
-0.595
-0.5915
-0.6005
-0.603
-0.5955
-0.585
-0.5915
-0.598
-0.5925
-0.5755
-0.5775
-0.5955
-0.598
-0.5985
-0.595
-0.5985
-0.595
-0.5955
-0.602
-0.595
-0.5925
-0.595
-0.5875
-0.596
-0.612
-0.598
-0.5925
-0.5935
-0.592
-0.581
-0.5815
-0.583
-0.574
-0.5885
-0.593
-0.603
-0.5945
-0.5845
-0.58
-0.5755
-0.588
-0.59
-0.585
-0.581
-0.5925
-0.5855
-0.577
-0.588
-0.5955
-0.587
-0.5835
-0.586
-0.5725
-0.578
-0.5845
-0.5865
-0.5945
-0.597
-0.593
-0.5905
-0.596
-0.602
-0.5995
-0.5935
-0.5975
-0.588
-0.583
-0.577
-0.5745
-0.585
-0.585
-0.5915
-0.599
-0.5995
-0.591
-0.5915
-0.599
-0.5955
-0.59
-0.592
-0.582
-0.587
-0.59
-0.5815
-0.5885
-0.5825
-0.591
-0.593
-0.598
-0.5975
-0.59
-0.598
-0.5855
-0.5985
-0.604
-0.5935
-0.6005
-0.6005
-0.6075
-0.601
-0.593
-0.5965
-0.595
-0.605
-0.607
-0.5925
-0.595
-0.599
-0.5925
-0.598
-0.5915
-0.5915
-0.5925
-0.586
-0.5945
-0.5875
-0.5975
-0.6065
-0.5905
-0.5885
-0.5905
-0.603
-0.602
-0.5905
-0.5955
-0.5905
-0.6015
-0.599
-0.592
-0.6075
-0.6025
-0.5935
-0.6025
-0.6015
-0.591
-0.6
-0.6
-0.59
-0.5865
-0.5965
-0.606
-0.602
-0.5985
-0.5925
-0.6
-0.598
-0.5975
-0.609
-0.5975
-0.59
-0.5825
-0.592
-0.608
-0.589
-0.597
-0.6035
-0.596
-0.5995
-0.6005
-0.6055
-0.602
-0.5995
-0.587
-0.5925
-0.6085
-0.599
-0.596
-0.6035
-0.598
-0.5905
-0.5915
-0.604
-0.6095
-0.6005
-0.5995
-0.5935
-0.598
-0.603
-0.592
-0.5955
-0.602
-0.598
-0.594
-0.5995
-0.608
-0.608
-0.605
-0.6
-0.597
-0.5935
-0.5955
-0.5945
-0.589
-0.59
-0.604
-0.623
-0.607
-0.594
-0.6005
-0.59
-0.598
-0.603
-0.6015
-0.609
-0.6095
-0.6
-0.5865
-0.597
-0.6015
-0.6
-0.5925
-0.586
-0.594
-0.5875
-0.5865
-0.5965
-0.593
-0.6
-0.606
-0.593
-0.598
-0.602
-0.591
-0.594
-0.5995
-0.589
-0.598
-0.606
-0.595
-0.5905
-0.5905
-0.5945
-0.589
-0.594
-0.597
-0.6015
-0.5985
-0.593
-0.6015
-0.5875
-0.5805
-0.5875
-0.5905
-0.5915
-0.5985
-0.587
-0.5755
-0.5905
-0.5785
-0.5885
-0.599
-0.584
-0.6005
-0.601
-0.5965
-0.5965
-0.5825
-0.5805
-0.5885
-0.5905
-0.59
-0.5975
-0.598
-0.5995
-0.608
-0.6025
-0.599
-0.606
-0.6015
-0.588
-0.584
-0.582
-0.5855
-0.587
-0.5845
-0.5885
-0.5785
-0.5805
-0.585
-0.5925
-0.595
-0.585
-0.585
-0.5805
-0.5775
-0.5755
-0.582
-0.5845
-0.575
-0.584
-0.5765
-0.5635
-0.5775
-0.578
-0.572
-0.567
-0.5725
-0.575
-0.5705
-0.5705
-0.571
-0.5665
-0.5515
-0.563
-0.5665
-0.551
-0.5555
-0.568
-0.574
-0.5585
-0.5535
-0.5515
-0.5505
-0.5575
-0.5535
-0.5665
-0.5545
-0.5335
-0.543
-0.5415
-0.547
-0.5495
-0.5375
-0.5295
-0.529
-0.53
-0.5245
-0.5285
-0.5335
-0.5395
-0.537
-0.54
-0.545
-0.5295
-0.529
-0.538
-0.546
-0.5405
-0.535
-0.551
-0.55
-0.5555
-0.548
-0.526
-0.5485
-0.552
-0.531
-0.536
-0.536
-0.527
-0.5315
-0.537
-0.5305
-0.5215
-0.5265
-0.529
-0.5265
-0.5335
-0.533
-0.5375
-0.5415
-0.538
-0.55
-0.5545
-0.563
-0.553
-0.552
-0.5855
-0.587
-0.584
-0.577
-0.5755
-0.5905
-0.5895
-0.596
-0.5975
-0.609
-0.6125
-0.581
-0.5935
-0.6035
-0.5925
-0.5995
-0.609
-0.6115
-0.602
-0.604
-0.604
-0.6025
-0.6025
-0.604
-0.5965
-0.6055
-0.6175
-0.596
-0.596
-0.6075
-0.614
-0.6135
-0.613
-0.6085
-0.6015
-0.616
-0.6175
-0.611
-0.6155
-0.605
-0.6015
-0.6005
-0.6025
-0.597
-0.581
-0.6025
-0.6035
-0.601
-0.618
-0.6065
-0.5965
-0.598
-0.6035
-0.608
-0.605
-0.6125
-0.627
-0.6345
-0.636
-0.634
-0.6415
-0.6505
-0.649
-0.6465
-0.652
-0.6385
-0.6265
-0.6245
-0.6145
-0.6185
-0.6085
-0.5925
-0.569
-0.5365
-0.5235
-0.495
-0.463
-0.4255
-0.3895
-0.384
-0.378
-0.3425
-0.288
-0.255
-0.2085
-0.169
-0.1505
-0.104
-0.0775
-0.074
-0.0945
-0.13
-0.159
-0.2075
-0.249
-0.3065
-0.3525
-0.3795
-0.4025
-0.4115
-0.4425
-0.449
-0.461
-0.4745
-0.4975
-0.53
-0.5405
-0.584
-0.6215
-0.6565
-0.667
-0.6575
-0.661
-0.6475
-0.6495
-0.648
-0.632
-0.625
-0.623
-0.6355
-0.626
-0.6175
-0.625
-0.605
-0.6065
-0.617
-0.6115
-0.619
-0.6085
-0.601
-0.6055
-0.5975
-0.6055
-0.605
-0.6065
-0.613
-0.6005
-0.5985
-0.603
-0.5985
-0.5985
-0.608
-0.6025
-0.595
-0.602
-0.61
-0.6025
-0.5945
-0.602
-0.6005
-0.593
-0.5995
-0.605
-0.5975
-0.593
-0.589
-0.5985
-0.5985
-0.582
-0.5815
-0.587
-0.6015
-0.6025
-0.5985
-0.5965
-0.5905
-0.592
-0.5895
-0.594
-0.6005
-0.6
-0.592
-0.5885
-0.5925
-0.599
-0.601
-0.587
-0.574
-0.5735
-0.591
-0.5925
-0.5785
-0.5865
-0.587
-0.584
-0.5725
-0.5725
-0.596
-0.595
-0.587
-0.5855
-0.5875
-0.592
-0.5895
-0.581
-0.583
-0.587
-0.5935
-0.59
-0.5875
-0.5895
-0.5835
-0.58
-0.564
-0.5685
-0.5725
-0.5675
-0.5695
-0.577
-0.5735
-0.573
-0.5765
-0.5765
-0.5825
-0.5785
-0.589
-0.5925
-0.5825
-0.5815
-0.5895
-0.5845
-0.5775
-0.5805
-0.596
-0.5945
-0.5745
-0.5725
-0.5705
-0.5635
-0.5775
-0.586
-0.561
-0.574
-0.592
-0.5775
-0.577
-0.578
-0.576
-0.568
-0.571
-0.5725
-0.5775
-0.579
-0.5765
-0.5805
-0.573
-0.5855
-0.579
-0.5635
-0.5715
-0.5785
-0.565
-0.556
-0.5815
-0.5755
-0.5605
-0.5705
-0.569
-0.569
-0.5765
-0.572
-0.5655
-0.567
-0.5545
-0.5485
-0.563
-0.558
-0.553
-0.5565
-0.554
-0.5545
-0.5635
-0.575
-0.555
-0.542
-0.5655
-0.5615
-0.5465
-0.5435
-0.5495
-0.5605
-0.56
-0.5475
-0.541
-0.56
-0.5625
-0.5585
-0.5575
-0.5415
-0.543
-0.5475
-0.5435
-0.5425
-0.5405
-0.551
-0.5575
-0.545
-0.535
-0.5395
-0.549
-0.5425
-0.5295
-0.5375
-0.54
-0.542
-0.55
-0.54
-0.529
-0.5375
-0.545
-0.547
-0.543
-0.5435
-0.553
-0.5335
-0.519
-0.522
-0.5345
-0.531
-0.523
-0.5255
-0.52
-0.518
-0.5125
-0.528
-0.528
-0.5105
-0.5275
-0.532
-0.524
-0.52
-0.5205
-0.5195
-0.5045
-0.5155
-0.534
-0.5165
-0.5035
-0.516
-0.498
-0.4905
-0.5185
-0.5155
-0.5015
-0.503
-0.5025
-0.5065
-0.5045
-0.5125
-0.529
-0.5085
-0.501
-0.522
-0.513
-0.504
-0.5155
-0.5015
-0.5095
-0.5115
-0.4995
-0.526
-0.521
-0.5225
-0.513
-0.4925
-0.513
-0.5125
-0.528
-0.548
-0.537
-0.527
-0.5325
-0.531
-0.513
-0.52
-0.521
-0.5275
-0.544
-0.5455
-0.5375
-0.536
-0.538
-0.5295
-0.535
-0.534
-0.544
-0.5515
-0.5555
-0.564
-0.5545
-0.559
-0.5715
-0.595
-0.6025
-0.5815
-0.5735
-0.5815
-0.5915
-0.587
-0.5765
-0.5825
-0.599
-0.589
-0.578
-0.595
-0.59
-0.5885
-0.5965
-0.6025
-0.6045
-0.6045
-0.6175
-0.604
-0.603
-0.616
-0.6065
-0.608
-0.618
-0.6165
-0.613
-0.6215
-0.619
-0.6
-0.6045
-0.6075
-0.605
-0.61
-0.5985
-0.615
-0.621
-0.606
-0.611
-0.61
-0.608
-0.6025
-0.613
-0.6225
-0.6175
-0.608
-0.607
-0.611
-0.599
-0.5985
-0.6135
-0.606
-0.6
-0.6095
-0.6075
-0.6005
-0.5925
-0.6
-0.607
-0.6075
-0.617
-0.615
-0.6085
-0.6015
-0.6025
-0.6145
-0.6165
-0.607
-0.5975
-0.601
-0.602
-0.5965
-0.594
-0.607
-0.617
-0.605
-0.608
-0.61
-0.601
-0.599
-0.589
-0.5985
-0.6035
-0.589
-0.6025
-0.6
-0.5965
-0.6085
-0.6125
-0.616
-0.597
-0.5895
-0.5945
-0.605
-0.622
-0.608
-0.596
-0.596
-0.5915
-0.604
-0.5955
-0.605
-0.613
-0.597
-0.5825
-0.5905
-0.616
-0.609
-0.61
-0.6145
-0.6155
-0.6075
-0.6065
-0.6075
-0.6035
-0.603
-0.596
-0.6145
-0.6205
-0.5975
-0.5935
-0.608
-0.612
-0.613
-0.6
-0.6025
-0.6155
-0.599
-0.602
-0.612
-0.6025
-0.601
-0.605
-0.5995
-0.596
-0.622
-0.61
-0.589
-0.619
-0.62
-0.602
-0.597
-0.6175
-0.615
-0.6145
-0.6215
-0.5975
-0.586
-0.5975
-0.6005
-0.5945
-0.6025
-0.601
-0.602
-0.6005
-0.5905
-0.6
-0.599
-0.5805
-0.6005
-0.609
-0.604
-0.6075
-0.5955
-0.5845
-0.5895
-0.5945
-0.5905
-0.5925
-0.6005
-0.6035
-0.5915
-0.586
-0.594
-0.592
-0.575
-0.5795
-0.6015
-0.5935
-0.591
-0.5905
-0.5905
-0.601
-0.5995
-0.6065
-0.582
-0.575
-0.59
-0.5925
-0.6
-0.5775
-0.5855
-0.5875
-0.593
-0.603
-0.592
-0.599
-0.5895
-0.6005
-0.597
-0.591
-0.596
-0.59
-0.5915
-0.5845
-0.6025
-0.6145
-0.5945
-0.5855
-0.6065
-0.6015
-0.5955
-0.6035
-0.596
-0.6035
-0.59
-0.588
-0.597
-0.5885
-0.5955
-0.607
-0.608
-0.601
-0.5915
-0.5835
-0.596
-0.598
-0.589
-0.6045
-0.599
-0.61
-0.6275
-0.591
-0.594
-0.5945
-0.5815
-0.593
-0.602
-0.6095
-0.6045
-0.6155
-0.607
-0.5945
-0.6
-0.6025
-0.6115
-0.605
-0.5945
-0.6025
-0.6125
-0.6155
-0.6045
-0.5915
-0.594
-0.602
-0.6085
-0.6025
-0.602
-0.6005
-0.6035
-0.614
-0.6025
-0.605
-0.599
-0.5995
-0.6085
-0.6055
-0.6175
-0.6105
-0.6085
-0.61
-0.612
-0.6015
-0.5865
-0.6005
-0.604
-0.6015
-0.6025
-0.601
-0.6005
-0.61
-0.609
-0.609
-0.6115
-0.6045
-0.604
-0.6025
-0.609
-0.605
-0.5945
-0.595
-0.5945
-0.5895
-0.6075
-0.6105
-0.6055
-0.617
-0.6105
-0.5985
-0.603
-0.604
-0.5945
-0.605
-0.613
-0.603
-0.5915
-0.6005
-0.604
-0.5945
-0.6005
-0.596
-0.5985
-0.593
-0.5895
-0.611
-0.611
-0.6125
-0.5995
-0.592
-0.6105
-0.613
-0.611
-0.6045
-0.584
-0.5845
-0.597
-0.615
-0.624
-0.606
-0.603
-0.6065
-0.6015
-0.5925
-0.603
-0.5945
-0.6005
-0.6325
-0.628
-0.6075
-0.599
-0.595
-0.596
-0.5985
-0.59
-0.6035
-0.5985
-0.601
-0.6105
-0.601
-0.614
-0.6095
-0.5995
-0.599
-0.6135
-0.6155
-0.596
-0.6085
-0.614
-0.598
-0.604
-0.6115
-0.6015
-0.607
-0.6165
-0.6145
-0.61
-0.6055
-0.602
-0.5975
-0.6005
-0.5965
-0.608
-0.61
-0.5945
-0.592
-0.589
-0.607
-0.6105
-0.6075
-0.596
-0.589
-0.603
-0.597
-0.597
-0.5975
-0.5995
-0.613
-0.6145
-0.602
-0.6045
-0.6035
-0.5935
-0.6045
-0.614
-0.5995
-0.5945
-0.603
-0.5845
-0.594
-0.603
-0.599
-0.6075
-0.597
-0.6045
-0.587
-0.578
-0.5895
-0.5955
-0.596
-0.587
-0.5845
-0.566
-0.5835
-0.589
-0.589
-0.5885
-0.582
-0.5995
-0.573
-0.567
-0.5905
-0.58
-0.5745
-0.582
-0.587
-0.5795
-0.562
-0.5625
-0.576
-0.5745
-0.5695
-0.5685
-0.5575
-0.5525
-0.5675
-0.5735
-0.568
-0.5645
-0.5525
-0.5485
-0.5395
-0.5275
-0.537
-0.5365
-0.535
-0.5475
-0.5445
-0.543
-0.546
-0.541
-0.536
-0.5405
-0.5435
-0.5395
-0.535
-0.5575
-0.567
-0.557
-0.5615
-0.547
-0.5455
-0.5515
-0.5605
-0.5575
-0.546
-0.5605
-0.5515
-0.5345
-0.5315
-0.5315
-0.534
-0.529
-0.535
-0.54
-0.538
-0.531
-0.534
-0.539
-0.5265
-0.528
-0.5505
-0.559
-0.547
-0.566
-0.5735
-0.5905
-0.591
-0.576
-0.5945
-0.5895
-0.6
-0.5965
-0.591
-0.5905
-0.5915
-0.595
-0.5875
-0.5935
-0.59
-0.594
-0.5995
-0.609
-0.606
-0.6115
-0.625
-0.6075
-0.6045
-0.6
-0.598
-0.593
-0.591
-0.6045
-0.5965
-0.584
-0.593
-0.5945
-0.595
-0.598
-0.584
-0.5855
-0.5995
-0.6135
-0.5995
-0.592
-0.599
-0.601
-0.6015
-0.6005
-0.59
-0.5955
-0.6165
-0.589
-0.5905
-0.594
-0.5925
-0.6045
-0.597
-0.6015
-0.5955
-0.5935
-0.613
-0.6195
-0.6225
-0.6205
-0.6065
-0.6185
-0.626
-0.627
-0.63
-0.638
-0.6315
-0.613
-0.615
-0.6
-0.593
-0.584
-0.563
-0.557
-0.534
-0.516
-0.4905
-0.451
-0.427
-0.4055
-0.388
-0.35
-0.3275
-0.308
-0.257
-0.211
-0.181
-0.1635
-0.1285
-0.097
-0.087
-0.111
-0.1455
-0.183
-0.2325
-0.2695
-0.333
-0.3845
-0.4085
-0.4295
-0.4365
-0.445
-0.441
-0.4465
-0.4725
-0.5105
-0.5165
-0.5245
-0.5775
-0.618
-0.6345
-0.6415
-0.67
-0.657
-0.642
-0.6535
-0.618
-0.6195
-0.6325
-0.6215
-0.6255
-0.6335
-0.6205
-0.593
-0.602
-0.602
-0.591
-0.5935
-0.5895
-0.5955
-0.588
-0.5785
-0.586
-0.588
-0.587
-0.5985
-0.6075
-0.59
-0.5865
-0.6035
-0.6045
-0.5925
-0.5815
-0.5755
-0.5715
-0.5845
-0.595
-0.5875
-0.5715
-0.565
-0.5835
-0.5875
-0.5815
-0.585
-0.59
-0.5915
-0.5895
-0.592
-0.5845
-0.5955
-0.611
-0.6015
-0.577
-0.5655
-0.582
-0.5835
-0.57
-0.574
-0.5725
-0.57
-0.574
-0.568
-0.5705
-0.565
-0.568
-0.588
-0.5815
-0.5795
-0.5895
-0.5775
-0.571
-0.579
-0.5875
-0.5855
-0.5775
-0.5815
-0.5765
-0.5845
-0.5805
-0.572
-0.565
-0.553
-0.5745
-0.582
-0.588
-0.5865
-0.578
-0.5715
-0.572
-0.5795
-0.5795
-0.5725
-0.5705
-0.5775
-0.5655
-0.566
-0.577
-0.5785
-0.571
-0.571
-0.5715
-0.5615
-0.559
-0.5635
-0.563
-0.552
-0.558
-0.568
-0.5755
-0.5775
-0.5615
-0.5615
-0.568
-0.573
-0.5725
-0.564
-0.563
-0.551
-0.5505
-0.5605
-0.5625
-0.568
-0.5695
-0.5465
-0.5315
-0.5565
-0.5685
-0.5695
-0.5635
-0.5565
-0.5605
-0.5595
-0.5595
-0.553
-0.5565
-0.56
-0.545
-0.5545
-0.553
-0.532
-0.5395
-0.5455
-0.55
-0.554
-0.5545
-0.5545
-0.5515
-0.5535
-0.5575
-0.5515
-0.546
-0.549
-0.5565
-0.552
-0.541
-0.5555
-0.553
-0.5465
-0.5475
-0.5415
-0.553
-0.5555
-0.5495
-0.5435
-0.546
-0.5505
-0.542
-0.538
-0.5385
-0.536
-0.5405
-0.551
-0.544
-0.5395
-0.536
-0.537
-0.5475
-0.534
-0.5235
-0.5255
-0.534
-0.537
-0.5355
-0.539
-0.537
-0.542
-0.5425
-0.547
-0.533
-0.5215
-0.5435
-0.535
-0.5195
-0.5115
-0.5215
-0.5535
-0.5415
-0.52
-0.5235
-0.527
-0.525
-0.5195
-0.525
-0.53
-0.527
-0.5175
-0.525
-0.528
-0.525
-0.5255
-0.52
-0.5235
-0.5155
-0.5095
-0.5075
-0.509
-0.5085
-0.502
-0.5095
-0.5095
-0.5035
-0.5065
-0.508
-0.511
-0.5035
-0.499
-0.5035
-0.4985
-0.5
-0.5
-0.5065
-0.504
-0.501
-0.5225
-0.51
-0.495
-0.4985
-0.4955
-0.499
-0.496
-0.492
-0.5135
-0.519
-0.509
-0.5065
-0.4975
-0.4965
-0.486
-0.493
-0.509
-0.5015
-0.503
-0.503
-0.4915
-0.5055
-0.5185
-0.5115
-0.5035
-0.499
-0.505
-0.499
-0.5045
-0.5125
-0.51
-0.518
-0.53
-0.532
-0.5175
-0.5265
-0.5535
-0.549
-0.528
-0.526
-0.537
-0.553
-0.5545
-0.539
-0.5325
-0.543
-0.548
-0.5485
-0.5505
-0.55
-0.5535
-0.5565
-0.562
-0.5595
-0.5605
-0.574
-0.574
-0.57
-0.5725
-0.5665
-0.5595
-0.58
-0.5885
-0.5745
-0.5875
-0.5845
-0.5815
-0.576
-0.5745
-0.5905
-0.587
-0.5905
-0.5925
-0.587
-0.5865
-0.5945
-0.5885
-0.5765
-0.575
-0.5795
-0.5845
-0.5875
-0.592
-0.589
-0.5905
-0.589
-0.585
-0.5885
-0.5875
-0.589
-0.591
-0.591
-0.593
-0.6
-0.5975
-0.576
-0.5725
-0.589
-0.5975
-0.5885
-0.583
-0.5915
-0.5985
-0.597
-0.591
-0.5905
-0.586
-0.5935
-0.596
-0.601
-0.601
-0.5905
-0.5935
-0.5775
-0.5965
-0.607
-0.5905
-0.5865
-0.5885
-0.599
-0.5885
-0.5915
-0.588
-0.5845
-0.588
-0.58
-0.592
-0.5955
-0.602
-0.5965
-0.577
-0.5835
-0.5805
-0.5895
-0.595
-0.5925
-0.6025
-0.585
-0.587
-0.596
-0.591
-0.5815
-0.5885
-0.597
-0.5745
-0.584
-0.5795
-0.5765
-0.5925
-0.5815
-0.5825
-0.5925
-0.597
-0.5965
-0.59
-0.576
-0.581
-0.594
-0.597
-0.5985
-0.575
-0.5795
-0.583
-0.573
-0.5915
-0.5835
-0.5795
-0.592
-0.59
-0.591
-0.6
-0.595
-0.589
-0.5845
-0.5725
-0.578
-0.584
-0.583
-0.582
-0.584
-0.5915
-0.585
-0.5725
-0.588
-0.593
-0.574
-0.592
-0.587
-0.583
-0.6055
-0.5965
-0.586
-0.591
-0.5925
-0.575
-0.576
-0.5815
-0.579
-0.5895
-0.5875
-0.575
-0.5695
-0.582
-0.5835
-0.5775
-0.5785
-0.581
-0.584
-0.5705
-0.5685
-0.5655
-0.5655
-0.581
-0.583
-0.5785
-0.577
-0.5865
-0.5865
-0.5765
-0.5665
-0.5635
-0.582
-0.583
-0.574
-0.577
-0.5735
-0.574
-0.5785
-0.5705
-0.573
-0.5875
-0.578
-0.5695
-0.57
-0.5715
-0.578
-0.576
-0.575
-0.5785
-0.5745
-0.5795
-0.5945
-0.596
-0.586
-0.5715
-0.5885
-0.598
-0.5815
-0.5765
-0.5705
-0.5665
-0.58
-0.5885
-0.579
-0.5685
-0.565
-0.5765
-0.5875
-0.5805
-0.568
-0.5685
-0.5765
-0.574
-0.5705
-0.577
-0.5705
-0.572
-0.5835
-0.5805
-0.5835
-0.5705
-0.572
-0.5745
-0.5755
-0.5795
-0.564
-0.574
-0.569
-0.582
-0.5955
-0.5755
-0.5705
-0.5745
-0.5805
-0.572
-0.5795
-0.579
-0.572
-0.5735
-0.5645
-0.5665
-0.5775
-0.5695
-0.5575
-0.5655
-0.5715
-0.5715
-0.572
-0.5785
-0.5785
-0.584
-0.587
-0.5835
-0.5825
-0.5805
-0.584
-0.5815
-0.578
-0.5795
-0.582
-0.5845
-0.5825
-0.575
-0.5805
-0.586
-0.578
-0.5755
-0.5895
-0.5855
-0.574
-0.588
-0.581
-0.5765
-0.5845
-0.5725
-0.5715
-0.572
-0.5815
-0.5905
-0.585
-0.5725
-0.5725
-0.5845
-0.5695
-0.571
-0.5835
-0.5875
-0.5865
-0.575
-0.5765
-0.5775
-0.583
-0.576
-0.558
-0.566
-0.5695
-0.5685
-0.5765
-0.5765
-0.5675
-0.5565
-0.566
-0.577
-0.5715
-0.581
-0.5805
-0.5865
-0.5865
-0.5695
-0.5775
-0.586
-0.5785
-0.5715
-0.5795
-0.572
-0.575
-0.574
-0.5745
-0.5845
-0.5695
-0.5725
-0.576
-0.5745
-0.5715
-0.5735
-0.5635
-0.5535
-0.5595
-0.561
-0.579
-0.58
-0.571
-0.5735
-0.584
-0.58
-0.5615
-0.565
-0.5745
-0.5695
-0.572
-0.5805
-0.574
-0.572
-0.582
-0.5695
-0.56
-0.5745
-0.5655
-0.5705
-0.578
-0.566
-0.5705
-0.573
-0.5675
-0.561
-0.5665
-0.5655
-0.562
-0.5625
-0.561
-0.5765
-0.589
-0.5885
-0.576
-0.5765
-0.5895
-0.584
-0.582
-0.5825
-0.583
-0.5785
-0.5725
-0.5685
-0.57
-0.58
-0.5705
-0.5615
-0.565
-0.5725
-0.574
-0.574
-0.5815
-0.574
-0.5795
-0.5805
-0.5575
-0.573
-0.584
-0.568
-0.5805
-0.585
-0.5815
-0.5815
-0.573
-0.5655
-0.5695
-0.5715
-0.5785
-0.5755
-0.573
-0.583
-0.5775
-0.587
-0.576
-0.576
