ECG
1.157
1.1625
1.161
1.1655
1.1695
1.1615
1.154
1.1515
1.149
1.147
1.145
1.1405
1.1335
1.134
1.142
1.125
1.11
1.1235
1.1175
1.0955
1.08
1.081
1.0855
1.079
1.0825
1.085
1.083
1.0695
1.062
1.0625
1.0595
1.067
1.063
1.0545
1.055
1.0595
1.0685
1.0655
1.0525
1.044
1.0445
1.042
1.0415
1.06
1.0575
1.0435
1.0335
1.0195
1.023
1.033
1.037
1.041
1.0485
1.0445
1.036
1.0305
1.036
1.042
1.0365
1.0305
1.0235
1.0275
1.0335
1.031
1.0405
1.0385
1.0295
1.046
1.048
1.048
1.0555
1.0445
1.0345
1.0365
1.0395
1.027
1.026
1.02
1.0135
1.03
1.0375
1.0395
1.0285
1.027
1.035
1.0305
1.0305
1.024
1.021
1.031
1.0325
1.0275
1.026
1.03
1.0395
1.0465
1.0405
1.0295
1.031
1.0355
1.033
1.035
1.043
1.0475
1.0525
1.0445
1.0335
1.027
1.026
1.0245
1.018
1.023
1.0215
1.0185
1.022
1.0225
1.022
1.021
1.0235
1.032
1.0185
1.004
1.022
1.0365
1.0355
1.0335
1.024
1.018
1.034
1.037
1.0075
1.0025
1.0295
1.036
1.031
1.033
1.034
1.0305
1.0235
1.0285
1.0425
1.046
1.0395
1.034
1.0295
1.0195
1.0155
1.0105
1.0035
1.0205
1.033
1.035
1.052
1.054
1.0465
1.037
1.0365
1.05
1.0485
1.051
1.057
1.05
1.0325
1.0305
1.0315
1.021
1.023
1.0445
1.0555
1.0415
1.0435
1.045
1.0375
1.032
1.0385
1.044
1.032
1.0285
1.0325
1.036
1.04
1.0405
1.0415
1.048
1.039
1.0425
1.057
1.048
1.0475
1.0415
1.0285
1.032
1.039
1.0435
1.046
1.0545
1.061
1.056
1.046
1.037
1.0415
1.044
1.047
1.0585
1.05
1.046
1.047
1.0345
1.0345
1.0305
1.0385
1.0375
1.03
1.035
1.022
1.026
1.0235
1.015
1.031
1.038
1.036
1.029
1.0275
1.039
1.0355
1.031
1.0365
1.047
1.039
1.0155
1.017
1.027
1.027
1.029
1.032
1.0265
1.026
1.0355
1.0435
1.035
1.0305
1.0315
1.025
1.032
1.0345
1.0275
1.025
1.0245
1.0295
1.0245
1.0255
1.0305
1.02
1.031
1.0375
1.0335
1.03
1.0255
1.037
1.0365
1.0325
1.0275
1.03
1.031
1.032
1.035
1.0255
1.027
1.03
1.032
1.029
1.037
1.0475
1.0465
1.042
1.0245
1.0225
1.0265
1.0175
1.014
1.0145
1.0145
1.023
1.031
1.042
1.033
1.0245
1.0355
1.034
1.0345
1.036
1.0565
1.069
1.0605
1.057
1.057
1.0655
1.0705
1.071
1.064
1.065
1.07
1.0675
1.0775
1.09
1.0825
1.083
1.092
1.095
1.0925
1.0895
1.0895
1.095
1.11
1.0905
1.076
1.0945
1.091
1.0895
1.1025
1.114
1.126
1.119
1.1055
1.1025
1.102
1.0975
1.098
1.099
1.101
1.1095
1.102
1.096
1.1045
1.1095
1.1065
1.099
1.101
1.1065
1.1155
1.115
1.124
1.1235
1.093
1.086
1.0885
1.0925
1.0865
1.0805
1.079
1.075
1.0875
1.099
1.1085
1.1055
1.092
1.0895
1.0955
1.1
1.0945
1.0835
1.084
1.089
1.086
1.0725
1.0625
1.0655
1.0665
1.0575
1.0595
1.0605
1.0495
1.048
1.039
1.033
1.0425
1.055
1.068
1.0635
1.055
1.043
1.028
1.0235
1.031
1.0345
1.028
1.0245
1.0245
1.0225
1.0155
1.016
1.025
1.038
1.0315
1.022
1.0205
1.02
1.009
0.9845
0.995
1.0045
0.996
1.003
1.0015
0.999
1.012
1.019
1.0225
1.0085
1.0105
1.0295
1.025
1.0265
1.0175
1.001
1.0005
1.0
1.0085
1.0025
0.9985
1.015
1.0165
1.0185
1.018
1.012
1.0145
1.013
1.009
1.01
1.003
0.998
1.005
1.005
1.0025
0.9975
0.997
1.0065
1.013
1.0
0.998
1.018
1.023
1.018
1.0075
0.9945
0.999
1.0115
1.0075
1.001
0.997
1.0025
1.007
0.997
0.998
0.998
0.9925
0.9925
0.9945
0.9845
0.9695
0.9745
0.977
0.961
0.9475
0.9375
0.941
0.943
0.9435
0.952
0.949
0.953
0.9425
0.929
0.929
0.936
0.955
0.9715
0.986
1.007
1.0395
1.078
1.1305
1.185
1.2425
1.3
1.332
1.3795
1.425
1.4525
1.49
1.5315
1.5885
1.623
1.636
1.6495
1.654
1.67
1.6725
1.66
1.6535
1.646
1.629
1.62
1.6155
1.6035
1.584
1.527
1.467
1.4215
1.362
1.3045
1.246
1.1875
1.129
1.087
1.0635
1.0375
1.0225
1.0135
1.004
0.995
0.991
0.987
0.9835
0.986
0.998
1.0035
1.003
1.0035
1.0035
1.015
1.009
1.014
1.012
1.007
1.026
1.023
1.033
1.0315
1.015
1.009
1.007
1.014
1.0065
1.018
1.0285
1.018
1.0185
1.0175
1.0155
1.02
1.026
1.0265
1.019
1.012
1.0075
1.005
1.0155
1.029
1.033
1.0345
1.0295
1.0285
1.0275
1.0155
1.0075
1.01
1.007
1.0035
1.014
1.0115
1.014
1.0315
1.03
1.019
1.017
1.016
1.008
1.009
1.0135
1.012
1.0125
1.0135
1.0165
1.016
1.014
1.0115
1.0105
1.0115
1.0285
1.042
1.0305
1.026
1.038
1.0475
1.034
1.0335
1.0395
1.0275
1.0255
1.0355
1.038
1.0305
1.0335
1.0385
1.0325
1.0335
1.041
1.042
1.044
1.036
1.0275
1.0345
1.03
1.0225
1.0295
1.0405
1.0375
1.0395
1.037
1.0365
1.042
1.035
1.047
1.0495
1.0575
1.0685
1.058
1.048
1.0435
1.053
1.0585
1.06
1.0725
1.068
1.0565
1.0515
1.0395
1.0455
1.0505
1.0445
1.0575
1.07
1.0655
1.064
1.068
1.063
1.06
1.067
1.06
1.061
1.0735
1.075
1.072
1.074
1.0885
1.0855
1.0785
1.0775
1.0795
1.095
1.1
1.0875
1.074
1.069
1.0745
1.073
1.0705
1.0865
1.0925
1.1065
1.1145
1.101
1.104
1.113
1.1075
1.0955
1.0945
1.0955
1.097
1.109
1.1185
1.1235
1.127
1.1245
1.1235
1.1235
1.119
1.113
1.113
1.125
1.1365
1.1345
1.149
1.1635
1.1605
1.163
1.161
1.165
1.1785
1.189
1.193
1.193
1.1965
1.1885
1.1765
1.1885
1.191
1.1905
1.195
1.199
1.2085
1.2105
1.2125
1.2245
1.228
1.2205
1.2365
1.233
1.219
1.221
1.223
1.226
1.2215
1.218
1.2375
1.2575
1.2585
1.2625
1.2755
1.279
1.2665
1.263
1.27
1.282
1.287
1.2825
1.2795
1.2835
1.2875
1.2835
1.286
1.2885
1.294
1.303
1.2995
1.2755
1.2655
1.2765
1.2845
1.2815
1.274
1.278
1.2895
1.301
1.299
1.29
1.286
1.2905
1.2805
1.2725
1.2755
1.278
1.282
1.2755
1.27
1.26
1.2385
1.2175
1.222
1.234
1.235
1.234
1.2155
1.1975
1.1995
1.196
1.1835
1.183
1.191
1.186
1.1745
1.1705
1.165
1.1605
1.1475
1.14
1.134
1.1165
1.12
1.117
1.1135
1.121
1.1235
1.119
1.112
1.111
1.098
1.0905
1.0865
1.075
1.0705
1.0755
1.082
1.0835
1.084
1.0765
1.0705
1.0595
1.059
1.063
1.057
1.061
1.054
1.0445
1.0365
1.0375
1.0345
1.028
1.032
1.037
1.052
1.055
1.0545
1.051
1.052
1.054
1.041
1.041
1.0365
1.039
1.0475
1.0305
1.0215
1.0265
1.021
1.011
1.022
1.0485
1.0525
1.043
1.038
1.04
1.0405
1.0355
1.031
1.016
1.012
1.0165
1.0185
1.034
1.038
1.032
1.0335
1.026
1.0195
1.0215
1.026
1.0315
1.027
1.0265
1.0305
1.029
1.0295
1.029
1.0325
1.025
1.015
1.01
1.007
1.0005
1.005
1.012
1.005
1.018
1.0245
1.0225
1.027
1.0275
1.035
1.032
1.02
1.0225
1.032
1.0305
1.018
1.02
1.0285
1.0335
1.037
1.0385
1.038
1.0225
1.0015
0.9925
1.0015
1.0055
1.006
1.018
1.0315
1.034
1.026
1.016
1.017
1.0185
1.009
1.0185
1.029
1.027
1.028
1.028
1.0215
1.0275
1.031
1.0165
1.011
1.0215
1.0365
1.0405
1.035
1.0285
1.021
1.018
1.025
1.026
1.0255
1.0265
1.019
1.01
1.02
1.0305
1.0245
1.019
1.0175
1.024
1.028
1.036
1.031
1.0265
1.0365
1.039
1.0335
1.0185
1.027
1.032
1.0265
1.034
1.029
1.0285
1.036
1.0315
1.035
1.0355
1.025
1.034
1.036
1.025
1.0255
1.0255
1.024
1.0305
1.0435
1.0385
1.0305
1.0385
1.037
1.031
1.0265
1.022
1.026
1.0255
1.021
1.0285
1.0275
1.0225
1.0295
1.0355
1.035
1.032
1.0235
1.019
1.0215
1.0185
1.023
1.019
1.0125
1.0215
1.0265
1.0305
1.035
1.031
1.028
1.032
1.025
1.016
1.0235
1.0335
1.031
1.025
1.0285
1.0225
1.0085
1.0045
1.004
1.0035
1.006
1.007
1.0065
1.0255
1.0375
1.031
1.043
1.0535
1.0655
1.0505
1.0285
1.0315
1.019
1.0175
1.0225
1.027
1.0345
1.0305
1.018
1.015
1.0165
1.016
1.026
1.029
1.025
1.025
1.02
1.018
1.0245
1.0335
1.039
1.0355
1.0305
1.0185
1.0085
1.008
1.0125
1.018
1.015
1.011
1.0195
1.015
1.0025
1.015
1.021
1.0125
1.0145
1.01
1.0045
1.019
1.0435
1.0365
1.0235
1.0285
1.0265
1.0285
1.018
1.009
1.018
1.0195
1.012
1.0115
1.0115
1.01
1.0155
1.019
1.0175
1.021
1.032
1.039
1.0365
1.0385
1.0375
1.033
1.042
1.05
1.0465
1.05
1.0535
1.053
1.0665
1.079
1.0755
1.073
1.0765
1.087
1.0835
1.066
1.0705
1.0695
1.065
1.074
1.0805
1.0815
1.0785
1.0815
1.087
1.083
1.0835
1.101
1.105
1.102
1.1095
1.113
1.1115
1.12
1.132
1.1295
1.121
1.1125
1.1075
1.1025
1.092
1.0865
1.0905
1.095
1.1075
1.109
1.103
1.1035
1.102
1.115
1.1155
1.101
1.101
1.111
1.1115
1.0975
1.092
1.0835
1.079
1.077
1.0665
1.074
1.0845
1.081
1.0845
1.092
1.0945
1.102
1.086
1.072
1.0795
1.083
1.087
1.088
1.0845
1.075
1.083
1.0795
1.065
1.0605
1.0595
1.065
1.065
1.054
1.046
1.0495
1.052
1.056
1.049
1.036
1.0355
1.034
1.0285
1.0245
1.027
1.033
1.0275
1.0165
1.0155
1.02
1.0215
1.0205
1.015
1.016
1.021
1.02
1.026
1.026
1.019
1.0135
1.0055
0.9975
0.9945
1.0015
1.0035
0.9985
0.9935
0.9935
1.0115
1.021
1.0175
1.0155
1.009
1.0
0.9955
0.9975
1.0
1.0035
1.002
1.007
1.013
1.005
1.0015
1.002
1.0025
1.008
1.009
1.005
1.0015
0.992
0.9915
0.997
0.9975
0.993
0.9855
0.986
0.9805
0.987
1.009
1.0
0.9935
1.001
0.9905
0.98
0.973
0.9755
0.983
0.985
0.9795
0.973
0.9745
0.985
1.0095
1.013
1.0045
1.005
0.997
0.991
0.9745
0.9595
0.9675
0.987
0.992
0.9785
0.9605
0.9365
0.934
0.932
0.929
0.924
0.908
0.9235
0.938
0.9305
0.9225
0.9145
0.9195
0.935
0.947
0.963
0.9955
1.037
1.0715
1.1185
1.161
1.1985
1.256
1.3035
1.348
1.388
1.4275
1.4745
1.515
1.566
1.618
1.6435
1.6655
1.69
1.7045
1.7085
1.7055
1.704
1.695
1.6735
1.658
1.655
1.6435
1.629
1.588
1.5295
1.4915
1.4355
1.3655
1.3085
1.253
1.1925
1.126
1.079
1.0585
1.0395
1.03
1.022
1.0025
0.99
0.989
0.988
0.99
0.9885
0.988
0.9915
0.989
0.988
0.9985
1.0125
1.006
1.0025
1.0055
0.9975
0.9865
0.979
0.9895
1.0
0.9985
1.004
1.0205
1.027
1.0225
1.0125
1.001
1.006
1.013
1.0145
1.0185
1.0145
1.009
1.0035
1.0015
1.0055
1.0065
1.001
1.002
1.002
0.986
0.982
0.9785
0.976
0.9805
0.9925
1.0245
1.036
1.0255
1.0175
1.0135
1.016
1.0175
1.014
1.0115
1.0085
1.002
1.0095
1.0085
0.992
0.9895
0.9925
0.998
1.0015
1.007
1.014
1.008
1.0045
1.016
1.0185
1.018
1.0235
1.015
1.0105
1.0135
1.025
1.029
1.0245
1.0255
1.0135
1.0095
1.0175
1.0265
1.029
1.0215
1.017
1.019
1.0245
1.031
1.0295
1.0225
1.021
1.027
1.0295
1.0245
1.012
0.9975
1.0075
1.0225
1.034
1.0385
1.031
1.04
1.044
1.043
1.0355
1.0325
1.0435
1.026
1.0215
1.0275
1.018
1.0175
1.0185
1.0315
1.0335
1.027
1.0375
1.0455
1.044
1.0355
1.0355
1.045
1.066
1.0615
1.0445
1.0515
1.0515
1.051
1.0525
1.057
1.0575
1.057
1.058
1.069
1.0805
1.0695
1.0695
1.0625
1.059
1.0585
1.052
1.054
1.057
1.065
1.0655
1.07
1.0835
1.0915
1.094
1.078
1.0555
1.066
1.0845
1.083
1.0815
1.0845
1.0945
1.103
1.1115
1.116
1.1055
1.09
1.0875
1.09
1.0945
1.1135
1.1215
1.121
1.122
1.1205
1.12
1.124
1.133
1.133
1.1295
1.14
1.1515
1.152
1.1555
1.157
1.152
1.1485
1.1515
1.1675
1.178
1.1765
1.1715
1.1725
1.188
1.19
1.1895
1.2
1.206
1.2135
1.2235
1.2205
1.2135
1.2185
1.224
1.222
1.224
1.2335
1.2385
1.2435
1.241
1.241
1.2495
1.252
1.258
1.264
1.259
1.2605
1.264
1.2535
1.2525
1.257
1.264
1.273
1.2705
1.2695
1.2795
1.288
1.28
1.267
1.2575
1.2525
1.256
1.271
1.29
1.3085
1.316
1.304
1.2915
1.2825
1.2805
1.288
1.2855
1.2795
1.275
1.274
1.2735
1.268
1.269
1.264
1.26
1.2545
1.25
1.255
1.2345
1.221
1.2315
1.2325
1.2245
1.211
1.1965
1.1905
1.1945
1.191
1.188
1.1825
1.1695
1.162
1.148
1.1415
1.137
1.133
1.129
1.139
1.148
1.1345
1.126
1.113
1.101
1.103
1.105
1.094
1.0925
1.1065
1.0995
1.085
1.0855
1.083
1.072
1.069
1.0645
1.0545
1.058
1.0535
1.053
1.059
1.0565
1.0545
1.046
1.031
1.0245
1.038
1.0365
1.0315
1.0385
1.039
1.0375
1.036
1.034
1.0255
1.019
1.031
1.041
1.0335
1.0245
1.0175
1.018
1.0215
1.023
1.0255
1.024
1.014
1.006
1.005
1.006
1.008
1.022
1.0245
1.015
1.0205
1.0185
1.023
1.0185
1.014
1.0255
1.024
1.0235
1.024
1.021
1.014
1.0115
1.0235
1.0175
1.021
1.035
1.0205
1.011
1.0125
1.0095
1.0125
1.0215
1.0275
1.0325
1.013
1.0015
1.0135
1.02
1.029
1.032
1.021
1.0095
1.012
1.016
1.005
1.0
1.015
1.02
1.0145
1.0085
1.002
1.009
1.014
1.014
1.0135
1.0035
0.9895
0.992
1.0105
1.026
1.0285
1.015
1.01
1.014
1.0145
1.0185
1.016
1.0055
0.9925
0.986
0.993
1.0005
1.013
1.0285
1.029
1.0095
0.999
1.0105
1.0125
1.0065
1.014
1.025
1.0195
1.021
1.027
1.0275
1.028
1.0175
1.007
1.01
1.008
1.008
1.0125
1.0185
1.016
1.008
1.0105
1.016
1.0235
1.0205
1.024
1.026
1.0185
1.0085
1.005
1.0085
1.0025
1.0105
1.024
1.034
1.0305
1.021
1.025
1.0245
1.023
1.026
1.0255
1.0155
1.0145
1.0315
1.0585
1.0565
1.029
1.029
1.0235
1.0085
1.015
1.0195
1.0145
1.0185
1.018
1.016
1.018
1.0175
1.026
1.023
1.019
1.023
1.02
1.0185
1.014
1.015
1.0195
1.0175
1.021
1.022
1.013
1.01
1.0165
1.0225
1.027
1.027
1.0245
1.0265
1.027
1.029
1.0305
1.0205
1.0175
1.0215
1.0125
1.0045
1.0125
1.014
1.0105
1.008
1.011
1.0115
1.0075
1.0025
1.0015
1.0105
1.02
1.029
1.0175
1.0105
1.012
1.0115
1.0165
1.027
1.0375
1.0285
1.024
1.013
1.009
1.0115
1.001
0.9975
0.995
0.9985
1.0125
1.021
1.0255
1.037
1.035
1.026
1.0225
1.014
1.0165
1.023
1.0155
1.0065
1.007
1.0185
1.029
1.0165
1.007
1.01
0.9985
0.9855
0.986
0.992
0.9945
0.9925
1.0035
1.01
1.009
1.0125
1.0065
1.005
1.001
1.01
1.0245
1.025
1.029
1.031
1.0275
1.0145
1.0045
1.0025
1.009
1.0175
1.023
1.025
1.014
1.0025
1.0005
0.9965
0.9935
1.006
1.014
1.0175
1.019
1.0125
1.011
1.013
1.0135
1.0135
1.014
1.008
1.006
1.01
1.013
1.0215
1.023
1.0175
1.0155
1.016
1.013
1.0075
1.0185
1.0335
1.0355
1.0305
1.0275
1.035
1.044
1.052
1.05
1.0575
1.0745
1.0675
1.0675
1.0785
1.084
1.082
1.0875
1.0895
1.0795
1.079
1.0755
1.074
1.077
1.0795
1.083
1.086
1.1005
1.099
1.0945
1.099
1.1
1.105
1.107
1.1085
1.1035
1.1
1.1035
1.1055
1.091
1.0755
1.0795
1.0855
1.0885
1.0885
1.091
1.084
1.093
1.1075
1.1135
1.12
1.101
1.101
1.103
1.0925
1.081
1.065
1.0705
1.079
1.075
1.0695
1.07
1.0715
1.0775
1.0745
1.071
1.0695
1.0655
1.077
1.086
1.073
1.062
1.0645
1.0615
1.0595
1.0585
1.0505
1.049
1.0475
1.041
1.0555
1.064
1.0555
1.0535
1.05
1.0445
1.047
1.0495
1.041
1.033
1.024
1.0165
1.0165
1.017
1.0155
1.015
1.005
0.998
1.004
1.0085
1.014
1.012
1.006
1.0095
1.0095
1.0095
1.0105
1.0085
1.0025
0.9935
0.999
0.9925
0.9815
0.985
0.9915
0.996
1.0015
0.9995
0.992
1.006
1.01
1.001
1.0045
1.0045
0.996
0.9905
0.9985
1.002
1.0015
0.997
0.9895
0.991
0.988
0.9795
0.982
0.9885
0.987
0.983
0.981
0.988
0.984
0.977
0.986
0.985
0.9815
0.9815
0.9745
0.976
0.9805
0.9835
0.987
0.9895
0.9935
0.985
0.979
0.984
0.9875
0.991
0.9915
0.996
1.01
0.9995
0.9815
0.9885
0.9845
0.973
0.9725
0.9785
0.983
0.9765
0.968
0.9605
0.9535
0.9485
0.9375
0.9155
0.9135
0.922
0.9035
0.889
0.9005
0.911
0.914
0.907
0.903
0.913
0.9225
0.9395
0.954
0.972
1.0115
1.0415
1.078
1.1275
1.173
1.2395
1.3015
1.354
1.394
1.425
1.4795
1.525
1.57
1.6185
1.6385
1.6745
1.7135
1.7215
1.7335
1.7495
1.7435
1.731
1.7125
1.6895
1.687
1.6855
1.6815
1.652
1.599
1.5555
1.5065
1.434
1.3665
1.3045
1.233
1.173
1.1205
1.074
1.036
1.0225
1.0125
0.994
0.9875
0.984
0.9865
0.986
0.986
0.995
1.0015
0.9995
0.9985
1.003
1.003
0.9995
0.9995
0.998
0.9845
0.9635
0.9605
0.9705
0.977
0.9775
0.9725
0.9905
1.009
1.005
0.9965
0.986
0.986
0.99
0.998
1.0085
1.007
0.9985
0.9975
0.9975
0.9955
0.9965
0.9965
0.994
0.9875
0.992
0.9945
0.9905
0.9935
0.989
0.9845
0.9775
0.98
0.9855
0.9865
1.004
1.0065
1.004
1.0015
1.012
1.028
1.002
0.989
0.9985
1.0055
1.0095
1.0155
1.016
1.006
1.001
1.0015
1.006
1.004
1.017
1.0115
0.9855
0.9845
0.987
0.9835
0.9875
1.011
1.0235
1.0245
1.023
1.016
1.0175
1.019
1.024
1.0295
1.0235
1.022
1.024
1.0215
1.0285
1.035
1.0305
1.03
1.027
1.0195
1.0205
1.0215
1.026
1.0255
1.0125
1.0135
1.0095
1.002
0.9985
0.9845
0.999
1.0185
1.0285
1.043
1.0415
1.042
1.0395
1.0365
1.038
1.0375
1.044
1.039
1.0345
1.035
1.0245
1.0285
1.037
1.029
1.0205
1.03
1.047
1.0515
1.0485
1.053
1.053
1.0505
1.0585
1.062
1.0675
1.065
1.0555
1.0535
1.054
1.063
1.064
1.055
1.053
1.06
1.0665
1.0665
1.071
1.082
1.0835
1.079
1.077
1.0785
1.077
1.0875
1.0875
1.081
1.0945
1.102
1.1135
1.113
1.0915
1.085
1.091
1.104
1.1115
1.116
1.1165
1.117
1.123
1.1215
1.1255
1.1255
1.12
1.117
1.12
1.1255
1.135
1.139
1.1405
1.151
1.145
1.141
1.15
1.1525
1.147
1.1495
1.1615
1.1745
1.1815
1.177
1.1815
1.189
1.186
1.1855
1.187
1.197
1.211
1.2215
1.2275
1.222
1.219
1.2225
1.2315
1.2305
1.2315
1.239
1.2345
1.242
1.249
1.246
1.2465
1.2575
1.2825
1.29
1.2825
1.284
1.277
1.2655
1.2655
1.265
1.266
1.271
1.271
1.277
1.2865
1.2865
1.2815
1.2775
1.2815
1.292
1.2935
1.294
1.3
1.298
1.2945
1.2875
1.2865
1.2895
1.2885
1.2895
1.2855
1.287
1.278
1.2675
1.2605
1.2615
1.2765
1.274
1.2675
1.267
1.2625
1.2465
1.2425
1.2405
1.2365
1.2475
1.2375
1.2185
1.219
1.2115
1.193
1.19
1.1945
1.1965
1.1865
1.172
1.1605
1.151
1.147
1.1405
1.1375
1.137
1.14
1.1355
1.123
1.118
1.114
1.112
1.112
1.1145
1.1045
1.095
1.098
1.0865
1.0735
1.069
1.07
1.075
1.073
1.066
1.058
1.069
1.0705
1.058
1.0605
1.0545
1.0455
1.0325
1.023
1.0185
1.0155
1.0135
1.0155
1.031
1.0485
1.074
1.0705
1.0425
1.0415
1.0375
1.034
1.039
1.0375
1.0375
1.0315
1.025
1.0125
1.006
1.015
1.0265
1.0335
1.0155
1.004
1.0255
1.0285
1.015
1.0165
1.0165
1.0175
1.0185
1.0155
1.0185
1.018
1.01
1.0075
1.0185
1.0205
1.0115
1.0095
1.0105
1.013
1.01
1.0185
1.0245
1.0175
1.012
1.019
1.023
1.009
1.013
1.0185
1.0185
1.0175
1.0165
1.012
1.0075
1.006
1.0
0.994
0.9905
1.005
1.019
1.025
1.019
1.0165
1.027
1.0275
1.018
1.012
1.0155
1.013
1.0095
1.0155
1.0275
1.023
1.0155
1.024
1.023
1.017
1.004
1.001
1.0105
1.002
0.9915
1.004
1.013
1.01
1.01
1.0165
1.02
1.016
1.019
1.0185
1.0175
1.014
1.008
1.008
1.0095
1.0205
1.0315
1.0325
1.0345
1.027
1.0315
1.045
1.025
1.012
1.021
1.022
1.0125
1.007
1.014
1.0125
1.012
1.0155
1.0135
1.013
1.013
1.0145
1.0175
1.019
1.02
1.0215
1.019
1.017
1.0185
1.0175
1.0205
1.0225
1.0215
1.023
1.032
1.037
1.04
1.0505
1.0415
1.0175
1.0095
1.0195
1.0175
1.0065
1.004
1.009
1.016
1.021
1.0135
1.006
1.0155
1.0175
1.0175
1.0095
1.0075
1.01
1.0045
1.009
1.0045
1.0155
1.0395
1.0345
1.0285
1.03
1.0275
1.0265
1.026
1.034
1.0365
1.0315
1.029
1.0305
1.0215
1.0165
1.016
1.012
1.019
1.022
1.021
1.014
1.0155
1.018
1.023
1.0265
1.019
1.0265
1.028
1.03
1.022
0.9985
0.9965
1.009
1.015
1.008
1.003
1.0
0.9995
1.0015
1.005
1.0125
1.0205
1.0295
1.024
1.0195
1.0235
1.0355
1.0535
1.04
1.02
1.016
1.014
1.016
1.022
1.025
1.016
1.011
1.015
1.014
1.014
1.016
1.008
1.008
1.0155
1.0075
0.999
1.001
1.006
1.01
1.019
1.0285
1.0265
1.0305
1.033
1.0205
1.016
1.018
1.0195
1.017
1.011
1.0125
1.0095
1.0165
1.013
1.01
1.0205
1.025
1.0365
1.027
1.014
1.0185
1.017
1.0135
1.0125
1.0175
1.03
1.033
1.044
1.051
1.041
1.046
1.0535
1.0515
1.0505
1.056
1.067
1.0735
1.075
1.0715
1.0645
1.064
1.0725
1.0775
1.0755
1.071
1.0735
1.0905
1.086
1.0705
1.0735
1.0755
1.083
1.0835
1.0865
1.1005
1.1075
1.115
1.1205
1.11
1.0945
1.0855
1.084
1.09
1.094
1.0995
1.103
1.1055
1.104
1.1005
1.094
1.096
1.1105
1.11
1.109
1.11
1.1125
1.122
1.122
1.112
1.114
1.1045
1.082
1.071
1.064
1.0605
1.0595
1.0685
1.0655
1.0655
1.0775
1.0865
1.093
1.0895
1.085
1.0765
1.0705
1.0665
1.07
1.081
1.0775
1.0735
1.0675
1.0605
1.0685
1.058
1.038
1.0605
1.078
1.0605
1.0365
1.029
1.0355
1.0375
1.0355
1.0285
1.0175
1.0115
1.015
1.022
1.027
1.022
1.008
1.0095
1.0115
1.0115
1.0125
1.007
1.0035
1.0055
1.015
1.0125
1.01
1.0005
0.987
0.9925
0.992
0.989
0.988
0.995
1.0075
1.0045
0.9875
0.976
0.983
0.991
0.993
1.0005
1.0095
1.007
1.0035
1.0035
1.0025
1.002
0.998
1.0005
1.0045
0.9965
0.9965
1.005
1.0035
0.993
0.993
1.008
1.007
0.9905
0.991
0.9945
0.993
1.0005
1.0025
0.988
0.9645
0.9675
0.977
0.985
0.988
0.984
0.9825
0.979
0.979
0.982
0.991
0.986
0.982
0.983
0.98
0.9825
0.984
0.981
0.9795
0.9805
0.977
0.9725
0.971
0.9755
0.976
0.969
0.9545
0.934
0.919
0.895
0.873
0.8645
0.8805
0.901
0.905
0.9135
0.911
0.9045
0.9035
0.9105
0.919
0.9415
1.001
1.052
1.0985
1.142
1.178
1.2385
1.297
1.343
1.382
1.423
1.488
1.555
1.6015
1.6405
1.6745
1.6975
1.7175
1.738
1.7555
1.78
1.776
1.7525
1.734
1.7205
1.7125
1.69
1.685
1.655
1.5905
1.5445
1.5
1.4305
1.363
1.305
1.222
1.1485
1.088
1.0565
1.0435
1.017
1.004
0.989
0.978
0.982
0.9775
0.975
0.9745
0.985
1.0045
1.01
0.9995
0.9845
0.984
0.993
0.9995
0.9895
0.9765
0.9785
0.986
0.987
0.995
1.0135
1.009
0.9905
0.997
1.0055
1.007
1.0075
1.017
1.0255
1.013
1.0125
1.01
0.997
0.985
0.984
0.995
1.001
1.004
0.994
0.979
0.973
0.98
0.984
0.9805
0.9925
0.9975
0.9955
1.002
1.003
1.0025
1.0045
0.9955
0.99
0.992
0.998
1.0005
0.9985
1.007
1.005
1.0115
1.0115
1.002
1.0075
1.0065
1.0015
0.995
0.9995
1.0095
1.0085
1.0035
1.01
1.0115
0.995
0.998
1.009
1.011
1.0195
1.0045
0.986
0.996
0.997
0.9945
1.012
1.022
1.0185
1.0255
1.036
1.0525
1.0575
1.0355
1.028
1.0335
1.028
1.0295
1.03
1.019
1.018
1.0295
1.0315
1.0325
1.0315
1.021
1.0275
1.0255
1.022
1.026
1.023
1.0355
1.0445
1.043
1.043
1.0315
1.03
1.0335
1.0325
1.049
1.057
1.0455
1.048
1.05
1.0405
1.048
1.056
1.051
1.047
1.039
1.0415
1.044
1.0405
1.0515
1.054
1.0555
1.056
1.0485
1.0515
1.053
1.056
1.061
1.062
1.057
1.057
1.0665
1.068
1.077
1.0825
1.083
1.086
1.0775
1.081
1.0765
1.0625
1.073
1.086
1.0845
1.0755
1.083
1.1015
1.1015
1.0985
1.105
1.1085
1.099
1.099
1.112
1.1125
1.111
1.1095
1.1145
1.126
1.122
1.125
1.1365
1.145
1.149
1.1535
1.1605
1.161
1.156
1.157
1.171
1.1605
1.136
1.147
1.1565
1.158
1.168
1.175
1.187
1.196
1.211
1.219
1.2195
1.2295
1.2375
1.238
1.2275
1.217
1.219
1.233
1.239
1.238
1.2335
1.231
1.2415
1.243
1.2505
1.2675
1.271
1.2725
1.272
1.267
1.272
1.2765
1.276
1.2705
1.2695
1.2765
1.2745
1.279
1.288
1.2875
1.2825
1.297
1.3085
1.306
1.3095
1.3055
1.312
1.313
1.309
1.311
1.3035
1.3095
1.305
1.2835
1.2865
1.293
1.2995
1.3005
1.2895
1.2855
1.2925
1.293
1.276
1.272
1.268
1.264
1.276
1.2695
1.254
1.2555
1.2495
1.229
1.23
1.2315
1.222
1.2105
1.196
1.1985
1.197
1.1975
1.1945
1.178
1.169
1.1645
1.1595
1.153
1.1415
1.141
1.1455
1.129
1.123
1.123
1.1215
1.1245
1.1145
1.0905
1.074
1.0815
1.089
1.0875
1.081
1.0845
1.085
1.0765
1.073
1.0685
1.0655
1.058
1.051
1.041
1.0415
1.0595
1.0675
1.071
1.065
1.052
1.054
1.0475
1.044
1.0505
1.0485
1.04
1.031
1.026
1.019
1.016
1.019
1.025
1.032
1.0335
1.029
1.029
1.028
1.0265
1.024
1.016
1.0205
1.0245
1.0185
1.02
1.025
1.026
1.0275
1.0305
1.0315
1.0305
1.0275
1.0265
1.022
1.0175
1.0095
1.0105
1.0145
1.0145
1.012
1.0035
1.0175
1.027
1.0355
1.0385
1.0195
1.015
1.021
1.036
1.0265
1.0135
1.0285
1.0275
1.01
1.002
0.999
0.998
1.007
1.0115
1.0095
1.003
1.0
1.0035
0.997
0.9885
0.987
0.998
1.002
1.006
1.0235
1.0335
1.0325
1.0335
1.0225
0.9935
0.9855
0.9985
1.0055
1.002
1.0045
1.013
1.0265
1.033
1.018
1.0135
1.016
1.018
1.021
1.0145
1.0095
1.0125
1.011
1.01
1.0255
1.025
1.027
1.0285
1.0255
1.028
1.0135
1.013
1.019
1.0115
1.0105
1.013
1.0085
1.0165
1.02
1.0115
1.0055
1.007
1.018
1.0185
1.025
1.0345
1.035
1.0315
1.025
1.0275
1.026
1.0155
1.0115
1.019
1.032
1.037
1.0355
1.0445
1.0325
1.017
1.0235
1.0155
1.0075
1.013
1.02
1.0215
1.0235
1.0205
1.013
1.0095
1.0195
1.0345
1.03
1.0305
1.031
1.026
1.03
1.027
1.027
1.022
1.015
1.0185
1.033
1.049
1.041
1.019
1.0045
1.01
1.0175
1.012
1.0085
1.0155
1.026
1.024
1.018
1.017
1.0125
1.016
1.0265
1.029
1.021
1.0175
1.0165
1.0085
1.0035
1.0075
1.02
1.0275
1.0245
1.0245
1.029
1.0175
1.012
1.025
1.025
1.019
1.0205
1.0215
1.022
1.0215
1.016
1.018
1.0315
1.033
1.027
1.0245
1.0175
1.018
1.026
1.0235
1.0275
1.0265
1.034
1.0425
1.0165
1.0105
1.013
1.0095
1.0165
1.025
1.04
1.0485
1.049
1.0485
1.05
1.055
1.0515
1.0505
1.063
1.078
1.0705
1.059
1.0645
1.07
1.0805
1.0775
1.0735
1.085
1.0905
1.0865
1.0805
1.084
1.0825
1.0805
1.0845
1.083
1.0735
1.0745
1.078
1.0695
1.0705
1.0685
1.0695
1.067
1.058
1.076
1.0965
1.0965
1.0845
1.084
1.0835
1.074
1.082
1.094
1.0885
1.08
1.071
1.05
1.044
1.057
1.075
1.0835
1.0825
1.0875
1.081
1.084
1.0985
1.087
1.0845
1.093
1.0975
1.097
1.079
1.082
1.088
1.0765
1.0825
1.0865
1.078
1.0755
1.0625
1.0605
1.0755
1.072
1.0605
1.0555
1.064
1.0695
1.06
1.067
1.074
1.07
1.0605
1.046
1.046
1.0485
1.044
1.037
1.039
1.0325
1.017
1.013
1.014
1.014
1.0005
1.002
1.0075
0.9975
1.002
1.0175
1.0265
1.018
1.0095
1.0085
1.0045
0.998
0.9995
1.0075
1.008
1.0045
0.999
0.997
0.998
0.9995
0.995
0.989
0.987
0.986
0.995
1.007
1.019
1.016
0.999
0.995
0.9985
1.004
1.002
0.9985
1.0095
1.0215
1.013
0.9915
0.997
1.004
1.0005
0.9975
0.9855
0.9985
1.008
1.006
1.0015
0.9785
0.963
0.961
0.9655
0.975
0.9865
1.006
1.02
1.0095
0.989
0.982
0.9835
0.987
0.9905
0.9925
0.9855
0.9875
0.988
0.98
0.9855
0.987
0.973
0.962
0.961
0.9425
0.9245
0.914
0.908
0.906
0.8915
0.8965
0.9065
0.9035
0.9065
0.9065
0.9135
0.936
0.947
0.9535
0.984
1.0275
1.072
1.1125
1.1545
1.2105
1.265
1.3215
1.36
1.3985
1.458
1.4985
1.5355
1.5875
1.6355
1.6775
1.7035
1.7135
1.7255
1.7415
1.75
1.7195
1.689
1.672
1.654
1.6445
1.635
1.629
1.5845
1.5145
1.4655
1.4105
1.3665
1.3105
1.228
1.1695
1.1095
1.066
1.0305
0.9995
1.0095
1.0085
0.978
0.966
0.9815
0.975
0.964
0.967
0.9665
0.962
0.9645
0.9875
1.009
1.019
1.0115
1.005
1.0
0.997
1.0045
1.002
1.0065
1.0005
0.9965
1.0075
1.0155
1.019
1.0205
1.027
1.0235
1.0145
1.011
1.0105
1.008
0.9975
0.9825
0.984
1.002
1.004
1.0025
1.0135
1.008
1.003
1.009
1.0155
1.0215
1.0215
1.017
1.012
1.0065
1.008
1.0165
1.013
1.004
1.003
1.0145
1.0175
1.015
1.021
1.0125
1.0105
1.017
1.0145
1.0145
1.0125
1.012
1.0225
1.028
1.025
1.028
1.0185
1.011
1.006
0.983
0.9885
1.005
1.017
1.0225
1.019
1.034
1.042
1.0325
1.027
1.0355
1.0295
1.0305
1.0425
1.0305
1.024
1.022
1.0245
1.032
1.025
1.0165
1.0145
1.0195
1.0245
1.0305
1.039
1.041
1.0395
1.0345
1.036
1.0415
1.0435
1.044
1.029
1.015
1.024
1.0435
1.0535
1.0575
1.061
1.059
1.0575
1.057
1.0565
1.059
1.048
1.0345
1.039
1.0495
1.0485
1.047
1.062
1.066
1.0585
1.0645
1.072
1.067
1.063
1.078
1.0665
1.046
1.054
1.06
1.06
1.0615
1.0645
1.0595
1.063
1.078
1.077
1.0775
1.0765
1.0745
1.0675
1.0585
1.0695
1.0725
1.0805
1.092
1.0935
1.1015
1.104
1.105
1.117
1.117
1.0995
1.107
1.1085
1.0985
1.1045
1.103
1.1225
1.136
1.1145
1.1075
1.111
1.1185
1.123
1.114
1.113
1.1275
1.1385
1.1485
1.144
1.1435
1.1495
1.153
1.1675
1.18
1.1795
1.176
1.182
1.183
1.1855
1.196
1.1945
1.1925
1.2
1.191
1.1835
1.186
1.1955
1.212
1.221
1.229
1.237
1.226
1.216
1.223
1.2255
1.2405
1.2455
1.242
1.259
1.284
1.2885
1.2635
1.2515
1.2535
1.262
1.261
1.2765
1.298
1.3025
1.316
1.302
1.3015
1.306
1.293
1.293
1.294
1.2925
1.292
1.293
1.2985
1.3035
1.296
1.295
1.303
1.295
1.292
1.3075
1.3095
1.3075
1.3005
1.2825
1.2785
1.2805
1.2715
1.265
1.275
1.2745
1.2825
1.283
1.265
1.265
1.2555
1.2505
1.2325
1.2175
1.2315
1.22
1.218
1.2115
1.2055
1.221
1.2045
1.1875
1.1785
1.18
1.1915
1.187
1.1765
1.163
1.157
1.1475
1.144
1.152
1.1405
1.1255
1.122
1.1165
1.1075
1.0875
1.0805
1.076
1.065
1.0605
1.0625
1.0565
1.0535
1.076
1.083
1.079
1.087
1.081
1.0755
1.0845
1.0755
1.0645
1.067
1.062
1.053
1.05
1.046
1.044
1.042
1.0325
1.0185
1.0165
1.032
1.0475
1.0575
1.048
1.045
1.0495
1.041
1.039
1.0365
1.04
1.038
1.0305
1.0385
1.042
1.0405
1.036
1.0315
1.0315
1.038
1.03
1.0075
1.0145
1.024
1.015
1.007
1.0255
1.0285
1.029
1.051
1.038
1.027
1.026
1.0165
1.0155
1.012
1.0175
1.0255
1.0245
1.02
1.0105
1.0025
1.0005
1.007
1.0135
1.02
1.0205
1.026
1.034
1.027
1.0215
1.017
1.012
1.014
1.022
1.017
1.0135
1.0155
1.0095
1.0045
1.0025
1.0065
1.004
1.004
1.0085
1.0175
1.0305
1.038
1.0225
1.0145
1.017
1.004
1.015
1.0275
1.027
1.005
1.008
1.0385
1.0245
1.015
1.0205
1.0175
1.025
1.029
1.025
1.0155
1.0085
1.0045
0.9995
1.015
1.0295
1.033
1.0335
1.029
1.033
1.04
1.0345
1.0375
1.0395
1.027
1.021
1.0175
1.0225
1.025
1.026
1.033
1.0345
1.032
1.018
1.005
0.9945
1.009
1.032
1.0235
1.015
1.0055
1.013
1.034
1.0225
1.0125
1.024
1.0285
1.0275
1.034
1.0325
1.0235
1.022
1.023
1.025
1.0295
1.039
1.0445
1.0405
1.032
1.0245
1.0185
1.018
1.0255
1.0175
1.0205
1.034
1.0225
1.0175
1.024
1.033
1.03
1.023
1.0265
1.023
1.0105
1.021
1.027
1.011
1.018
1.025
1.0315
1.0445
1.052
1.0505
1.0265
1.0125
1.031
1.032
1.0255
1.0265
1.028
1.048
1.0385
1.018
1.028
1.0345
1.0305
1.0185
1.002
0.999
1.005
1.005
1.005
1.0305
1.052
1.048
1.0325
1.0195
1.023
1.03
1.021
1.018
1.029
1.0155
1.0185
1.03
1.013
1.008
1.017
1.0205
1.0325
1.044
1.0345
1.0345
1.0185
0.997
1.005
1.0125
1.0225
1.029
1.027
1.0345
1.031
1.0125
0.9975
1.0095
1.021
1.012
1.0175
1.025
1.023
1.006
0.9985
1.012
1.0115
1.0115
1.0095
1.023
1.041
1.0295
1.0345
1.043
1.0415
1.043
1.034
1.034
1.0365
1.0335
1.018
1.024
1.0525
1.0535
1.0545
1.0495
1.03
1.032
1.0515
1.051
1.0515
1.061
1.069
1.0785
1.0735
1.065
1.063
1.0645
1.0705
1.091
1.0955
1.0745
1.0695
1.0695
1.07
1.0665
1.0585
1.068
1.081
1.0835
1.082
1.0785
1.071
1.0665
1.064
1.0825
1.0985
1.0995
1.1135
1.1065
1.0905
1.0905
1.087
1.087
1.086
1.0815
1.0855
1.0805
1.081
1.0755
1.062
1.0715
1.075
1.088
1.089
1.066
1.072
1.074
1.07
1.0795
1.0865
1.089
1.088
1.084
1.069
1.065
1.0685
1.075
1.077
1.0805
1.0885
1.076
1.073
1.0875
1.095
1.0845
1.0815
1.0725
1.0435
1.0395
1.0495
1.0535
1.052
1.0515
1.058
1.0565
1.057
1.0465
1.0405
1.0485
1.0335
1.018
1.0235
1.0195
1.0135
1.019
1.012
1.0005
1.0035
1.0075
1.0095
1.021
1.0135
1.0005
1.0015
1.007
1.028
1.0395
1.0235
1.002
1.0045
1.0065
1.002
1.006
1.01
1.022
1.0225
1.0115
1.0065
1.013
1.02
1.0115
1.0025
1.0105
1.013
1.0035
1.005
1.014
1.0055
1.0025
1.0125
1.0065
1.004
0.986
0.982
0.9995
1.0
0.9945
0.993
0.9925
0.992
1.0005
1.0135
1.022
1.0105
1.008
1.0175
1.0095
1.0025
1.0115
1.0035
0.9915
0.98
0.968
0.982
0.9925
0.9945
1.0015
1.011
1.011
0.9985
0.9835
0.975
0.985
1.0035
0.9925
0.966
0.9605
0.956
0.9325
0.9145
0.9145
0.909
0.9145
0.9145
0.9185
0.9245
0.9175
0.932
0.94
0.9595
0.9695
0.9795
1.0265
1.068
1.099
1.1365
1.1865
1.242
1.296
1.3165
1.3175
1.363
1.425
1.479
1.547
1.605
1.626
1.653
1.6805
1.671
1.6705
1.678
1.6795
1.6715
1.649
1.638
1.626
1.6155
1.616
1.589
1.52
1.4705
1.4455
1.382
1.3205
1.2695
1.197
1.135
1.0735
1.0375
1.03
1.022
1.016
0.9995
0.993
1.0055
0.9975
0.9825
0.9845
0.9905
0.993
0.9835
0.988
0.991
0.984
0.9955
1.0025
0.9995
0.9995
1.0025
0.9975
1.009
1.0265
1.0255
1.0185
1.006
0.9995
1.006
1.008
1.0095
1.005
0.993
1.005
1.0145
1.011
1.0025
1.006
1.0245
1.0225
1.0215
1.0255
1.024
1.0105
1.0085
1.008
1.0035
1.0145
1.0065
1.014
1.0075
1.005
1.018
1.0005
1.0035
1.0105
1.0185
1.0155
1.005
1.0
0.9955
1.0005
0.997
0.9965
1.0075
1.0325
1.0385
1.03
1.0245
1.0105
1.0085
1.0165
1.0095
1.015
1.029
1.0285
1.027
1.0265
1.029
1.0215
1.023
1.018
0.999
1.0075
1.037
1.0525
1.0475
1.0295
1.0165
1.027
1.034
1.032
1.0305
1.0295
1.026
1.007
0.9935
0.9955
1.0075
1.0225
1.0405
1.059
1.0595
1.045
1.0445
1.047
1.042
1.048
1.048
1.0435
1.042
1.042
1.0365
1.035
1.037
1.029
1.0325
1.037
1.0415
1.042
1.0415
1.049
1.051
1.049
1.0505
1.0435
1.038
1.0495
1.0545
1.0625
1.06
1.058
1.0665
1.0625
1.0585
1.054
1.0585
1.0645
1.059
1.0495
1.046
1.054
1.0665
1.064
1.0615
1.0625
1.0605
1.075
1.0915
1.094
1.086
1.081
1.088
1.081
1.0795
1.0945
1.0965
1.09
1.0925
1.105
1.105
1.1005
1.1005
1.102
1.106
1.111
1.107
1.1075
1.113
1.11
1.112
1.1235
1.1365
1.123
1.1175
1.137
1.1405
1.135
1.136
1.146
1.1555
1.156
1.1525
1.155
1.149
1.148
1.1595
1.157
1.158
1.1745
1.1925
1.203
1.1925
1.192
1.204
1.196
1.198
1.196
1.192
1.2025
1.2085
1.2065
1.2005
1.207
1.214
1.2145
1.206
1.203
1.226
1.2445
1.25
1.2495
1.253
1.259
1.25
1.261
1.27
1.2695
1.2795
1.268
1.256
1.2555
1.2655
1.2805
1.281
1.2795
1.2815
1.2765
1.276
1.286
1.286
1.286
1.2815
1.2645
1.2675
1.2675
1.2625
1.266
1.2735
1.276
1.27
1.2665
1.263
1.262
1.2605
1.265
1.2625
1.25
1.241
1.2375
1.236
1.226
1.2285
1.2405
1.232
1.202
1.204
1.217
1.2075
1.201
1.195
1.198
1.1955
1.1855
1.169
1.165
1.165
1.1515
1.1445
1.133
1.125
1.1265
1.116
1.1055
1.129
1.1405
1.1195
1.118
1.121
1.119
1.1135
1.105
1.093
1.0805
1.0885
1.0765
1.066
1.0695
1.0565
1.0535
1.0545
1.06
1.07
1.065
1.0495
1.0465
1.05
1.0435
1.03
1.032
1.037
1.0315
1.0445
1.0505
1.038
1.04
1.038
1.0235
1.024
1.0445
1.045
1.033
1.037
1.031
1.0295
1.0275
1.014
1.013
1.004
1.0005
1.019
1.0355
1.04
1.0155
1.006
1.025
1.017
1.0045
1.01
1.0125
1.016
1.026
1.031
1.0225
1.0245
1.0295
1.023
1.0235
1.018
1.017
1.0235
1.0185
1.0095
1.002
1.0025
1.0105
1.0115
1.007
1.0015
1.01
1.0125
1.0095
1.03
1.0255
1.0065
1.0085
1.0195
1.0355
1.035
1.0265
1.018
1.0205
1.0245
1.018
1.0175
1.019
1.032
1.028
1.02
1.01
1.0005
1.0085
1.01
1.016
1.0215
1.0285
1.0245
1.022
1.0165
0.9965
0.994
1.001
1.009
1.0155
1.0245
1.0215
1.0015
0.996
0.9995
1.0105
1.0195
1.019
1.031
1.028
1.015
1.018
1.009
0.998
0.9995
0.991
0.9935
0.998
1.017
1.04
1.0285
1.0135
1.0125
1.0135
0.999
1.0055
1.0195
1.014
1.0155
1.0255
1.035
1.0425
1.0465
1.0325
1.015
1.007
1.0035
1.0165
1.0225
1.026
1.029
1.0215
1.031
1.031
1.025
1.026
1.027
1.0345
1.0285
1.028
1.04
1.043
1.0365
1.028
1.023
1.006
1.002
1.0195
1.024
1.0215
1.016
1.0265
1.0445
1.0355
1.0295
1.0205
1.011
1.0225
1.0255
1.0145
1.0125
1.014
1.02
1.022
1.0225
1.0235
1.0105
1.0205
1.0345
1.0305
1.0165
1.016
1.023
1.0165
1.021
1.0195
1.018
1.0165
1.016
1.011
1.0065
1.007
0.996
1.0025
1.012
1.018
1.0265
1.026
1.0275
1.024
1.0105
1.001
1.0055
1.008
1.005
1.016
1.023
1.025
1.0245
1.012
1.0155
1.0155
1.01
1.0205
1.034
1.036
1.029
1.0285
1.032
1.0455
1.0475
1.0335
1.0295
1.0315
1.038
1.044
1.0595
1.052
1.0315
1.0435
1.0505
1.0555
1.056
1.0515
1.055
1.0645
1.0575
1.0495
1.0775
1.075
1.0665
1.078
1.0745
1.0765
1.077
1.073
1.0705
1.0685
1.0665
1.069
1.072
1.0755
1.081
1.076
1.068
1.063
1.0605
1.0605
1.0645
1.0555
1.059
1.0805
1.077
1.069
1.068
1.07
1.0745
1.074
1.079
1.084
1.083
1.079
1.068
1.063
1.057
1.0475
1.0575
1.059
1.07
1.084
1.078
1.074
1.0685
1.0725
1.0775
1.076
1.08
1.0785
1.0575
1.0515
1.0685
1.0725
1.08
1.08
1.0605
1.051
1.0595
1.0705
1.0685
1.0645
1.0625
1.063
1.065
1.0545
1.055
1.0605
1.053
1.0465
1.0315
1.0275
1.03
1.0285
1.028
1.0275
1.025
1.013
1.012
1.012
1.002
1.0065
1.0205
1.0285
1.028
1.024
1.023
1.0165
1.003
0.9925
0.991
0.9885
0.9865
0.9985
1.006
1.0045
1.0125
1.013
1.001
0.9945
0.9945
0.9915
0.979
0.9775
0.978
0.976
0.9865
0.9975
1.0035
1.005
1.0005
0.999
1.0075
0.9985
1.0
1.011
0.996
1.0
1.0085
1.0045
0.9975
0.9945
0.9925
0.989
0.9845
0.9835
0.9845
0.98
0.9935
0.9845
0.968
0.98
0.9715
0.978
0.9865
0.9845
0.9965
0.991
0.9825
0.9785
0.9825
0.979
0.983
0.998
0.9845
0.982
0.984
0.9675
0.9505
0.9485
0.948
0.927
0.926
0.9245
0.915
0.9225
0.9165
0.9115
0.92
0.915
0.9185
0.9335
0.9365
0.949
0.9675
1.0065
1.048
1.065
1.104
1.1515
1.196
1.234
1.2705
1.3285
1.381
1.43
1.4725
1.499
1.5365
1.5705
1.5905
1.6135
1.6285
1.632
1.6505
1.6675
1.6585
1.638
1.613
1.5995
1.593
1.5975
1.585
1.5305
1.4835
1.4405
1.377
1.3175
1.2595
1.1945
1.139
1.093
1.049
1.0225
1.0105
0.9985
1.0025
1.001
0.997
1.0
0.9955
0.9885
0.9865
0.9975
0.9925
0.9835
0.983
0.9875
0.9985
0.999
1.0
1.0025
0.9965
0.9895
0.9885
1.0
1.013
0.9955
0.9805
0.983
0.9835
0.994
0.997
1.004
1.0075
1.0015
0.998
0.9945
0.999
1.003
1.011
1.0195
1.016
1.0025
0.998
0.9915
0.9965
1.004
0.9815
0.9805
0.9915
0.997
1.008
1.0065
1.007
1.003
0.9915
0.995
1.0015
1.001
1.0035
1.0095
1.006
1.0055
1.0155
1.007
0.9985
0.9995
0.998
1.0005
0.991
0.9895
0.998
1.001
1.005
0.9975
1.0035
1.011
1.017
1.012
1.001
1.0165
1.009
1.008
1.012
1.002
1.0055
1.014
1.023
1.019
1.011
1.02
1.0305
1.0185
1.0105
1.0075
1.011
1.0185
1.0215
1.031
1.036
1.041
1.034
1.019
1.0185
1.02
1.016
1.0205
1.0285
1.033
1.024
1.0155
1.0295
1.039
1.042
1.045
1.0325
1.0205
1.019
1.01
1.01
1.019
1.0205
1.0325
1.038
1.033
1.03
1.028
1.029
1.03
1.034
1.0425
1.052
1.0495
1.052
1.0535
1.0525
1.0465
1.041
1.0525
1.0515
1.0535
1.0535
1.054
1.057
1.059
1.061
1.0535
1.051
1.0495
1.0495
1.053
1.0575
1.064
1.076
1.07
1.067
1.081
1.082
1.0855
1.0845
1.0755
1.076
1.0785
1.08
1.087
1.083
1.08
1.0925
1.098
1.105
1.1045
1.0915
1.0895
1.0965
1.1095
1.123
1.121
1.1215
1.1215
1.1265
1.132
1.12
1.123
1.13
1.1255
1.126
1.1355
1.1535
1.167
1.162
1.171
1.1895
1.208
1.2105
1.182
1.1735
1.175
1.169
1.1745
1.1795
1.1855
1.1955
1.2045
1.2085
1.2075
1.205
1.204
1.196
1.194
1.199
1.207
1.227
1.2215
1.218
1.2325
1.234
1.2315
1.228
1.2285
1.23
1.23
1.234
1.2405
1.2655
1.2685
1.248
1.2435
1.2465
1.2435
1.246
1.264
1.2705
1.265
1.2595
1.2685
1.2695
1.271
1.284
1.269
1.2515
1.252
1.2545
1.246
1.2435
1.254
1.2475
1.2435
1.2465
1.237
1.2275
1.222
1.217
1.214
1.2075
1.203
1.2025
1.1985
1.1905
1.187
1.184
1.1745
1.169
1.165
1.172
1.173
1.1655
1.1555
1.1335
1.1295
1.1375
1.1275
1.111
1.113
1.1045
1.089
1.079
1.073
1.0795
1.0825
1.077
1.0655
1.056
1.049
1.05
1.069
1.0705
1.0625
1.079
1.0745
1.0555
1.0515
1.045
1.039
1.0345
1.0365
1.0415
1.041
1.0335
1.03
1.0265
1.0175
1.0175
1.0205
1.0265
1.03
1.0275
1.023
1.02
1.024
1.021
1.023
1.0335
1.0215
1.0035
0.999
0.999
1.0015
0.9965
0.992
0.979
0.978
0.9895
1.012
1.0435
1.033
1.0235
1.0175
1.0015
1.0015
1.015
1.0195
1.0095
1.0075
1.0105
1.007
1.0065
1.0155
1.0135
1.002
1.0035
1.0015
0.996
0.9985
1.001
1.002
0.994
0.993
1.001
1.001
0.989
0.9875
1.0005
0.994
0.9845
1.0005
1.019
1.0115
1.005
1.004
0.9925
0.9905
0.995
1.002
1.0115
1.004
0.997
0.9965
0.97
0.9665
0.979
0.973
0.9915
1.0105
1.0165
1.0185
1.0025
0.997
0.998
0.993
0.9865
0.9825
0.9875
0.9935
0.997
0.998
1.001
1.006
1.003
0.9995
1.0005
0.9995
1.001
0.9985
0.9965
0.9995
0.9955
0.994
0.9945
0.9885
0.9845
0.9945
0.9975
0.996
1.0
0.9875
0.9875
0.9945
1.0035
1.007
0.9905
0.984
0.9825
0.9885
0.994
1.014
1.024
1.004
1.0045
1.007
0.9975
0.9925
0.992
0.988
0.999
1.013
1.01
1.0015
0.994
1.003
1.007
1.0025
1.003
1.0015
1.011
1.0165
1.0035
0.9965
1.0005
0.9955
0.99
0.9995
1.0015
0.997
0.9995
1.0065
1.006
1.0055
1.0105
0.997
0.986
0.988
0.9885
0.989
1.001
0.9995
0.992
1.001
0.9985
0.9865
0.987
0.9955
0.9905
0.9895
0.9965
1.0165
1.029
1.0065
0.99
0.9945
1.0035
0.996
0.9905
0.9955
1.011
1.019
1.001
0.9875
0.9845
0.9865
0.9845
0.99
1.0085
1.015
1.0245
1.03
1.013
1.009
1.018
1.01
1.0125
1.024
1.014
1.0025
1.002
1.0005
1.0025
0.999
0.9755
0.976
0.9965
0.9955
0.985
0.983
0.984
0.989
0.993
0.995
1.0025
1.0145
1.0085
0.9865
0.988
0.99
0.994
0.997
0.998
1.0025
0.995
1.0005
1.0095
1.025
1.032
1.017
1.023
1.025
1.0125
1.0185
1.03
1.038
1.0375
1.0345
1.0335
1.033
1.0355
1.028
1.0225
1.0245
1.025
1.0265
1.025
1.028
1.032
1.0415
1.057
1.065
1.0615
1.051
1.0465
1.046
1.0545
1.057
1.054
1.0565
1.054
1.0565
1.0515
1.0485
1.064
1.0665
1.0615
1.0525
1.0465
1.053
1.052
1.0445
1.046
1.053
1.0505
1.046
1.044
1.055
1.072
1.075
1.0705
1.0675
1.073
1.071
1.0555
1.048
1.037
1.0305
1.0345
1.0285
1.024
1.0355
1.065
1.0735
1.058
1.0545
1.052
1.0655
1.0685
1.0555
1.048
1.0385
1.0395
1.04
1.037
1.036
1.0455
1.0395
1.0325
1.045
1.046
1.038
1.0435
1.045
1.0305
1.02
1.0115
1.009
1.0055
1.001
0.989
0.982
0.9865
0.9845
0.9815
0.983
0.989
0.9805
0.978
0.989
0.981
0.9775
0.984
0.9865
0.988
0.986
0.984
0.9875
0.9915
0.9875
0.9675
0.961
0.9715
0.972
0.9735
0.9765
0.9765
0.9775
0.9795
0.9795
0.9835
0.984
0.98
0.9775
0.9845
0.9865
0.9755
0.9795
0.985
0.9785
0.969
0.961
0.965
0.97
0.9665
0.9595
0.9645
0.9785
0.9785
0.979
0.9935
0.9995
0.9905
0.9865
0.983
0.983
0.986
0.972
0.9585
0.964
0.971
0.9705
0.9725
0.972
0.9675
0.9715
0.9725
0.9685
0.967
0.9665
0.962
0.961
0.9595
0.9465
0.935
0.9225
0.915
0.901
0.8985
0.9105
0.899
0.8945
0.8935
0.886
0.8915
0.892
0.895
0.9075
0.9265
0.949
0.973
1.0125
1.052
1.078
1.1035
1.148
1.213
1.2655
1.3055
1.3435
1.381
1.425
1.4655
1.5065
1.5465
1.5795
1.615
1.637
1.647
1.659
1.667
1.6665
1.6585
1.648
1.633
1.6255
1.6175
1.6035
1.5775
1.522
1.478
1.438
1.377
1.3305
1.278
1.2085
1.1435
1.076
1.0425
1.0225
0.9985
1.0005
0.992
0.9835
0.982
0.977
0.977
0.984
0.988
0.9725
0.965
0.973
0.9735
0.975
0.9725
0.9725
0.9805
0.9825
0.9825
0.9905
1.007
1.004
0.9925
0.983
0.9845
0.9895
0.975
0.966
0.9685
0.9855
0.9935
0.995
1.007
1.007
0.99
0.9865
0.9875
0.9845
0.992
0.9835
0.9845
0.99
0.991
0.9935
0.9805
0.9745
0.974
0.966
0.956
0.952
0.952
0.964
0.976
0.991
1.0005
0.996
0.9955
0.987
0.9775
0.967
0.968
0.9805
0.988
0.9935
0.9935
0.9975
0.9965
0.998
1.0005
1.0015
1.0045
1.0035
1.0025
0.9975
0.999
0.9965
0.997
0.9995
0.989
0.997
1.0055
1.0015
1.003
1.0035
0.9975
0.996
0.997
0.991
0.9885
0.987
0.9925
1.0
1.0005
1.0025
1.0055
1.0
0.9945
0.9965
1.0005
1.001
0.988
0.9885
1.001
1.0115
1.0165
0.9985
1.0155
1.036
1.0115
1.009
1.0145
1.0185
1.0315
1.024
1.0145
1.009
1.0065
1.0155
1.02
1.034
1.0325
1.036
1.041
1.0145
1.0075
1.008
1.01
1.021
1.022
1.0145
1.0155
1.0275
1.023
1.025
1.035
1.0385
1.031
1.0185
1.0195
1.021
1.027
1.024
1.033
1.0445
1.0525
1.0645
1.059
1.0575
1.0495
1.0445
1.0475
1.0475
1.0525
1.062
1.0565
1.0525
1.063
1.073
1.0795
1.0765
1.076
1.0725
1.0715
1.0815
1.086
1.081
1.0875
1.1
1.094
1.088
1.0865
1.092
1.0965
1.0955
1.1
1.102
1.106
1.1085
1.1065
1.116
1.124
1.1245
1.126
1.129
1.135
1.1395
1.142
1.1445
1.1475
1.1455
1.151
1.1575
1.154
1.1585
1.162
1.1635
1.1665
1.173
1.182
1.18
1.175
1.1825
1.1995
1.208
1.2035
1.201
1.206
1.215
1.2165
1.214
1.223
1.2235
1.2125
1.224
1.2335
1.2385
1.2435
1.223
1.22
1.2325
1.231
1.2355
1.238
1.2335
1.2325
1.2435
1.2495
1.2435
1.2405
1.237
1.2375
1.242
1.245
1.2425
1.241
1.2415
1.2425
1.2415
1.247
1.2525
1.246
1.2395
1.2295
1.231
1.23
1.227
1.223
1.225
1.231
1.216
1.218
1.213
1.1925
1.1875
1.1925
1.1935
1.177
1.151
1.144
1.1435
1.13
1.131
1.141
1.134
1.1345
1.1295
1.1075
1.1035
1.1055
1.103
1.095
1.095
1.091
1.0785
1.0825
1.0735
1.0775
1.089
1.075
1.0695
1.0605
1.056
1.0635
1.056
1.052
1.051
1.048
1.0465
1.0375
1.0365
1.0345
1.0335
1.0275
1.024
1.026
1.0145
1.015
1.0185
0.9995
0.9895
1.0015
0.9925
0.9775
0.991
1.0105
1.0125
1.0
0.999
1.0135
1.0135
1.004
0.9975
0.992
0.9915
0.9945
0.9955
1.006
1.012
1.012
1.006
0.996
0.996
0.995
1.001
1.0025
0.9955
0.9975
0.999
0.9925
0.9945
0.9985
0.9975
0.999
0.998
1.001
1.007
0.993
0.969
0.976
0.989
0.99
0.999
1.0015
0.999
0.9965
0.986
0.984
0.99
0.9995
1.012
1.005
0.999
0.9925
0.9805
0.9805
0.987
0.9925
0.9805
0.9745
0.983
0.9855
0.982
0.977
0.9855
0.9885
0.9835
0.989
0.986
0.9765
0.9785
0.9825
0.9815
0.9855
0.981
0.977
0.9825
0.9745
0.9665
0.9645
0.9675
0.9705
0.974
1.0
1.025
1.0265
1.0155
1.006
1.004
0.999
0.986
0.9815
0.9885
0.994
0.9915
0.9935
1.0005
0.9855
0.981
0.993
0.9925
0.9915
0.9825
0.9765
0.9775
0.985
0.9995
1.005
1.0015
0.9935
0.9925
0.9935
0.99
0.9865
0.99
1.0045
1.0095
0.9945
0.985
0.9925
1.002
0.994
0.9815
0.9915
0.9935
0.9855
0.9915
0.9935
0.9955
0.9905
0.9815
0.987
0.99
0.9935
0.9995
0.996
0.9975
0.993
0.9905
0.9995
0.9985
0.994
0.998
0.998
0.994
0.995
0.9915
0.9915
0.991
0.9945
0.997
0.99
0.9885
0.9945
1.008
1.002
0.9915
0.994
0.9915
0.996
1.0015
1.0
1.002
0.992
0.98
0.9795
0.9825
0.988
0.992
0.9965
0.9975
0.9955
1.003
1.0
0.9775
0.9765
0.9795
0.9775
0.986
0.991
0.99
0.9825
0.984
0.9905
0.9915
0.9915
0.992
0.992
1.0005
1.0005
0.9825
0.9835
0.9885
0.984
0.989
0.9995
1.0065
1.0025
0.9945
0.9915
0.994
0.992
0.9895
0.9935
0.996
0.989
0.9775
0.9815
0.9875
0.9825
0.9825
0.9855
0.9815
0.9695
0.9615
0.971
0.972
0.957
0.9655
0.9785
0.9805
1.006
1.016
1.0065
1.009
1.0075
1.0055
0.991
0.9885
1.0
0.9985
1.0055
1.017
1.0115
1.002
1.0085
1.0105
1.0075
1.0155
1.025
1.0275
1.0275
1.0275
1.0245
1.0265
1.033
1.033
1.029
1.023
1.026
1.032
1.0325
1.0425
1.0465
1.0405
1.04
1.037
1.04
1.05
1.0455
1.0345
1.031
1.045
1.0575
1.0475
1.05
1.062
1.0575
1.0595
1.0595
1.0585
1.0645
1.0565
1.0505
1.052
1.055
1.0475
1.0425
1.047
1.0575
1.065
1.05
1.0445
1.0475
1.0405
1.0405
1.045
1.055
1.0615
1.0435
1.039
1.0505
1.05
1.0595
1.065
1.059
1.062
1.066
1.0605
1.047
1.043
1.039
1.0345
1.041
1.0345
1.03
1.032
1.0305
1.0285
1.0315
1.031
1.034
1.0365
1.0295
1.03
1.0285
1.0215
1.0105
1.0195
1.0245
1.009
1.011
1.013
1.006
0.9905
0.984
0.982
0.9725
0.9755
0.9705
0.9685
0.9725
0.969
0.9625
0.9615
0.9705
0.97
0.971
0.9655
0.965
0.9755
0.9755
0.978
0.9715
0.967
0.9695
0.965
0.9735
0.98
0.986
0.9855
0.9775
0.9845
0.9895
0.993
0.9875
0.98
0.9775
0.975
0.9655
0.96
0.9635
0.96
0.963
0.9675
0.9635
0.9615
0.9665
0.963
0.967
0.968
0.961
0.964
0.9585
0.9525
0.961
0.965
0.961
0.957
0.9575
0.9635
0.9605
0.962
0.968
0.9735
0.98
0.9695
0.96
0.9635
0.966
0.9665
0.9655
0.967
0.9665
0.961
0.9505
0.9425
0.9385
0.922
0.9115
0.9165
0.9105
0.9045
0.901
0.888
0.8785
0.8655
0.866
0.875
0.879
0.8775
0.878
0.905
0.9255
0.933
0.9545
1.003
1.042
1.0685
1.0965
1.1385
1.2075
1.2555
1.308
1.3575
1.398
1.462
1.5095
1.5435
1.59
1.6265
1.65
1.681
1.6915
1.6905
1.7075
1.7105
1.7085
1.687
1.659
1.664
1.653
1.646
1.6205
1.5595
1.5175
1.4695
1.4085
1.3525
1.2825
1.204
1.138
1.08
1.0415
1.021
1.0095
1.0015
0.9875
0.9755
0.9775
0.9795
0.9775
0.981
0.979
0.978
0.9705
0.9625
0.968
0.9795
0.9825
0.9785
0.98
0.9835
0.982
0.983
0.986
0.9785
0.9725
0.9745
0.9785
0.9845
0.988
0.986
0.9835
0.9825
0.9735
0.9665
0.9745
0.9845
0.988
0.9835
0.9765
0.975
0.974
0.975
0.9785
0.9765
0.9695
0.973
0.978
0.9805
0.9725
0.962
0.9665
0.9725
0.9815
0.986
0.9805
0.9745
0.979
0.977
0.974
0.973
0.9725
0.972
0.969
0.975
0.9805
0.982
0.983
0.989
0.985
0.978
0.973
0.969
0.9725
0.9785
0.985
0.975
0.963
0.9705
0.981
0.983
0.981
0.977
0.9775
0.985
0.9895
0.986
0.985
0.993
0.9935
0.9965
0.992
0.9845
0.9895
0.9875
0.986
0.9835
0.985
0.988
0.9865
0.983
0.9945
1.015
1.0165
1.0125
1.0145
1.013
1.012
1.008
1.01
1.016
1.007
1.0045
1.007
1.0025
1.0045
1.0045
1.003
1.006
1.01
1.0195
1.0285
1.0255
1.0135
1.009
1.012
1.0125
1.012
1.0125
1.0125
1.0105
1.009
1.0085
1.016
1.026
1.032
1.035
1.031
1.033
1.0355
1.0365
1.0395
1.0425
1.044
1.041
1.0405
1.0385
1.038
1.0295
1.026
1.0405
1.0475
1.0445
1.044
1.049
1.0515
1.058
1.0605
1.0575
1.059
1.059
1.0585
1.0605
1.073
1.0815
1.0805
1.086
1.0825
1.083
1.087
1.0815
1.081
1.08
1.0955
1.1105
1.1035
1.101
1.1005
1.1005
1.099
1.103
1.1065
1.1075
1.1165
1.118
1.1265
1.1335
1.137
1.1495
1.1465
1.137
1.145
1.152
1.152
1.1555
1.155
1.1565
1.1615
1.1655
1.174
1.1835
1.1895
1.1905
1.1975
1.204
1.201
1.201
1.196
1.193
1.192
1.1965
1.2095
1.208
1.209
1.2195
1.2295
1.235
1.234
1.2405
1.2415
1.232
1.223
1.224
1.2285
1.224
1.2385
1.2475
1.2425
1.2555
1.252
1.2475
1.256
1.2445
1.2345
1.242
1.2495
1.244
1.2445
1.2485
1.2455
1.2585
1.2765
1.2695
1.245
1.2375
1.226
1.217
1.2165
1.206
1.2115
1.22
1.2285
1.2285
1.213
1.193
1.181
1.1795
1.1805
1.184
1.1815
1.172
1.162
1.1585
1.157
1.161
1.1545
1.1495
1.1505
1.136
1.1335
1.1335
1.1115
1.0975
1.0975
1.094
1.085
1.0775
1.079
1.08
1.0755
1.0715
1.0715
1.0605
1.0495
1.0675
1.0695
1.054
1.053
1.05
1.038
1.0205
1.017
1.023
1.024
1.0225
1.025
1.0285
1.027
1.024
1.0145
1.0125
1.017
1.012
1.009
1.01
1.0095
1.004
0.9895
0.989
0.992
0.985
0.986
0.9895
0.9905
0.9925
0.9975
0.9955
0.99
0.9965
1.005
1.0
0.9955
0.999
0.9965
0.995
0.9975
0.996
0.993
1.0005
1.0055
0.9985
0.9995
0.9895
0.978
0.978
0.9755
0.979
0.9865
0.984
0.974
0.974
0.9885
0.9905
0.9725
0.9685
0.9795
0.9945
1.0095
1.0045
1.0015
1.0065
0.998
0.99
0.9835
0.981
0.9825
0.988
0.9945
0.989
0.984
0.99
0.9895
0.9865
0.9875
0.9825
0.9875
0.9885
0.988
0.986
0.977
0.9875
0.9955
0.985
0.984
0.984
0.9765
0.9695
0.9735
0.986
0.985
0.9845
0.9825
0.98
0.982
0.9815
0.98
0.9875
0.9925
0.983
0.982
0.9805
0.9805
0.984
0.9825
0.9815
0.9825
0.9805
0.9785
0.9745
0.9745
0.981
0.9725
0.973
0.9865
0.9915
0.9905
0.987
0.9925
0.9855
0.9845
0.9935
0.9955
0.992
0.985
0.9855
0.988
0.9855
0.9805
0.9785
0.9755
0.977
0.9855
0.9905
0.983
0.9885
1.001
0.9985
0.998
0.9965
0.9945
0.997
1.002
0.998
0.9805
0.979
0.9815
0.9845
0.995
1.0045
1.0
0.988
0.997
1.0045
0.994
0.9785
0.9865
1.003
0.9965
0.987
0.9845
0.9805
0.9845
1.0
1.001
0.9915
0.9915
0.9915
0.9925
0.987
0.9785
0.9785
0.9855
0.9935
0.994
0.995
0.9865
0.981
0.9915
0.9925
0.989
0.9845
0.9835
0.985
0.984
0.9935
0.9955
0.991
0.993
0.992
0.9905
0.982
0.9725
0.9795
0.993
0.996
0.9965
0.994
0.99
0.9825
0.9795
0.993
0.9955
0.987
0.971
0.969
0.98
0.9785
0.9805
0.978
0.976
0.975
0.975
0.985
0.986
0.9805
0.977
0.977
0.9825
0.989
0.9895
0.9785
0.9745
0.977
0.9825
0.982
0.9795
0.9905
0.9935
0.9885
0.982
0.9805
0.9845
0.99
0.9905
0.981
0.9815
0.9815
0.972
0.968
0.9765
0.994
0.9985
0.9895
0.9875
0.981
0.976
0.978
0.9815
0.978
0.9795
0.992
0.991
0.986
0.978
0.98
0.977
0.979
0.9905
0.983
0.974
0.968
0.977
0.9885
0.986
0.981
0.986
0.9885
0.9815
0.9825
0.9785
0.977
0.9835
0.9965
0.996
0.9825
0.9835
0.9865
0.9925
0.9995
1.0025
1.007
1.008
1.0045
0.997
0.995
1.0025
1.0045
1.003
1.0135
1.019
1.016
1.0295
1.037
1.023
1.009
1.0105
1.01
1.0085
1.012
1.0175
1.036
1.0305
1.03
1.042
1.035
1.038
1.0425
1.0435
1.0375
1.031
1.042
1.0535
1.046
1.031
1.0355
1.0475
1.05
1.0485
1.0525
1.0595
1.062
1.0635
1.077
1.084
1.067
1.05
1.049
1.0515
1.053
1.0525
1.0545
1.064
1.05
1.033
1.0305
1.024
1.015
1.0095
1.0315
1.048
1.0535
1.063
1.0635
1.07
1.068
1.066
1.065
1.0565
1.0555
1.0505
1.047
1.042
1.0395
1.0425
1.037
1.029
1.0285
1.0385
1.038
1.028
1.0305
1.0395
1.0405
1.0335
1.026
1.0255
1.022
1.0155
1.0175
1.0125
1.0035
0.9985
0.996
0.992
0.984
0.9775
0.971
0.977
0.979
0.969
0.965
0.955
0.9645
0.977
0.9695
0.972
0.974
0.974
0.979
0.988
0.983
0.9765
0.9805
0.978
0.974
0.971
0.972
0.9755
0.975
0.98
0.9785
0.963
0.9625
0.961
0.9565
0.9555
0.952
0.958
0.96
0.9685
0.98
0.9745
0.969
0.971
0.9675
0.9635
0.964
0.9635
0.9675
0.961
0.952
0.9615
0.9665
0.962
0.967
0.966
0.955
0.958
0.972
0.9805
0.9755
0.968
0.965
0.9625
0.964
0.9595
0.959
0.9545
0.949
0.9525
0.946
0.955
0.9665
0.963
0.965
0.9595
0.948
0.944
0.944
0.925
0.898
0.8875
0.8895
0.8965
0.8935
0.8815
0.8805
0.8925
0.894
0.8885
0.894
0.895
0.9025
0.9255
0.937
0.9575
1.0005
1.035
1.076
1.1265
1.1655
1.2175
1.274
1.3235
1.37
1.42
1.477
1.528
1.5775
1.6205
1.6425
1.669
1.708
1.7335
1.7505
1.741
1.723
1.7235
1.71
1.6995
1.688
1.6765
1.6675
1.618
1.559
1.512
1.4535
1.3855
1.332
1.2665
1.1905
1.123
1.0655
1.039
1.0205
1.01
0.989
0.967
0.972
0.9695
0.9655
0.9625
0.9555
0.9655
0.9645
0.9535
0.9555
0.96
0.964
0.9625
0.961
0.965
0.9625
0.9565
0.9555
0.956
0.959
0.9705
0.9795
0.977
0.9735
0.971
0.968
0.962
0.9655
0.9755
0.969
0.967
0.9705
0.9805
0.989
0.98
0.98
0.9835
0.988
0.996
0.999
0.983
0.9665
0.972
0.9695
0.9625
0.9565
0.9635
0.969
0.96
0.955
0.968
0.9785
0.971
0.9765
0.984
0.9795
0.9785
0.982
0.9845
0.9795
0.974
0.979
0.9805
0.975
0.9735
0.976
0.975
0.975
0.98
0.989
0.9905
0.9795
0.9715
0.9705
0.982
0.987
0.9855
0.9865
0.9875
0.994
0.9965
0.9975
0.992
0.9835
0.983
0.9845
0.991
0.9925
0.986
0.9885
0.989
0.9855
0.9925
0.9955
0.9935
0.9925
0.99
0.9915
0.9975
1.0005
1.0055
1.007
0.9955
0.9945
1.0005
0.998
0.996
0.988
0.977
0.982
0.9905
0.9945
1.0
1.01
1.022
1.016
1.014
1.01
1.012
1.0275
1.0215
1.018
1.0175
1.022
1.028
1.0185
1.017
1.0195
1.014
1.008
1.002
1.018
1.041
1.034
1.028
1.026
1.02
1.017
1.0275
1.043
1.0375
1.0315
1.034
1.0355
1.0315
1.034
1.0455
1.0515
1.053
1.055
1.0555
1.0555
1.058
1.0585
1.057
1.061
1.066
1.068
1.068
1.07
1.0735
1.067
1.066
1.0685
1.071
1.0835
1.0845
1.0795
1.088
1.0905
1.0795
1.0865
1.101
1.1125
1.1155
1.112
1.13
1.1365
1.131
1.1355
1.141
1.144
1.131
1.1265
1.129
1.137
1.149
1.1495
1.1545
1.154
1.16
1.1725
1.1725
1.171
1.171
1.1735
1.179
1.183
1.1835
1.1825
1.197
1.2115
1.2075
1.203
1.208
1.2155
1.207
1.214
1.221
1.2165
1.2245
1.2345
1.256
1.2655
1.259
1.2535
1.239
1.2215
1.2155
1.2215
1.238
1.243
1.2575
1.268
1.243
1.2415
1.254
1.255
1.2595
1.273
1.2825
1.275
1.2635
1.2615
1.255
1.2535
1.2635
1.257
1.2505
1.2545
1.253
1.243
1.2375
1.2345
1.227
1.2195
1.2155
1.2105
1.203
1.2
1.211
1.213
1.1935
1.183
1.1745
1.177
1.1805
1.1765
1.168
1.1635
1.165
1.1375
1.118
1.12
1.124
1.127
1.1215
1.105
1.0895
1.0875
1.091
1.0915
1.0925
1.095
1.0955
1.079
1.064
1.066
1.064
1.06
1.052
1.0445
1.043
1.031
1.0175
1.0175
1.023
1.033
1.0315
1.028
1.04
1.038
1.029
1.0285
1.0105
1.001
1.0065
1.006
1.0095
1.001
1.002
1.0015
0.9955
0.9965
0.991
1.0
1.004
0.999
0.997
0.9935
0.9955
0.9975
0.994
0.999
1.0075
0.999
0.9955
0.9855
0.9765
0.981
0.978
0.975
0.9735
0.982
0.989
0.996
1.0155
1.0205
1.0085
0.9925
0.9965
0.9915
0.9665
0.9635
0.965
0.9625
0.963
0.975
0.998
1.0065
1.001
0.9955
0.991
0.986
0.9865
0.9885
0.985
0.981
0.9795
0.9895
0.9975
0.986
0.98
0.988
0.9865
0.9725
0.973
0.9835
0.9845
0.988
0.992
0.9875
0.976
0.9725
0.9825
0.9845
0.981
0.98
0.972
0.9675
0.9775
0.987
0.9895
0.9895
0.98
0.9715
0.968
0.968
0.9815
0.9775
0.9765
0.987
0.9875
0.9865
0.9855
0.992
0.9915
0.9865
0.98
0.9755
0.9825
0.991
0.9855
0.9645
0.96
0.964
0.965
0.9705
0.9705
0.978
0.991
0.99
0.9785
0.971
0.9875
1.0005
0.983
0.9745
0.978
0.9765
0.9745
0.979
0.983
0.98
0.9775
0.9815
0.9895
0.9925
0.9935
0.9795
0.975
0.971
0.973
1.0015
1.009
1.001
1.002
0.994
0.963
0.9635
0.993
1.001
0.996
0.9875
0.997
0.993
0.979
0.975
0.969
0.9725
0.9725
0.9815
0.994
0.999
0.9955
0.9935
0.9935
0.985
0.9785
0.976
0.9785
0.9715
0.963
0.969
0.9725
0.977
0.985
0.984
0.9875
0.9905
0.996
0.999
0.979
0.972
0.9765
0.981
0.986
0.98
0.9775
0.971
0.958
0.966
0.975
0.9645
0.9675
0.987
0.992
0.9875
0.9895
0.989
0.9765
0.957
0.9625
0.983
0.972
0.965
0.9715
0.979
0.982
0.985
0.9915
0.985
0.987
0.9765
0.9695
0.9765
0.975
0.9635
0.9675
0.978
0.973
0.9725
0.97
0.9775
0.981
0.978
0.9805
0.971
0.9685
0.971
0.966
0.9685
0.98
0.978
0.964
0.966
0.9725
0.9735
0.9705
0.9665
0.9695
0.9625
0.9595
0.9695
0.978
0.9745
0.96
0.9615
0.9695
0.9695
0.973
0.974
0.974
0.9645
0.9615
0.9685
0.959
0.96
0.9695
0.983
1.001
1.003
0.999
0.977
0.9595
0.967
0.9585
0.95
0.954
0.954
0.9545
0.959
0.964
0.9635
0.9615
0.95
0.9505
0.9625
0.959
0.956
0.9605
0.964
0.9555
0.9565
0.972
0.97
0.9515
0.952
0.9715
0.9665
0.965
0.992
0.9945
0.9855
0.985
0.9775
0.973
0.9905
1.0015
0.989
0.987
0.9865
0.9835
0.99
1.0
0.9985
0.994
1.0005
1.01
1.0135
1.015
1.022
1.0185
1.0165
1.0185
1.01
1.011
1.024
1.035
1.032
1.0145
1.0105
1.006
1.0115
1.03
1.0305
1.0255
1.0155
1.008
1.019
1.0305
1.0335
1.04
1.0375
1.039
1.0385
1.025
1.0235
1.036
1.042
1.044
1.0475
1.0445
1.038
1.031
1.0315
1.0285
1.0185
1.012
1.0205
1.024
1.0135
1.006
1.0005
1.006
0.998
0.9915
1.013
1.0375
1.0375
1.045
1.0665
1.0685
1.0575
1.029
1.015
0.998
0.988
1.005
1.004
0.996
0.9995
1.013
1.0235
1.0155
1.005
1.0025
0.998
1.006
1.019
1.0235
1.011
0.994
0.982
0.97
0.9695
0.972
0.9725
0.974
0.977
0.9705
0.968
0.9565
0.946
0.948
0.9555
0.9625
0.946
0.9435
0.959
0.965
0.9615
0.9555
0.95
0.9445
0.939
0.9345
0.938
0.928
0.9165
0.9255
0.9295
0.942
0.946
0.9405
0.951
0.961
0.9585
0.9495
0.9445
0.934
0.9375
0.941
0.9325
0.932
0.9335
0.9455
0.945
0.9435
0.938
0.931
0.9385
0.9355
0.932
0.926
0.931
0.9455
0.946
0.941
0.9425
0.9405
0.9375
0.9375
0.9335
0.9295
0.9295
0.932
0.929
0.9315
0.9265
0.9285
0.938
0.9305
0.9365
0.9315
0.9235
0.9215
0.9145
0.915
0.894
0.8925
0.9035
0.904
0.9045
0.883
0.865
0.8585
0.858
0.8465
0.851
0.8605
0.854
0.8665
0.8645
0.86
0.871
0.8845
0.91
0.9355
0.959
0.987
1.025
1.0685
1.117
1.1735
1.223
1.2665
1.318
1.361
1.4105
1.459
1.514
1.5675
1.5955
1.633
1.6685
1.682
1.684
1.7065
1.703
1.6615
1.6445
1.657
1.6565
1.64
1.644
1.621
1.5415
1.464
1.4105
1.352
1.303
1.2445
1.1775
1.0945
1.0165
0.9895
0.967
0.953
0.94
0.9325
0.946
0.938
0.914
0.9145
0.9205
0.9225
0.9225
0.913
0.9165
0.9235
0.9255
0.923
0.93
0.942
0.942
0.9315
0.9275
0.936
0.9345
0.93
0.936
0.9305
0.922
0.932
0.932
0.9405
0.9475
0.9405
0.9475
0.945
0.9485
0.952
0.928
0.9245
0.9365
0.926
0.923
0.9205
0.927
0.9345
0.9195
0.923
0.925
0.9355
0.9315
0.9215
0.94
0.937
0.933
0.93
0.928
0.9365
0.95
0.964
0.96
0.9475
0.94
0.935
0.938
0.938
0.929
0.931
0.9355
0.9365
0.935
0.9305
0.927
0.9275
0.9345
0.947
0.9545
0.942
0.932
0.9315
0.9265
0.936
0.9405
0.939
0.9415
0.939
0.9375
0.9375
0.9435
0.9435
0.948
0.954
0.962
0.963
0.9435
0.9505
0.9545
0.945
0.9375
0.9395
0.9495
0.941
0.9545
0.964
0.951
0.94
0.933
0.946
0.9625
0.9625
0.95
0.9515
0.964
0.957
0.9495
0.945
0.9445
0.9615
0.971
0.969
0.961
0.9555
0.954
0.948
0.9495
0.9545
0.9625
0.964
0.9615
0.9725
0.9765
0.968
0.966
0.97
0.973
0.9785
0.984
1.003
1.0005
0.9815
0.981
0.967
0.965
0.971
0.976
0.9955
1.0045
0.9905
0.967
0.9715
0.987
0.986
0.988
0.9915
0.9985
1.004
0.9985
0.985
0.9885
1.007
1.0085
1.012
1.0175
1.017
1.034
1.044
1.024
1.0235
1.0275
1.0265
1.0405
1.0345
1.0295
1.0335
1.037
1.0475
1.0475
1.0435
1.0505
1.059
1.0665
1.0635
1.0535
1.049
1.0465
1.062
1.063
1.0595
1.0795
1.085
1.0845
1.0895
1.1035
1.1125
1.1055
1.103
1.1075
1.1185
1.118
1.111
1.1305
1.145
1.1385
1.1355
1.135
1.137
1.1405
1.1375
1.1475
1.1615
1.1445
1.1395
1.148
1.165
1.18
1.185
1.1855
1.169
1.1755
1.19
1.1965
1.1965
1.187
1.177
1.171
1.1785
1.183
1.1885
1.196
1.1995
1.203
1.1985
1.1885
1.1865
1.193
1.1975
1.1925
1.1985
1.1985
1.1925
1.204
1.1945
1.1895
1.1935
1.185
1.181
1.1785
1.1765
1.173
1.171
1.166
1.1595
1.164
1.1595
1.1505
1.151
1.1335
1.1265
1.1265
1.1165
1.1145
1.103
1.094
1.0835
1.0835
1.083
1.0735
1.0875
1.0935
1.072
1.0535
1.052
1.0425
1.029
1.028
1.029
1.0205
1.0135
1.0135
1.008
1.0165
1.0195
1.0115
1.0075
0.9835
0.9635
0.9565
0.948
0.9605
0.96
0.9535
0.977
0.993
0.9855
0.9675
0.963
0.9515
0.9345
0.9465
0.9425
0.9325
0.943
0.9395
0.933
0.9295
0.9275
0.9305
0.917
0.9135
0.92
0.9305
0.942
0.9375
0.9345
0.929
0.9365
0.9435
0.9295
0.9245
0.927
0.92
0.915
0.9145
0.9235
0.9405
0.9335
0.92
0.9155
0.9145
0.919
0.9215
0.928
0.9255
0.9135
0.916
0.9145
0.9075
0.9085
0.9115
0.914
0.9085
0.906
0.905
0.8955
0.888
0.893
0.914
0.9325
0.931
0.9255
0.913
0.907
0.9075
0.9095
0.9095
0.8975
0.897
0.8955
0.892
0.884
0.8805
0.894
0.913
0.9245
0.9145
0.904
0.908
0.912
0.9085
0.906
0.8985
0.901
0.901
0.9
0.884
0.8765
0.9075
0.901
0.8825
0.8895
0.8905
0.889
0.8925
0.895
0.904
0.9245
0.915
0.9015
0.9085
0.895
0.895
0.904
0.902
0.907
0.9175
0.9175
0.922
0.9405
0.9345
0.9125
0.908
0.9185
0.9115
0.9045
0.8965
0.889
0.903
0.9085
0.8965
0.8945
0.9035
0.8905
0.884
0.8965
0.903
0.899
0.9
0.902
0.8985
0.902
0.909
0.901
0.9005
0.914
0.912
0.9075
0.8995
0.9085
0.9165
0.905
0.898
0.899
0.9065
0.903
0.907
0.906
0.8925
0.9025
0.904
0.8965
0.8895
0.8895
0.905
0.904
0.9075
0.9065
0.898
0.8895
0.8895
0.8955
0.881
0.886
0.9
0.9085
0.9065
0.893
0.8885
0.9005
0.904
0.898
0.9075
0.91
0.905
0.899
0.896
0.8955
0.889
0.8835
0.878
0.8685
0.8785
0.896
0.903
0.9075
0.897
0.896
0.892
0.888
0.8925
0.8975
0.906
0.892
0.883
0.8765
0.884
0.906
0.9065
0.9115
0.9105
0.9075
0.9075
0.901
0.8975
0.8925
0.898
0.8855
0.8795
0.8905
0.8935
0.897
0.892
0.8975
0.899
0.883
0.8725
0.8785
0.8775
0.8675
0.866
0.874
0.8905
0.894
0.891
0.883
0.882
0.901
0.9075
0.897
0.8845
0.8785
0.8705
0.8635
0.877
0.8815
0.8745
0.878
0.8805
0.885
0.8835
0.889
0.896
0.8875
0.8915
0.8995
0.908
0.9185
0.9135
0.9135
0.929
0.93
0.9215
0.9345
0.9335
0.9225
0.9165
0.8985
0.8985
0.919
0.931
0.929
0.9125
0.9115
0.942
0.9765
0.973
0.9425
0.934
0.9205
0.924
0.942
0.936
0.9385
0.94
0.9465
0.941
0.913
0.922
0.9475
0.9525
0.952
0.9515
0.951
0.9525
0.9635
0.9675
0.956
0.953
0.9555
0.946
0.9495
0.951
0.948
0.9445
0.9295
0.925
0.913
0.9175
0.936
0.9345
0.9315
0.9365
0.9385
0.943
0.9535
0.9575
0.9505
0.9465
0.945
0.9395
0.9405
0.932
0.925
0.913
0.917
0.9195
0.901
0.9135
0.9215
0.9115
0.913
0.9135
0.9115
0.9165
0.918
0.919
0.9185
0.9165
0.906
0.894
0.8975
0.8985
0.898
0.8945
0.8865
0.88
0.872
0.87
0.8625
0.8615
0.862
0.854
0.85
0.847
0.8545
0.8565
0.857
0.866
0.876
0.885
0.88
0.8685
0.8715
0.8805
0.868
0.854
0.848
0.8435
0.8555
0.851
0.8425
0.8555
0.867
0.8765
0.8665
0.8575
0.857
0.8535
0.8575
0.85
0.8505
0.862
0.862
0.8565
0.846
0.846
0.85
0.853
0.864
0.8545
0.8485
0.8565
0.8525
0.8435
0.8395
0.8495
0.852
0.838
0.848
0.857
0.8445
0.8525
0.854
0.846
0.8405
0.842
0.846
0.844
0.8445
0.845
0.848
0.8395
0.8355
0.838
0.8335
0.8255
0.8195
0.81
0.8055
0.791
0.7745
0.773
0.7785
0.785
0.773
0.7745
0.772
0.759
0.7545
0.7485
0.743
0.7535
0.774
0.787
0.819
0.864
0.891
0.9215
0.969
1.019
1.078
1.119
1.1695
1.229
1.259
1.292
1.333
1.385
1.427
1.4615
1.4845
1.4905
1.5215
1.5415
1.545
1.545
1.5285
1.5025
1.4975
1.498
1.4795
1.477
1.4605
1.407
1.3415
1.294
1.241
1.1745
1.1345
1.073
0.994
0.9365
0.9005
0.8735
0.841
0.835
0.8305
0.819
0.826
0.8435
0.8545
0.84
0.823
0.827
0.83
0.824
0.817
0.8235
0.8295
0.8255
0.84
0.8455
0.8525
0.857
0.849
0.8545
0.848
0.843
0.8475
0.849
0.8445
0.8375
0.8405
0.843
0.842
0.834
0.838
0.843
0.8385
0.8265
0.8125
0.8135
0.8315
0.851
0.8555
0.878
0.8775
0.857
0.846
0.8415
0.838
0.84
0.8485
0.8295
0.835
0.837
0.8365
0.857
0.8565
0.866
0.866
0.8565
0.8685
0.856
0.8335
0.8465
0.8475
0.839
0.8465
0.8535
0.849
0.8585
0.8615
0.8485
0.8535
0.858
0.853
0.8485
0.85
0.8545
0.8435
0.8415
0.8595
0.854
0.8475
0.861
0.8665
0.863
0.864
0.8735
0.8805
0.873
0.8665
0.8625
0.8705
0.8655
0.85
0.8465
0.857
0.8735
0.8695
0.867
0.867
0.866
0.8605
0.8595
0.8685
0.8555
0.855
0.8655
0.859
0.86
0.8615
0.8505
0.8515
0.8705
0.8745
0.8765
0.8855
0.883
0.8865
0.8825
0.878
0.8765
0.8755
0.8755
0.8685
0.868
0.869
0.8705
0.8695
0.868
0.876
0.8845
0.89
0.89
0.8815
0.8765
0.881
0.8915
0.8935
0.888
0.8905
0.896
0.8935
0.894
0.9075
0.908
0.9045
0.9055
0.9095
0.929
0.9265
0.917
0.916
0.9155
0.92
0.91
0.9105
0.928
0.9305
0.9335
0.9325
0.9205
0.9215
0.9295
0.936
0.9275
0.931
0.942
0.9365
0.9475
0.956
0.9575
0.962
0.9725
0.9845
0.98
0.9645
0.9595
0.971
0.9655
0.9625
0.9775
0.972
0.969
0.981
0.976
0.9685
0.977
1.0
1.0215
1.0305
1.0295
1.0265
1.0215
1.011
1.0145
1.018
1.013
1.014
1.0315
1.0435
1.0385
1.0395
1.046
1.051
1.0555
1.0625
1.073
1.085
1.0745
1.071
1.0815
1.0675
1.0745
1.0795
1.0715
1.0895
1.092
1.0895
1.087
1.0735
1.08
1.0975
1.108
1.1175
1.1185
1.12
1.1265
1.128
1.121
1.11
1.1145
1.1235
1.116
1.105
1.106
1.112
1.1185
1.107
1.1055
1.1105
1.097
1.104
1.1055
1.089
1.0845
1.0745
1.063
1.0675
1.0775
1.07
1.06
1.06
1.049
1.0375
1.03
1.0175
1.0155
1.0185
1.0245
1.0205
1.006
1.0185
1.0175
0.993
0.976
0.9705
0.9685
0.9705
0.9685
0.952
0.9405
0.942
0.9465
0.936
0.9255
0.926
0.935
0.945
0.9275
0.9165
0.9205
0.9145
0.901
0.8965
0.8995
0.8925
0.882
0.885
0.888
0.883
0.8905
0.884
0.874
0.8775
0.8835
0.874
0.86
0.851
0.848
0.8475
0.8395
0.849
0.86
0.8815
0.88
0.859
0.8545
0.8395
0.8495
0.8555
0.8475
0.827
0.813
0.832
0.8495
0.846
0.8305
0.8295
0.8255
0.8175
0.825
0.8455
0.856
0.849
0.844
0.845
0.852
0.8485
0.841
0.848
0.8475
0.8465
0.84
0.832
0.8375
0.834
0.8405
0.829
0.8215
0.834
0.839
0.8485
0.847
0.841
0.8255
0.822
0.826
0.836
0.836
0.8165
0.832
0.843
0.8435
0.8425
0.835
0.831
0.831
0.8385
0.839
0.8425
0.84
0.8325
0.815
0.8055
0.8105
0.8045
0.805
0.811
0.82
0.825
0.8355
0.8245
0.801
0.807
0.8235
0.8185
0.8105
0.8375
0.8445
0.8275
0.816
0.8325
0.8435
0.8315
0.842
0.844
0.831
0.8305
0.842
0.842
0.833
0.8355
0.834
0.824
0.8275
0.8285
0.8135
0.8025
0.819
0.83
0.822
0.837
0.8525
0.858
0.8535
0.8355
0.8285
0.829
0.834
0.8345
0.821
0.8295
0.8465
0.8375
0.845
0.8435
0.8365
0.844
0.832
0.8335
0.8355
0.8325
0.8255
0.8255
0.823
0.8105
0.823
0.8345
0.8455
0.8415
0.854
0.8645
0.851
0.855
0.847
0.8375
0.8235
0.8215
0.843
0.849
0.8455
0.8435
0.8195
0.8075
0.825
0.827
0.822
0.822
0.826
0.8285
0.8265
0.8325
0.8435
0.839
0.8345
0.8275
0.823
0.831
0.8395
0.8485
0.848
0.842
0.8355
0.8365
0.8315
0.837
0.842
0.8275
0.822
0.833
0.8315
0.823
0.824
0.8145
0.8205
0.831
0.8255
0.8295
0.8305
0.8285
0.823
0.819
0.8235
0.821
0.8105
0.7995
0.801
0.816
0.82
0.8325
0.849
0.8365
0.8245
0.835
0.846
0.83
0.825
0.83
0.8205
0.8345
0.8415
0.8215
0.8225
0.8325
0.836
0.8425
0.8295
0.8125
0.821
0.817
0.8125
0.8375
0.842
0.838
0.8325
0.8245
0.82
0.816
0.8235
0.8245
0.83
0.833
0.832
0.824
0.835
0.8635
0.862
0.8585
0.855
0.8415
0.833
0.835
0.8525
0.87
0.8815
0.8935
0.889
0.8825
0.879
0.864
0.8565
0.8575
0.8515
0.855
0.8695
0.864
0.8655
0.888
0.895
0.8905
0.89
0.891
0.876
0.861
0.87
0.8685
0.8695
0.8735
0.874
0.8865
0.8835
0.8695
0.864
0.8745
0.8865
0.8975
0.901
0.896
0.8905
0.8845
0.8945
0.9005
0.89
0.8825
0.8725
0.8695
0.8835
0.886
0.8835
0.886
0.8835
0.8715
0.874
0.8775
0.862
0.8605
0.875
0.8835
0.8895
0.901
0.8785
0.8515
0.852
0.861
0.867
0.858
0.8525
0.855
0.8545
0.852
0.8655
0.886
0.8915
0.88
0.863
0.8605
0.8645
0.8565
0.854
0.872
0.8675
0.8395
0.837
0.839
0.8335
0.8325
0.8275
0.8305
0.8215
0.81
0.8125
0.8105
0.808
0.797
0.797
0.807
0.8125
0.813
0.808
0.806
0.809
0.811
0.8005
0.7985
0.7975
0.792
0.802
0.817
0.8235
0.8115
0.814
0.817
0.8005
0.804
0.8105
0.804
0.8135
0.8155
0.8085
0.8075
0.7835
0.786
0.806
0.802
0.803
0.8065
0.806
0.8105
0.8145
0.7995
0.789
0.794
0.795
0.7875
0.7905
0.7965
0.795
0.8015
0.804
0.7995
0.796
0.798
0.7965
0.7965
0.795
0.792
0.806
0.8105
0.814
0.8125
0.798
0.795
0.788
0.7955
0.8085
0.801
0.7895
0.789
0.787
0.7685
0.7655
0.7615
0.7235
0.7245
0.7385
0.7275
0.7325
0.7305
0.7315
0.7265
0.7145
0.7105
0.7195
0.733
0.745
0.7675
0.807
0.8375
0.871
0.9245
0.966
0.9905
1.0245
1.0815
1.1135
1.1415
1.2025
1.265
1.3145
1.3585
1.3935
1.4115
1.426
1.454
1.458
1.461
1.48
1.4595
1.426
1.401
1.4065
1.398
1.385
1.392
1.349
1.297
1.2445
1.1865
1.141
1.0805
1.0215
0.977
0.921
0.875
0.838
0.827
0.83
0.8035
0.791
0.791
0.7985
0.793
0.7735
0.7705
0.7925
0.7975
0.788
0.801
0.798
0.801
0.7985
0.7995
0.8025
0.8015
0.7995
0.785
0.8015
0.814
0.8095
0.8175
0.8285
0.817
0.8105
0.8165
0.808
0.816
0.8225
0.8175
0.819
0.812
0.8055
0.7985
0.799
0.804
0.8025
0.8095
0.8115
0.8125
0.8115
0.812
0.8145
0.8135
0.81
0.799
0.7975
0.798
0.804
0.8125
0.8005
0.8055
0.817
0.8135
0.814
0.8065
0.7915
0.7975
0.804
0.7985
0.8115
0.813
0.7985
0.8025
0.8095
0.8015
0.7985
0.7995
0.8055
0.807
0.8155
0.8405
0.8395
0.8235
0.8185
0.8235
0.8185
0.823
0.8295
0.8295
0.819
0.8165
0.8385
0.8395
0.8405
0.831
0.8235
0.8335
0.8275
0.821
0.8215
0.825
0.8255
0.818
0.8225
0.8295
0.8235
0.818
0.827
0.8165
0.792
0.7925
0.807
0.8225
0.84
0.855
0.8565
0.848
0.83
0.8315
0.8435
0.8425
0.846
0.845
0.8415
0.849
0.8525
0.851
0.844
0.8365
0.84
0.836
0.832
0.838
0.8385
0.836
0.8405
0.8495
0.857
0.862
0.8645
0.8575
0.846
0.855
0.8605
0.8585
0.87
0.881
0.874
0.857
0.86
0.869
0.885
0.8795
0.86
0.8615
0.8525
0.856
0.8615
0.862
0.8645
0.8615
0.8765
0.8835
0.875
0.882
0.897
0.9125
0.907
0.8905
0.898
0.8995
0.9005
0.9205
0.9235
0.9125
0.9145
0.911
0.915
0.9165
0.9185
0.938
0.9305
0.93
0.9415
0.9365
0.9335
0.9425
0.9455
0.9465
0.961
0.9665
0.959
0.9595
0.962
0.9595
0.963
0.977
0.989
0.9885
0.995
0.9995
0.9995
1.0045
1.006
0.9965
0.9835
1.0
1.021
1.015
1.026
1.0295
1.0175
1.021
1.0295
1.036
1.031
1.04
1.059
1.065
1.0555
1.048
1.0465
1.0455
1.047
1.045
1.051
1.057
1.0425
1.046
1.073
1.07
1.062
1.071
1.0835
1.08
1.0675
1.0645
1.062
1.065
1.064
1.066
1.0645
1.0675
1.0585
1.05
1.059
1.0555
1.058
1.0565
1.055
1.061
1.0595
1.0505
1.049
1.043
1.029
1.0315
1.0255
1.0105
1.011
0.997
0.981
0.9835
0.9825
0.986
0.9805
0.9825
0.979
0.9685
0.9685
0.9455
0.938
0.9405
0.9355
0.943
0.9375
0.933
0.9295
0.918
0.9205
0.9075
0.9
0.9025
0.898
0.894
0.882
0.8875
0.877
0.8455
0.83
0.835
0.856
0.863
0.869
0.869
0.86
0.861
0.8505
0.846
0.8365
0.8245
0.8325
0.838
0.8445
0.845
0.839
0.833
0.8235
0.8265
0.8335
0.83
0.8335
0.8295
0.8135
0.8105
0.8235
0.8245
0.8185
0.827
0.8235
0.812
0.801
0.7955
0.8005
0.81
0.8195
0.8095
0.805
0.819
0.827
0.8345
0.8325
0.833
0.8325
0.8165
0.8165
0.8105
0.804
0.805
0.8105
0.8225
0.8125
0.8105
0.811
0.8125
0.817
0.812
0.809
0.807
0.8105
0.8135
0.823
0.8235
0.8035
0.805
0.818
0.808
0.8015
0.81
0.816
0.8115
0.8075
0.809
0.804
0.804
0.8
0.7965
0.8005
0.808
0.821
0.8255
0.824
0.823
0.813
0.799
0.796
0.793
0.7975
0.813
0.815
0.812
0.83
0.846
0.822
0.791
0.798
0.807
0.8115
0.8165
0.8065
0.8025
0.796
0.802
0.8055
0.8
0.816
0.811
0.8045
0.815
0.8255
0.8275
0.8165
0.799
0.7755
0.7775
0.794
0.802
0.799
0.8085
0.8205
0.809
0.808
0.813
0.8165
0.8085
0.8025
0.8135
0.812
0.8105
0.814
0.817
0.8185
0.814
0.817
0.816
0.8135
0.825
0.828
0.82
0.8245
0.828
0.823
0.811
0.81
0.8125
0.804
0.798
0.7975
0.81
0.813
0.809
0.8125
0.8165
0.8275
0.829
0.823
0.8255
0.8325
0.838
0.826
0.8195
0.8335
0.837
0.8315
0.829
0.8275
0.828
0.83
0.8215
0.81
0.8055
0.81
0.8215
0.818
0.8105
0.8075
0.816
0.83
0.8255
0.8145
0.806
0.8015
0.8025
0.803
0.804
0.799
0.7935
0.802
0.8195
0.829
0.8205
0.806
0.7985
0.7985
0.8045
0.815
0.8195
0.8155
0.805
0.803
0.807
0.798
0.8015
0.799
0.793
0.807
0.8145
0.832
0.845
0.8425
0.844
0.8365
0.8365
0.832
0.8015
0.796
0.8085
0.8005
0.797
0.801
0.8045
0.8055
0.812
0.816
0.8165
0.8195
0.8115
0.8185
0.8265
0.8175
0.818
0.825
0.825
0.821
0.8235
0.8385
0.845
0.835
0.8395
0.85
0.852
0.8505
0.8485
0.851
0.8545
0.8555
0.866
0.867
0.8615
0.873
0.8625
0.8575
0.865
0.8645
0.8675
0.8695
0.8755
0.8765
0.8675
0.853
0.867
0.878
0.869
0.8565
0.8485
0.861
0.8875
0.894
0.8695
0.879
0.893
0.882
0.878
0.8765
0.8735
0.8715
0.863
0.8565
0.8575
0.855
0.854
0.8585
0.87
0.87
0.861
0.8545
0.8605
0.8755
0.8705
0.8675
0.8825
0.8795
0.878
0.876
0.8575
0.8565
0.857
0.855
0.848
0.839
0.8495
0.8555
0.857
0.8645
0.866
0.866
0.8535
0.8495
0.859
0.856
0.8615
0.8665
0.8565
0.846
0.8465
0.853
0.855
0.846
0.8285
0.823
0.824
0.825
0.836
0.831
0.814
0.8135
0.8195
0.795
0.782
0.793
0.7975
0.811
0.8035
0.8045
0.813
0.8015
0.7935
0.7885
0.7875
0.7835
0.786
0.805
0.819
0.8115
0.8065
0.8005
0.7995
0.797
0.7865
0.7965
0.805
0.7975
0.7945
0.7995
0.789
0.783
0.785
0.7825
0.7915
0.775
0.7555
0.7665
0.7785
0.782
0.787
0.7885
0.7915
0.796
0.804
0.82
0.812
0.795
0.7875
0.786
0.787
0.7845
0.788
0.7885
0.7815
0.775
0.774
0.7775
0.787
0.7935
0.783
0.7775
0.7695
0.7725
0.785
0.781
0.784
0.789
0.7885
0.779
0.7625
0.749
0.749
0.745
0.7265
0.7295
0.7375
0.727
0.7145
0.711
0.715
0.7115
0.707
0.7085
0.708
0.7195
0.7365
0.7515
0.7685
0.7925
0.84
0.8685
0.895
0.951
0.9965
1.044
1.0935
1.139
1.1745
1.2025
1.246
1.297
1.339
1.377
1.406
1.425
1.4465
1.452
1.46
1.462
1.4495
1.438
1.423
1.4375
1.428
1.4105
1.4065
1.355
1.306
1.2565
1.1865
1.131
1.091
1.0405
0.977
0.914
0.867
0.8405
0.817
0.805
0.8005
0.7965
0.794
0.796
0.795
0.795
0.803
0.7965
0.7895
0.7875
0.7805
0.7785
0.79
0.81
0.8155
0.8145
0.8175
0.8065
0.7965
0.792
0.8025
0.8135
0.798
0.7935
0.796
0.794
0.7965
0.7995
0.806
0.803
0.8025
0.806
0.8005
0.802
0.819
0.82
0.799
0.791
0.787
0.7805
0.7765
0.767
0.7795
0.7915
0.784
0.7895
0.797
0.7895
0.786
0.789
0.785
0.7855
0.7895
0.796
0.7945
0.796
0.8035
0.791
0.789
0.794
0.802
0.8135
0.8135
0.8145
0.8075
0.8015
0.807
0.809
0.815
0.818
0.813
0.808
0.807
0.8095
0.809
0.8115
0.8155
0.8175
0.82
0.809
0.804
0.809
0.8135
0.819
0.8225
0.8175
0.805
0.802
0.798
0.7975
0.7995
0.7925
0.803
0.822
0.8195
0.8135
0.8175
0.83
0.834
0.8345
0.822
0.8105
0.8115
0.805
0.808
0.818
0.831
0.838
0.84
0.836
0.838
0.843
0.838
0.839
0.841
0.84
0.84
0.841
0.846
0.8505
0.851
0.848
0.8345
0.822
0.8245
0.8305
0.83
0.837
0.8425
0.8445
0.8495
0.845
0.838
0.833
0.835
0.8455
0.85
0.848
0.8475
0.853
0.859
0.8565
0.856
0.855
0.8585
0.865
0.86
0.864
0.8635
0.8625
0.87
0.8675
0.866
0.8785
0.8865
0.8755
0.8735
0.881
0.8835
0.8815
0.883
0.8935
0.906
0.9115
0.907
0.8995
0.909
0.9175
0.9105
0.918
0.9155
0.898
0.903
0.9225
0.925
0.9225
0.9225
0.9185
0.9305
0.9465
0.941
0.939
0.9465
0.9445
0.9385
0.935
0.9385
0.9355
0.94
0.972
0.999
1.01
1.0105
1.0005
1.002
1.01
1.0225
1.0285
1.027
1.0235
1.0205
1.0215
1.013
1.013
1.023
1.026
1.017
1.024
1.027
1.025
1.0405
1.0355
1.0385
1.038
1.0425
1.065
1.0645
1.0595
1.056
1.067
1.075
1.072
1.067
1.0595
1.063
1.0655
1.066
1.069
1.0765
1.066
1.055
1.064
1.066
1.0715
1.0745
1.0725
1.067
1.0675
1.067
1.059
1.0615
1.045
1.038
1.0515
1.052
1.0375
1.0325
1.0335
1.012
1.0045
1.0085
1.01
1.002
0.994
0.9995
0.9915
0.9875
0.9795
0.9715
0.9665
0.955
0.952
0.955
0.95
0.924
0.925
0.929
0.922
0.92
0.9115
0.9105
0.903
0.895
0.884
0.8725
0.864
0.8575
0.8515
0.851
0.8685
0.885
0.8835
0.871
0.8585
0.848
0.858
0.8635
0.8665
0.875
0.855
0.848
0.85
0.844
0.8475
0.846
0.8355
0.825
0.8145
0.8195
0.8265
0.8255
0.834
0.842
0.8305
0.822
0.825
0.8205
0.8135
0.8095
0.8095
0.805
0.8035
0.8065
0.8065
0.813
0.819
0.817
0.814
0.819
0.8165
0.811
0.821
0.824
0.817
0.821
0.812
0.8125
0.8225
0.82
0.823
0.8235
0.822
0.823
0.8245
0.8045
0.7885
0.7945
0.798
0.8015
0.812
0.8215
0.818
0.817
0.8075
0.805
0.814
0.818
0.8115
0.7995
0.8
0.805
0.8105
0.8035
0.799
0.8035
0.8025
0.797
0.7905
0.7905
0.7955
0.8
0.8015
0.807
0.813
0.8175
0.8105
0.8
0.797
0.7965
0.8035
0.807
0.8185
0.8285
0.82
0.8165
0.8075
0.807
0.8215
0.8155
0.7965
0.7865
0.7855
0.786
0.788
0.8065
0.8185
0.8175
0.8105
0.7985
0.797
0.798
0.8055
0.806
0.8095
0.8255
0.828
0.8165
0.8045
0.807
0.8145
0.8165
0.796
0.7795
0.79
0.7955
0.8055
0.7985
0.7945
0.803
0.8025
0.8075
0.804
0.813
0.82
0.819
0.8155
0.812
0.816
0.8145
0.8165
0.8135
0.8195
0.823
0.8055
0.803
0.8135
0.818
0.82
0.8165
0.8175
0.824
0.8255
0.817
0.8105
0.812
0.8065
0.8055
0.812
0.811
0.8025
0.8025
0.8105
0.806
0.795
0.7995
0.8065
0.8105
0.8125
0.807
0.8025
0.8095
0.809
0.8105
0.815
0.8155
0.8175
0.809
0.803
0.801
0.801
0.8085
0.814
0.8185
0.819
0.819
0.811
0.8
0.802
0.805
0.814
0.814
0.815
0.811
0.7955
0.8
0.7925
0.7835
0.792
0.8175
0.832
0.828
0.821
0.801
0.8065
0.8205
0.811
0.8035
0.807
0.8075
0.8105
0.811
0.805
0.812
0.8145
0.8
0.791
0.7955
0.7985
0.8025
0.8045
0.8035
0.798
0.7975
0.801
0.801
0.806
0.801
0.8145
0.8225
0.8135
0.814
0.8115
0.8125
0.8135
0.8125
0.8145
0.815
0.81
0.804
0.807
0.81
0.802
0.803
0.808
0.811
0.8125
0.8055
0.8075
0.813
0.81
0.808
0.8075
0.8095
0.81
0.8135
0.8155
0.81
0.8025
0.7965
0.7945
0.804
0.812
0.802
0.8195
0.855
0.8675
0.8615
0.8505
0.854
0.8615
0.861
0.853
0.844
0.836
0.8345
0.8415
0.849
0.851
0.8545
0.864
0.8735
0.8655
0.8595
0.8775
0.88
0.8795
0.8735
0.8665
0.87
0.873
0.8585
0.845
0.866
0.866
0.874
0.896
0.8985
0.8945
0.8935
0.8925
0.879
0.8755
0.8735
0.864
0.8635
0.8615
0.8495
0.8525
0.851
0.8445
0.8575
0.8785
0.888
0.877
0.8715
0.8655
0.8605
0.861
0.86
0.8665
0.871
0.8815
0.885
0.8885
0.8875
0.8645
0.8565
0.853
0.854
0.862
0.8565
0.858
0.8595
0.857
0.8565
0.853
0.8525
0.855
0.8595
0.86
0.849
0.8415
0.8425
0.8425
0.834
0.82
0.8155
0.8105
0.813
0.83
0.831
0.822
0.808
0.7895
0.7815
0.786
0.798
0.802
0.7965
0.8015
0.8105
0.8075
0.8105
0.8115
0.7995
0.7925
0.784
0.784
0.793
0.7995
0.798
0.791
0.796
0.8005
0.7925
0.787
0.795
0.8015
0.801
0.791
0.784
0.787
0.79
0.796
0.796
0.7865
0.7825
0.785
0.777
0.7735
0.7865
0.788
0.7815
0.7825
0.783
0.78
0.7725
0.7675
0.77
0.7915
0.805
0.8
0.801
0.796
0.7945
0.79
0.788
0.7895
0.7855
0.781
0.774
0.7675
0.763
0.77
0.778
0.788
0.799
0.798
0.7845
0.7735
0.7685
0.7675
0.7785
0.7755
0.7655
0.7595
0.7445
0.7435
0.7345
0.7055
0.6915
0.702
0.722
0.73
0.7215
0.7095
0.6985
0.7055
0.7215
0.741
0.7595
0.776
0.8195
0.864
0.911
0.9525
0.9975
1.06
1.114
1.1605
1.199
1.244
1.284
1.3285
1.3795
1.414
1.451
1.488
1.513
1.529
1.5375
1.539
1.523
1.5115
1.5015
1.4885
1.4755
1.461
1.4425
1.396
1.35
1.307
1.25
1.185
1.1245
1.064
0.9955
0.9335
0.8955
0.89
0.864
0.83
0.825
0.8145
0.807
0.806
0.799
0.7995
0.7995
0.798
0.8005
0.7985
0.8005
0.7985
0.796
0.804
0.8155
0.824
0.824
0.821
0.8205
0.8145
0.798
0.794
0.8015
0.7975
0.7915
0.791
0.7955
0.793
0.7825
0.786
0.777
0.7745
0.7935
0.7935
0.79
0.801
0.8155
0.8175
0.82
0.8205
0.812
0.8055
0.794
0.7935
0.7995
0.798
0.7985
0.799
0.7895
0.7795
0.791
0.798
0.785
0.7775
0.783
0.798
0.7995
0.789
0.784
0.795
0.8005
0.797
0.813
0.8215
0.8285
0.8255
0.8115
0.812
0.8055
0.7995
0.807
0.8155
0.8155
0.8055
0.803
0.8125
0.8135
0.811
0.809
0.805
0.805
0.813
0.8125
0.8195
0.822
0.8105
0.8015
0.791
0.802
0.813
0.8155
0.811
0.8085
0.8145
0.817
0.8285
0.838
0.829
0.82
0.825
0.827
0.8295
0.832
0.834
0.8385
0.8265
0.813
0.8165
0.8235
0.8155
0.817
0.83
0.83
0.8255
0.8275
0.839
0.845
0.842
0.833
0.8175
0.8225
0.832
0.8325
0.845
0.852
0.8445
0.84
0.8445
0.8515
0.857
0.8495
0.8475
0.856
0.848
0.8385
0.844
0.851
0.848
0.8445
0.8495
0.8485
0.8455
0.856
0.868
0.8615
0.8495
0.859
0.8635
0.8585
0.8555
0.8555
0.8675
0.874
0.874
0.8775
0.8815
0.886
0.883
0.881
0.892
0.8925
0.8895
0.899
0.9015
0.896
0.9
0.9165
0.922
0.9145
0.913
0.9185
0.9195
0.922
0.9235
0.921
0.9295
0.937
0.9375
0.937
0.943
0.9535
0.953
0.9575
0.967
0.9605
0.962
0.982
0.985
0.9785
0.987
0.987
0.984
0.9855
0.988
0.998
0.999
1.0035
1.018
1.0205
1.0175
1.016
1.0195
1.0205
1.018
1.032
1.0375
1.0335
1.041
1.0505
1.0575
1.057
1.0625
1.0725
1.078
1.0735
1.063
1.06
1.065
1.0675
1.063
1.066
1.074
1.073
1.073
1.0815
1.0725
1.068
1.0775
1.0775
1.079
1.08
1.0855
1.0935
1.0905
1.0835
1.081
1.0865
1.082
1.073
1.082
1.0815
1.0635
1.0535
1.048
1.0415
1.0415
1.0375
1.0235
1.024
1.026
1.0215
1.0245
1.0205
1.012
0.9955
0.991
1.011
1.016
0.99
0.983
0.987
0.962
0.945
0.9455
0.956
0.9485
0.9375
0.9455
0.9375
0.918
0.9095
0.909
0.906
0.909
0.9115
0.904
0.896
0.8915
0.89
0.881
0.868
0.866
0.869
0.8625
0.859
0.8575
0.85
0.8465
0.8495
0.8575
0.856
0.8515
0.8465
0.8445
0.8505
0.84
0.835
0.8385
0.831
0.8405
0.839
0.832
0.827
0.8135
0.8135
0.81
0.822
0.8325
0.835
0.826
0.8125
0.821
0.825
0.8245
0.823
0.826
0.825
0.825
0.8295
0.833
0.832
0.8285
0.8275
0.8325
0.829
0.811
0.8135
0.827
0.8325
0.826
0.8165
0.8095
0.7995
0.8
0.8035
0.8065
0.808
0.812
0.817
0.8125
0.81
0.8085
0.817
0.8175
0.81
0.8075
0.8065
0.8135
0.8195
0.8305
0.819
0.8115
0.8255
0.8155
0.798
0.793
0.8015
0.812
0.8135
0.8085
0.807
0.807
0.8065
0.816
0.82
0.815
0.815
0.812
0.815
0.8085
0.8015
0.8225
0.8215
0.819
0.818
0.8075
0.808
0.807
0.8065
0.8065
0.8125
0.8065
0.8005
0.799
0.798
0.8
0.803
0.816
0.8185
0.8165
0.818
0.827
0.821
0.796
0.7895
0.7945
0.807
0.812
0.8045
0.7985
0.7935
0.8065
0.823
0.822
0.8235
0.82
0.812
0.8175
0.827
0.827
0.8225
0.828
0.827
0.8205
0.8095
0.792
0.7925
0.801
0.806
0.8035
0.807
0.8095
0.803
0.8115
0.824
0.8225
0.8165
0.819
0.8165
0.814
0.814
0.81
0.8135
0.816
0.823
0.828
0.8265
0.821
0.8145
0.8115
0.8125
0.814
0.811
0.8205
0.827
0.814
0.8035
0.806
0.8075
0.8065
0.816
0.8265
0.823
0.807
0.7955
0.815
0.8265
0.8195
0.82
0.8075
0.807
0.8195
0.8245
0.8255
0.825
0.8205
0.812
0.8105
0.8065
0.8005
0.82
0.836
0.8295
0.818
0.805
0.812
0.819
0.815
0.814
0.815
0.8165
0.822
0.8235
0.8155
0.8035
0.794
0.805
0.809
0.818
0.83
0.8235
0.8225
0.813
0.8135
0.8215
0.824
0.819
0.802
0.806
0.8085
0.8075
0.8075
0.801
0.8095
0.8105
0.8085
0.8145
0.8195
0.8175
0.8145
0.8175
0.8125
0.8175
0.817
0.81
0.814
0.8135
0.808
0.8035
0.809
0.8155
0.821
0.822
0.8165
0.815
0.8135
0.8125
0.805
0.791
0.789
0.8025
0.807
0.8085
0.8145
0.809
0.8055
0.807
0.812
0.8115
0.8105
0.813
0.813
0.811
0.8025
0.7985
0.7905
0.792
0.799
0.7945
0.795
0.8065
0.8145
0.809
0.805
0.8065
0.8125
0.8225
0.8215
0.8415
0.8585
0.8205
0.804
0.817
0.8095
0.7955
0.792
0.791
0.7885
0.7995
0.8175
0.826
0.828
0.8185
0.812
0.8135
0.8035
0.804
0.8165
0.8215
0.8085
0.804
0.819
0.825
0.8295
0.832
0.828
0.8145
0.807
0.812
0.814
0.8255
0.8275
0.824
0.829
0.828
0.835
0.8345
0.8235
0.823
0.8275
0.8385
0.8425
0.8365
0.843
0.861
0.8635
0.854
0.849
0.8535
0.8705
0.864
0.8515
0.864
0.8775
0.878
0.8785
0.8785
0.8815
0.88
0.8695
0.877
0.8785
0.8695
0.8695
0.874
0.8805
0.881
0.8815
0.8875
0.893
0.892
0.8855
0.878
0.8675
0.863
0.864
0.8655
0.8615
0.87
0.887
0.885
0.8835
0.8855
0.8775
0.8675
0.8655
0.8665
0.8755
0.878
0.872
0.879
0.888
0.8935
0.895
0.881
0.867
0.8665
0.861
0.8495
0.8485
0.8525
0.8555
0.86
0.869
0.8865
0.8845
0.87
0.864
0.8655
0.8645
0.8615
0.856
0.8545
0.8565
0.859
0.863
0.852
0.852
0.853
0.844
0.8245
0.7965
0.7965
0.8
0.8005
0.8095
0.8175
0.8095
0.785
0.7755
0.785
0.796
0.8065
0.805
0.801
0.8035
0.8025
0.8045
0.8115
0.812
0.8025
0.801
0.807
0.8115
0.8105
0.803
0.793
0.7955
0.7925
0.789
0.799
0.804
0.8075
0.807
0.802
0.7935
0.789
0.795
0.8025
0.803
0.801
0.801
0.799
0.797
0.7935
0.7925
0.782
0.7735
0.775
0.7745
0.783
0.777
0.7775
0.8015
0.808
0.8175
0.821
0.816
0.808
0.78
0.7845
0.795
0.7835
0.7855
0.7825
0.7815
0.7865
0.7905
0.79
0.7815
0.7795
0.78
0.7835
0.784
0.775
0.7715
0.7695
0.7665
0.759
0.7435
0.712
0.697
0.703
0.6975
0.7055
0.705
0.6965
0.689
0.675
0.6835
0.711
0.743
0.766
0.782
0.8245
0.87
0.9
0.945
0.9955
1.062
1.12
1.166
1.215
1.257
1.312
1.35
1.3815
1.433
1.479
1.5155
1.5405
1.5455
1.558
1.57
1.5705
1.579
1.558
1.5355
1.524
1.5215
1.517
1.465
1.3985
1.3495
1.2965
1.2175
1.155
1.1035
1.0355
0.9615
0.898
0.8625
0.836
0.819
0.801
0.7915
0.7935
0.7975
0.797
0.7885
0.7925
0.806
0.815
0.8155
0.808
0.8065
0.8095
0.8
0.8095
0.8125
0.7965
0.804
0.818
0.8225
0.819
0.803
0.7845
0.7845
0.7915
0.7975
0.7975
0.8025
0.8145
0.806
0.794
0.7945
0.7945
0.787
0.7815
0.781
0.8015
0.821
0.8095
0.799
0.8
0.7915
0.789
0.803
0.818
0.814
0.7905
0.7795
0.7885
0.79
0.788
0.7995
0.797
0.7975
0.805
0.797
0.7985
0.8015
0.806
0.8085
0.805
0.81
0.81
0.8075
0.8065
0.8115
0.8145
0.81
0.813
0.8135
0.8115
0.8165
0.8175
0.809
0.814
0.8145
0.807
0.7975
0.7935
0.797
0.789
0.797
0.8055
0.8085
0.82
0.8175
0.8235
0.8305
0.825
0.825
0.8295
0.822
0.8135
0.8165
0.8215
0.826
0.8245
0.831
0.832
0.8295
0.832
0.824
0.8215
0.834
0.8405
0.83
0.821
0.806
0.8035
0.813
0.8155
0.8185
0.821
0.833
0.8435
0.845
0.8465
0.8425
0.836
0.8365
0.84
0.844
0.8365
0.828
0.833
0.8315
0.8325
0.855
0.8665
0.8625
0.8705
0.8655
0.847
0.8415
0.8435
0.8545
0.8555
0.854
0.864
0.857
0.8505
0.8555
0.85
0.846
0.8595
0.87
0.8635
0.8615
0.872
0.8795
0.88
0.881
0.888
0.8945
0.885
0.8795
0.887
0.9015
0.9
0.892
0.9025
0.9035
0.8945
0.8865
0.892
0.891
0.8995
0.912
0.916
0.933
0.9355
0.9305
0.9345
0.9395
0.9405
0.936
0.9325
0.934
0.928
0.926
0.9445
0.953
0.9515
0.9675
0.9725
0.969
0.971
0.973
0.9865
0.9925
0.9935
0.995
1.0005
1.0045
1.0025
1.0045
1.012
1.0195
1.0315
1.0395
1.027
1.0235
1.025
1.0265
1.0245
1.031
1.0545
1.0645
1.0675
1.063
1.0525
1.0475
1.052
1.049
1.0595
1.078
1.0645
1.0685
1.0815
1.0855
1.098
1.0985
1.097
1.0895
1.092
1.091
1.079
1.0865
1.088
1.083
1.085
1.087
1.088
1.0895
1.0925
1.091
1.0985
1.1075
1.1055
1.1035
1.0985
1.0885
1.0855
1.0875
1.0695
1.0545
1.0545
1.0475
1.042
1.042
1.0465
1.0395
1.0265
1.0255
1.021
1.0025
0.9915
0.9865
0.9895
1.0045
1.014
1.003
0.964
0.958
0.9595
0.948
0.953
0.9525
0.948
0.9405
0.9365
0.926
0.9225
0.9315
0.927
0.911
0.899
0.8905
0.881
0.8875
0.8815
0.868
0.871
0.871
0.874
0.866
0.8605
0.8615
0.8585
0.857
0.8475
0.8465
0.84
0.836
0.837
0.8255
0.814
0.823
0.835
0.827
0.832
0.843
0.8465
0.841
0.834
0.8405
0.8375
0.821
0.8165
0.813
0.823
0.832
0.821
0.825
0.8305
0.836
0.8275
0.81
0.819
0.8215
0.8165
0.8145
0.814
0.8105
0.811
0.8355
0.8365
0.8175
0.811
0.8065
0.805
0.8085
0.816
0.817
0.8055
0.7985
0.8
0.8065
0.817
0.8145
0.808
0.793
0.7895
0.812
0.8075
0.802
0.8175
0.8185
0.813
0.814
0.8225
0.821
0.813
0.808
0.805
0.8135
0.817
0.8085
0.8115
0.821
0.8095
0.798
0.806
0.8075
0.804
0.81
0.8095
0.8095
0.8125
0.8045
0.7945
0.7935
0.7985
0.801
0.8025
0.8015
0.801
0.817
0.828
0.8225
0.81
0.804
0.7985
0.7945
0.7985
0.8005
0.819
0.8255
0.8195
0.816
0.8075
0.801
0.8135
0.8245
0.8215
0.829
0.8305
0.832
0.8275
0.8175
0.8295
0.8355
0.8105
0.7965
0.809
0.813
0.8105
0.8075
0.796
0.792
0.7995
0.8015
0.803
0.8125
0.819
0.819
0.819
0.8195
0.821
0.8145
0.809
0.8075
0.807
0.8175
0.8195
0.8145
0.8145
0.81
0.806
0.81
0.8085
0.8075
0.812
0.818
0.828
0.8355
0.833
0.8155
0.8095
0.8125
0.803
0.807
0.8165
0.819
0.8235
0.8215
0.82
0.8275
0.8335
0.8215
0.8105
0.8075
0.804
0.8115
0.8175
0.8205
0.815
0.811
0.818
0.8065
0.8005
0.8085
0.8075
0.81
0.816
0.8075
0.802
0.815
0.8185
0.811
0.7975
0.789
0.8035
0.8175
0.832
0.8395
0.8365
0.832
0.8185
0.813
0.8205
0.821
0.813
0.8185
0.8155
0.814
0.8085
0.806
0.821
0.822
0.815
0.809
0.828
0.834
0.809
0.807
0.822
0.815
0.804
0.815
0.812
0.7865
0.7825
0.802
0.8075
0.805
0.812
0.816
0.804
0.7975
0.8095
0.815
0.803
0.8045
0.813
0.805
0.8015
0.799
0.8045
0.8105
0.8175
0.8245
0.819
0.809
0.7965
0.797
0.7985
0.8045
0.806
0.8035
0.8075
0.8025
0.807
0.819
0.822
0.8245
0.8065
0.7915
0.801
0.799
0.7975
0.8015
0.8085
0.804
0.798
0.8035
0.8055
0.815
0.814
0.81
0.81
0.81
0.808
0.8005
0.803
0.7955
0.789
0.7915
0.8045
0.8075
0.7955
0.8005
0.8
0.8015
0.805
0.808
0.8065
0.8105
0.8125
0.803
0.8175
0.8225
0.8165
0.8225
0.833
0.826
0.811
0.8175
0.8095
0.8005
0.8145
0.8275
0.818
0.804
0.807
0.8135
0.8265
0.836
0.8295
0.831
0.8365
0.8355
0.8365
0.8425
0.847
0.847
0.848
0.8565
0.8675
0.8685
0.865
0.864
0.8635
0.8605
0.859
0.861
0.8605
0.8725
0.8925
0.8975
0.8885
0.8895
0.897
0.89
0.8875
0.893
0.885
0.875
0.88
0.886
0.8785
0.8775
0.889
0.8955
0.8945
0.8935
0.8875
0.8855
0.8885
0.8905
0.8815
0.8775
0.8815
0.8835
0.891
0.8905
0.894
0.885
0.883
0.901
0.893
0.8755
0.8845
0.8875
0.8815
0.8815
0.8795
0.874
0.8635
0.871
0.8755
0.8695
0.8735
0.8695
0.864
0.87
0.8775
0.888
0.891
0.869
0.848
0.855
0.869
0.8705
0.8435
0.838
0.8505
0.8425
0.839
0.8325
0.8265
0.829
0.8305
0.821
0.816
0.813
0.8075
0.8095
0.8075
0.817
0.823
0.808
0.7985
0.805
0.8115
0.8125
0.8075
0.804
0.7945
0.7945
0.803
0.7875
0.7795
0.7865
0.8055
0.8235
0.8195
0.815
0.8125
0.8125
0.8045
0.786
0.78
0.7795
0.7845
0.798
0.7905
0.78
0.778
0.771
0.773
0.783
0.791
0.7945
0.8015
0.8005
0.7975
0.7975
0.793
0.782
0.7715
0.785
0.7925
0.791
0.7925
0.7825
0.775
0.7745
0.769
0.772
0.785
0.7825
0.774
0.7735
0.777
0.7775
0.7855
0.787
0.7765
0.771
0.766
0.768
0.7695
0.7685
0.771
0.777
0.7755
0.7735
0.7865
0.787
0.774
0.772
0.7855
0.786
0.7735
0.77
0.755
0.745
0.745
0.739
0.7255
0.713
0.71
0.6975
0.683
0.686
0.6865
0.6775
0.679
0.687
0.687
0.6905
0.716
0.7275
0.7605
0.8195
0.853
0.886
0.926
0.968
1.0185
1.065
1.1185
1.182
1.225
1.2635
1.3165
1.3695
1.4115
1.435
1.4575
1.4925
1.515
1.525
1.5285
1.5205
1.513
1.4925
1.4745
1.4675
1.458
1.461
1.4285
1.3655
1.3235
1.2825
1.2225
1.1585
1.0925
1.0145
0.947
0.883
0.8325
0.8155
0.8085
0.7905
0.77
0.762
0.7655
0.769
0.771
0.7635
0.7635
0.7765
0.77
0.7715
0.7775
0.7735
0.788
0.8015
0.7845
0.7675
0.7635
0.765
0.772
0.794
0.8075
0.791
0.781
0.7845
0.7985
0.8025
0.7955
0.804
0.808
0.812
0.808
0.777
0.7605
0.767
0.7805
0.7835
0.777
0.7835
0.782
0.7885
0.796
0.793
0.792
0.793
0.793
0.793
0.802
0.796
0.7815
0.7815
0.7925
0.802
0.802
0.7985
0.795
0.7855
0.7745
0.7725
0.78
0.7945
0.7995
0.8005
0.808
0.8115
0.806
0.7985
0.8045
0.8085
0.8045
0.8065
0.807
0.799
0.797
0.7985
0.7955
0.795
0.8025
0.81
0.8135
0.82
0.805
0.7975
0.8025
0.7985
0.8155
0.8195
0.816
0.8155
0.809
0.8055
0.8165
0.8305
0.829
0.8145
0.806
0.8205
0.817
0.8095
0.813
0.8165
0.8205
0.8115
0.81
0.807
0.7945
0.79
0.793
0.8205
0.844
0.838
0.838
0.8475
0.842
0.8375
0.835
0.8245
0.832
0.839
0.8475
0.8385
0.8245
0.8465
0.854
0.8475
0.849
0.8505
0.848
0.8455
0.8465
0.8385
0.8365
0.8435
0.84
0.846
0.8475
0.848
0.855
0.855
0.8515
0.857
0.8665
0.8625
0.867
0.877
0.87
0.8575
0.8645
0.8675
0.876
0.8855
0.875
0.869
0.8635
0.8665
0.866
0.8695
0.8785
0.887
0.8925
0.889
0.891
0.897
0.902
0.904
0.915
0.9175
0.921
0.9265
0.9125
0.911
0.927
0.9255
0.9195
0.9255
0.9335
0.935
0.936
0.9525
0.9535
0.9445
0.9565
0.9695
0.9645
0.9615
0.9645
0.966
0.9775
0.979
0.9765
0.9735
0.9755
0.9945
1.0115
1.014
1.0105
1.0095
1.0155
1.019
1.0175
1.0245
1.0305
1.0355
1.0465
1.055
1.0485
1.0405
1.0485
1.051
1.05
1.0565
1.056
1.067
1.073
1.0625
1.0635
1.068
1.07
1.074
1.077
1.081
1.081
1.082
1.0845
1.0795
1.091
1.1065
1.098
1.083
1.0685
1.0645
1.076
1.0795
1.0695
1.076
1.0995
1.1055
1.101
1.0975
1.0955
1.072
1.064
1.076
1.0785
1.0745
1.062
1.062
1.05
1.0405
1.033
1.0225
1.0245
1.024
1.018
1.0265
1.031
1.003
0.9865
0.9805
0.9725
0.968
0.9665
0.964
0.9585
0.9615
0.955
0.942
0.95
0.9505
0.943
0.947
0.9325
0.916
0.9085
0.904
0.9035
0.89
0.8785
0.8745
0.871
0.8675
0.865
0.8965
0.903
0.8745
0.87
0.8585
0.8505
0.8415
0.8315
0.8335
0.8285
0.828
0.84
0.852
0.8455
0.837
0.8425
0.8455
0.8435
0.8395
0.827
0.8225
0.8185
0.814
0.824
0.825
0.826
0.832
0.8275
0.818
0.817
0.8215
0.818
0.813
0.802
0.7965
0.798
0.796
0.8045
0.799
0.7915
0.8105
0.8225
0.8295
0.8305
0.824
0.8135
0.814
0.8335
0.826
0.8155
0.807
0.7965
0.7975
0.7845
0.785
0.806
0.8085
0.8045
0.8
0.796
0.8005
0.7955
0.798
0.799
0.8065
0.8095
0.7925
0.802
0.813
0.8
0.796
0.8035
0.797
0.789
0.798
0.802
0.8005
0.79
0.781
0.781
0.7825
0.8075
0.821
0.8165
0.816
0.82
0.83
0.8235
0.8065
0.8055
0.8125
0.8135
0.7965
0.785
0.784
0.777
0.785
0.791
0.798
0.793
0.7825
0.783
0.7775
0.79
0.7985
0.814
0.824
0.811
0.8095
0.7965
0.8005
0.7965
0.788
0.801
0.8025
0.8105
0.822
0.828
0.814
0.8125
0.8175
0.796
0.8035
0.8065
0.7955
0.7995
0.7925
0.7875
0.7965
0.7985
0.795
0.7975
0.796
0.8015
0.7995
0.7975
0.806
0.802
0.8065
0.823
0.818
0.8065
0.8155
0.812
0.8035
0.818
0.8235
0.81
0.8075
0.8145
0.82
0.8155
0.8155
0.817
0.8165
0.8235
0.8125
0.8075
0.814
0.8175
0.8135
0.8145
0.821
0.814
0.8135
0.808
0.797
0.789
0.787
0.797
0.8045
0.814
0.8115
0.8005
0.8055
0.807
0.806
0.801
0.7935
0.7895
0.7955
0.7965
0.7915
0.807
0.813
0.817
0.8115
0.7945
0.8105
0.826
0.8285
0.8305
0.8225
0.813
0.8125
0.814
0.808
0.8115
0.8115
0.7995
0.787
0.7945
0.813
0.8045
0.8045
0.8105
0.8095
0.809
0.805
0.8035
0.7945
0.794
0.794
0.793
0.8085
0.814
0.8145
0.806
0.782
0.789
0.808
0.809
0.8145
0.7975
0.788
0.8085
0.819
0.8155
0.806
0.8055
0.8035
0.799
0.8
0.7835
0.781
0.799
0.797
0.8005
0.7995
0.8015
0.8135
0.804
0.804
0.818
0.819
0.7985
0.787
0.8025
0.8235
0.827
0.8085
0.8015
0.7965
0.797
0.8175
0.82
0.8195
0.8195
0.813
0.815
0.8095
0.808
0.82
0.83
0.83
0.8325
0.8345
0.831
0.833
0.833
0.842
0.853
0.851
0.859
0.865
0.857
0.8565
0.848
0.8385
0.8465
0.852
0.84
0.8505
0.861
0.8505
0.8525
0.8485
0.849
0.858
0.8525
0.8585
0.875
0.866
0.8555
0.8685
0.878
0.8745
0.8795
0.8835
0.88
0.8765
0.8805
0.876
0.863
0.8715
0.866
0.852
0.853
0.857
0.853
0.8575
0.865
0.8645
0.871
0.859
0.8645
0.8765
0.869
0.8565
0.8425
0.857
0.872
0.87
0.867
0.8615
0.8615
0.8625
0.857
0.855
0.8445
0.842
0.855
0.8505
0.855
0.872
0.859
0.842
0.839
0.8265
0.827
0.844
0.857
0.8505
0.839
0.834
0.8235
0.8255
0.838
0.8495
0.845
0.826
0.821
0.8185
0.815
0.8085
0.7965
0.7965
0.79
0.788
0.7925
0.7885
0.7855
0.777
0.782
0.7895
0.7915
0.7865
0.7925
0.803
0.7935
0.7875
0.7835
0.7845
0.786
0.793
0.797
0.7955
0.786
0.775
0.7815
0.783
0.7795
0.7855
0.7885
0.7745
0.774
0.7845
0.777
0.7645
0.7645
0.7645
0.773
0.7755
0.782
0.7955
0.7855
0.7865
0.7805
0.7855
0.796
0.7935
0.7835
0.7645
0.764
0.763
0.775
0.7845
0.778
0.7835
0.7795
0.7685
0.7695
0.7845
0.7865
0.784
0.7955
0.7885
0.784
0.7975
0.799
0.7925
0.788
0.783
0.7685
0.748
0.745
0.7465
0.74
0.729
0.7225
0.714
0.7055
0.7025
0.692
0.6985
0.7255
0.7245
0.7035
0.687
0.692
0.709
0.7065
0.709
0.7265
0.7525
0.7915
0.84
0.88
0.9125
0.9565
1.0125
1.062
1.1075
1.1525
1.1895
1.234
1.2765
1.3215
1.3715
1.4065
1.4365
1.458
1.477
1.485
1.488
1.485
1.463
1.4355
1.412
1.408
1.4045
1.4045
1.379
1.3135
1.253
1.212
1.1485
1.082
1.042
0.976
0.907
0.8625
0.8275
0.803
0.787
0.7775
0.768
0.765
0.778
0.7795
0.7685
0.759
0.7695
0.775
0.7615
0.768
0.7745
0.7775
0.7745
0.768
0.774
0.777
0.7725
0.763
0.7775
0.796
0.789
0.78
0.7765
0.788
0.7865
0.789
0.7915
0.779
0.779
0.7805
0.7855
0.7955
0.8005
0.794
0.7875
0.7865
0.776
0.785
0.7935
0.7895
0.7965
0.7945
0.7835
0.78
0.791
0.776
0.764
0.786
0.7935
0.802
0.805
0.794
0.803
0.821
0.8195
0.8065
0.7885
0.78
0.7835
0.7835
0.7745
0.7795
0.798
0.793
0.788
0.795
0.803
0.81
0.8065
0.802
0.7955
0.792
0.7975
0.7925
0.792
0.804
0.8055
0.802
0.8
0.8
0.807
0.8085
0.8005
0.7965
0.795
0.7995
0.802
0.814
0.8245
0.8135
0.8145
0.8105
0.7995
0.8065
0.811
0.8105
0.806
0.808
0.801
0.782
0.787
0.7935
0.7965
0.819
0.826
0.8205
0.819
0.812
0.8175
0.83
0.833
0.835
0.8325
0.8365
0.8535
0.848
0.838
0.8335
0.828
0.817
0.8
0.807
0.8375
0.8515
0.838
0.831
0.8205
0.8215
0.838
0.8315
0.826
0.8325
0.8435
0.8515
0.8565
0.855
0.844
0.836
0.8365
0.849
0.8515
0.845
0.844
0.8455
0.85
0.859
0.873
0.883
0.882
0.8685
0.858
0.862
0.865
0.867
0.8595
0.8655
0.871
0.8615
0.864
0.8645
0.879
0.8715
0.877
0.8955
0.892
0.8985
0.8885
0.886
0.904
0.91
0.902
0.9045
0.9155
0.9255
0.9195
0.913
0.9275
0.9375
0.9355
0.9315
0.924
0.929
0.9365
0.9435
0.9535
0.9575
0.963
0.9705
0.9705
0.9625
0.9805
0.9855
0.9675
0.968
0.97
0.9825
1.0
1.0185
1.02
1.0115
1.0225
1.028
1.038
1.0405
1.0305
1.0335
1.0385
1.037
1.04
1.0405
1.042
1.051
1.0445
1.042
1.053
1.0565
1.06
1.062
1.053
1.0465
1.0495
1.05
1.047
1.055
1.0675
1.0715
1.0745
1.0875
1.0775
1.0635
1.076
1.0825
1.0765
1.0625
1.0615
1.062
1.065
1.0585
1.0495
1.0535
1.059
1.059
1.053
1.0535
1.043
1.0345
1.0345
1.0335
1.0265
1.0055
1.003
1.0125
1.008
0.9905
0.981
0.9765
0.9645
0.9595
0.954
0.949
0.948
0.951
0.948
0.9535
0.9465
0.929
0.92
0.911
0.909
0.904
0.9015
0.9025
0.903
0.8775
0.8645
0.8705
0.8625
0.867
0.8785
0.8695
0.8395
0.8195
0.817
0.821
0.815
0.821
0.854
0.854
0.846
0.853
0.8475
0.8365
0.83
0.8295
0.83
0.8345
0.828
0.8245
0.8205
0.8195
0.821
0.811
0.8125
0.8255
0.814
0.7925
0.798
0.806
0.815
0.8175
0.8105
0.8055
0.803
0.79
0.7775
0.792
0.7955
0.795
0.8
0.801
0.8035
0.805
0.813
0.8195
0.8115
0.806
0.812
0.8005
0.8025
0.806
0.797
0.7845
0.7715
0.7805
0.787
0.794
0.804
0.801
0.7905
0.793
0.801
0.796
0.7975
0.7965
0.7945
0.8055
0.8005
0.7895
0.7905
0.7855
0.784
0.785
0.7835
0.7905
0.789
0.7865
0.794
0.792
0.7715
0.7725
0.7935
0.7925
0.7935
0.7865
0.77
0.7715
0.7615
0.759
0.761
0.769
0.796
0.7995
0.8
0.797
0.7975
0.803
0.7945
0.7905
0.7915
0.7935
0.7865
0.7855
0.7895
0.7915
0.792
0.789
0.8025
0.8045
0.7905
0.7855
0.779
0.7775
0.7815
0.7855
0.793
0.7945
0.804
0.812
0.8045
0.8035
0.8005
0.8015
0.8
0.795
0.803
0.7885
0.776
0.796
0.803
0.7955
0.7865
0.788
0.797
0.803
0.8095
0.81
0.8135
0.815
0.8065
0.8025
0.794
0.773
0.7685
0.7705
0.7705
0.795
0.8165
0.816
0.8175
0.8135
0.8155
0.819
0.8025
0.79
0.7815
0.781
0.7865
0.7825
0.7835
0.799
0.81
0.8025
0.8005
0.799
0.804
0.8135
0.8095
0.8015
0.797
0.795
0.7885
0.7855
0.791
0.799
0.8
0.793
0.787
0.7895
0.788
0.785
0.794
0.81
0.8185
0.8095
0.8085
0.814
0.81
0.796
0.7905
0.799
0.7935
0.78
0.777
0.783
0.7835
0.7815
0.793
0.8005
0.8
0.8105
0.8165
0.8085
0.7935
0.7835
0.7935
0.796
0.786
0.7965
0.8055
0.794
0.7985
0.8015
0.7955
0.7965
0.791
0.791
0.7915
0.785
0.7885
0.791
0.786
0.776
0.782
0.805
0.789
0.7765
0.7805
0.7825
0.7915
0.795
0.807
0.7925
0.7775
0.792
0.7885
0.7855
0.786
0.7815
0.786
0.7835
0.7845
0.804
0.801
0.7815
0.781
0.789
0.7915
0.7835
0.7915
0.799
0.7935
0.8015
0.821
0.823
0.803
0.7995
0.8065
0.8125
0.8205
0.8265
0.831
0.8225
0.816
0.82
0.8105
0.8095
0.811
0.821
0.8505
0.847
0.841
0.8395
0.837
0.8425
0.8375
0.8485
0.848
0.8375
0.8515
0.8505
0.8405
0.839
0.8325
0.826
0.822
0.822
0.83
0.849
0.8605
0.8515
0.8495
0.8605
0.8745
0.8715
0.8535
0.852
0.848
0.836
0.831
0.834
0.835
0.8325
0.833
0.828
0.836
0.8505
0.8455
0.844
0.8395
0.8365
0.8465
0.8585
0.858
0.8525
0.856
0.848
0.845
0.8525
0.8495
0.841
0.831
0.836
0.8355
0.822
0.827
0.8285
0.8295
0.829
0.829
0.8275
0.817
0.8145
0.814
0.8095
0.8205
0.831
0.8265
0.825
0.8055
0.7875
0.7875
0.7925
0.7975
0.79
0.7935
0.7985
0.791
0.7895
0.794
0.789
0.777
0.779
0.779
0.7815
0.787
0.784
0.7765
0.767
0.7685
0.769
0.755
0.7485
0.7575
0.767
0.7645
0.7655
0.7765
0.7795
0.7755
0.776
0.7715
0.7795
0.782
0.767
0.7695
0.7665
0.7625
0.764
0.7625
0.766
0.773
0.7675
0.769
0.767
0.7665
0.778
0.773
0.765
0.755
0.756
0.7565
0.743
0.739
0.7455
0.752
0.7645
0.795
0.786
0.774
0.785
0.7635
0.756
0.756
0.7595
0.7685
0.7645
0.7555
0.7585
0.766
0.769
0.775
0.7665
0.763
0.749
0.74
0.7335
0.7175
0.7175
0.713
0.707
0.698
0.697
0.701
0.7005
0.6935
0.6865
0.693
0.703
0.7015
0.694
0.6925
0.694
0.7165
0.744
0.7675
0.7965
0.822
0.854
0.8865
0.931
0.9955
1.0505
1.0895
1.1205
1.1675
1.2205
1.261
1.3005
1.3365
1.361
1.3855
1.4165
1.4295
1.4365
1.4415
1.435
1.4355
1.411
1.383
1.3735
1.361
1.3535
1.3315
1.2775
1.2295
1.1875
1.126
1.086
1.0375
0.9665
0.9135
0.8615
0.8145
0.787
0.7795
0.7875
0.773
0.7555
0.7485
0.733
0.7285
0.7225
0.721
0.7305
0.7445
0.7645
0.782
0.782
0.7795
0.779
0.7785
0.777
0.766
0.759
0.76
0.7695
0.768
0.762
0.762
0.753
0.7515
0.7685
0.7865
0.7805
0.7735
0.7845
0.774
0.764
0.7705
0.7695
0.7695
0.7725
0.7745
0.7705
0.768
0.7735
0.774
0.774
0.783
0.7755
0.7655
0.776
0.776
0.782
0.793
0.79
0.779
0.783
0.789
0.772
0.7725
0.7775
0.771
0.7745
0.7785
0.78
0.786
0.7905
0.792
0.7915
0.7875
0.7805
0.7735
0.779
0.7815
0.7745
0.7755
0.7725
0.7785
0.785
0.7865
0.7885
0.7785
0.773
0.772
0.7825
0.7855
0.786
0.783
0.7715
0.7845
0.801
0.798
0.7775
0.786
0.789
0.777
0.7835
0.782
0.7855
0.782
0.782
0.783
0.7845
0.787
0.7935
0.7975
0.7985
0.814
0.804
0.801
0.8065
0.804
0.803
0.7945
0.7885
0.786
0.787
0.788
0.793
0.795
0.8045
0.808
0.796
0.798
0.8055
0.8035
0.8035
0.8085
0.806
0.813
0.8165
0.819
0.828
0.817
0.805
0.799
0.798
0.7895
0.7845
0.7875
0.8055
0.834
0.8335
0.833
0.8355
0.8305
0.834
0.8405
0.8385
0.842
0.854
0.849
0.849
0.854
0.847
0.8475
0.853
0.849
0.844
0.8505
0.857
0.8595
0.8625
0.864
0.8585
0.847
0.844
0.85
0.8535
0.8595
0.8685
0.8755
0.8715
0.876
0.894
0.893
0.8955
0.903
0.903
0.8995
0.8955
0.899
0.896
0.889
0.897
0.91
0.9145
0.9205
0.9215
0.922
0.9335
0.9445
0.9435
0.935
0.9335
0.93
0.9365
0.9475
0.949
0.9585
0.9595
0.956
0.9625
0.959
0.962
0.978
0.976
0.979
0.993
1.005
1.013
1.01
1.012
1.0165
1.0115
1.013
1.0145
1.009
1.0225
1.0335
1.032
1.032
1.0285
1.0395
1.047
1.0415
1.04
1.031
1.023
1.024
1.0245
1.026
1.0335
1.032
1.028
1.0205
1.021
1.036
1.037
1.0345
1.034
1.0285
1.025
1.031
1.0385
1.0335
1.0245
1.024
1.0165
1.0
0.991
0.994
1.006
1.0075
1.0105
1.0065
0.975
0.9745
0.985
0.9685
0.961
0.961
0.9385
0.9105
0.9175
0.9245
0.9155
0.913
0.9165
0.9095
0.9005
0.899
0.8945
0.888
0.8805
0.874
0.872
0.858
0.8495
0.8545
0.846
0.841
0.837
0.8375
0.8455
0.844
0.8305
0.8325
0.837
0.825
0.827
0.8235
0.8115
0.8205
0.8205
0.81
0.81
0.7955
0.7835
0.7965
0.8005
0.7925
0.7875
0.792
0.796
0.7885
0.78
0.7745
0.7805
0.7785
0.783
0.7905
0.7885
0.787
0.7885
0.7995
0.7975
0.787
0.785
0.7835
0.785
0.785
0.7775
0.785
0.78
0.758
0.748
0.74
0.7475
0.759
0.767
0.77
0.773
0.7815
0.7755
0.7675
0.7665
0.779
0.784
0.776
0.7725
0.7665
0.762
0.758
0.7415
0.7455
0.769
0.761
0.7615
0.7755
0.767
0.7665
0.7695
0.758
0.7595
0.768
0.773
0.781
0.7695
0.763
0.7675
0.765
0.763
0.7635
0.766
0.7725
0.761
0.755
0.7645
0.757
0.7585
0.753
0.746
0.7545
0.7625
0.756
0.748
0.757
0.758
0.7505
0.7495
0.762
0.767
0.752
0.7525
0.7635
0.7675
0.783
0.7915
0.779
0.7645
0.7575
0.7515
0.7595
0.7675
0.7725
0.7795
0.7725
0.771
0.7685
0.7675
0.769
0.7625
0.752
0.7515
0.7555
0.752
0.7605
0.7635
0.764
0.7715
0.779
0.781
0.766
0.748
0.748
0.7505
0.7545
0.761
0.763
0.763
0.763
0.765
0.7575
0.7675
0.77
0.759
0.76
0.754
0.758
0.768
0.7765
0.781
0.7735
0.7705
0.7635
0.75
0.747
0.7505
0.753
0.765
0.7765
0.771
0.764
0.769
0.783
0.789
0.7795
0.7785
0.7765
0.766
0.768
0.7715
0.779
0.782
0.7765
0.7785
0.7705
0.764
0.7625
0.7645
0.7765
0.769
0.771
0.7675
0.761
0.772
0.7695
0.7675
0.748
0.7445
0.748
0.7535
0.77
0.7665
0.767
0.761
0.76
0.7635
0.767
0.769
0.7675
0.768
0.7655
0.7655
0.7645
0.764
0.763
0.756
0.7585
0.7635
0.7605
0.7585
0.755
0.7565
0.764
0.7725
0.7645
0.7625
0.771
0.7675
0.7585
0.7505
0.759
0.772
0.7735
0.768
0.762
0.7655
0.762
0.759
0.767
0.759
0.748
0.7465
0.76
0.7705
0.764
0.766
0.7595
0.75
0.747
0.7415
0.749
0.753
0.749
0.746
0.7585
0.769
0.757
0.7585
0.768
0.783
0.786
0.778
0.7705
0.7685
0.777
0.7765
0.7775
0.777
0.7915
0.79
0.779
0.786
0.789
0.789
0.794
0.8075
0.8055
0.7975
0.8005
0.8095
0.8055
0.7935
0.7935
0.791
0.7955
0.806
0.8105
0.8115
0.819
0.828
0.8165
0.8025
0.801
0.803
0.7975
0.8015
0.81
0.8055
0.8135
0.82
0.8235
0.8275
0.83
0.8325
0.8335
0.842
0.8365
0.8305
0.831
0.828
0.824
0.818
0.815
0.8105
0.814
0.8205
0.8165
0.8185
0.8175
0.8135
0.8085
0.803
0.8035
0.8035
0.8035
0.798
0.802
0.815
0.8185
0.816
0.8105
0.82
0.829
0.8295
0.826
0.8285
0.833
0.83
0.8295
0.8235
0.8145
0.799
0.7865
0.7865
0.797
0.8065
0.806
0.81
0.8125
0.809
0.7945
0.7905
0.793
0.787
0.78
0.776
0.7775
0.7745
0.7725
0.7685
0.7735
0.7665
0.7505
0.7585
0.7675
0.7565
0.7485
0.749
0.744
0.7385
0.731
0.736
0.741
0.742
0.745
0.7495
0.749
0.743
0.7365
0.733
0.7335
0.7355
0.739
0.7305
0.739
0.7575
0.756
0.753
0.7425
0.737
0.735
0.7235
0.7175
0.722
0.7255
0.7265
0.7425
0.747
0.7415
0.7465
0.7455
0.739
0.744
0.7445
0.7285
0.73
0.7405
0.7465
0.7485
0.7435
0.7375
0.735
0.7405
0.7365
0.726
0.731
0.737
0.741
0.74
0.742
0.7445
0.7395
0.7355
0.738
0.739
0.7285
0.7275
0.731
0.7225
0.7245
0.7215
0.7135
0.717
0.713
0.7005
0.681
0.669
0.6575
0.6585
0.666
0.6625
0.673
0.679
0.669
0.6655
0.67
0.675
0.6805
0.686
0.7035
0.7425
0.788
0.8195
0.865
0.9165
0.9595
1.0065
1.0515
1.091
1.1345
1.1765
1.2285
1.2935
1.327
1.349
1.3755
1.414
1.4405
1.4455
1.4535
1.453
1.4525
1.436
1.417
1.41
1.391
1.3895
1.3815
1.326
1.2665
1.225
1.1655
1.106
1.051
0.9775
0.916
0.8585
0.8105
0.783
0.7695
0.766
0.7645
0.7515
0.7275
0.725
0.7355
0.75
0.7555
0.7545
0.749
0.734
0.739
0.7525
0.7585
0.7625
0.765
0.759
0.7505
0.751
0.754
0.7545
0.752
0.754
0.755
0.7555
0.754
0.749
0.748
0.751
0.753
0.751
0.7535
0.752
0.7445
0.7435
0.7435
0.734
0.7405
0.756
0.761
0.765
0.755
0.756
0.76
0.75
0.7485
0.7475
0.7485
0.747
0.744
0.7395
0.7385
0.7465
0.744
0.7355
0.73
0.7425
0.7465
0.7315
0.735
0.7365
0.736
0.738
0.739
0.744
0.747
0.774
0.794
0.7765
0.765
0.764
0.7675
0.772
0.775
0.7665
0.751
0.7425
0.742
0.753
0.7605
0.7645
0.7605
0.7535
0.758
0.7615
0.766
0.767
0.7625
0.761
0.7595
0.765
0.7725
0.762
0.7545
0.7625
0.757
0.7495
0.752
0.755
0.7585
0.772
0.799
0.807
0.802
0.784
0.779
0.7895
0.7805
0.764
0.7655
0.776
0.7785
0.7715
0.7645
0.7695
0.7725
0.782
0.7825
0.7765
0.7845
0.7905
0.7835
0.7815
0.7845
0.776
0.782
0.793
0.786
0.7865
0.789
0.784
0.7905
0.796
0.8035
0.803
0.794
0.799
0.8035
0.8045
0.801
0.796
0.793
0.799
0.8065
0.8085
0.814
0.8195
0.8165
0.8095
0.813
0.8185
0.822
0.822
0.82
0.8055
0.798
0.8185
0.834
0.831
0.8305
0.841
0.8485
0.847
0.852
0.8595
0.8575
0.8505
0.8355
0.8445
0.8635
0.862
0.862
0.859
0.8535
0.859
0.869
0.868
0.8665
0.881
0.892
0.896
0.8985
0.897
0.89
0.8875
0.892
0.8995
0.9075
0.915
0.9185
0.913
0.913
0.9245
0.9235
0.9175
0.92
0.93
0.955
0.9575
0.9455
0.9525
0.968
0.979
0.9875
0.9805
0.964
0.9695
0.9745
0.98
0.986
0.982
0.9865
0.9895
0.9975
0.9965
0.987
0.993
0.9965
1.005
1.014
1.019
1.0235
1.0335
1.033
1.022
1.018
1.0115
1.013
1.0105
1.009
1.007
1.0
1.004
1.009
1.007
1.012
1.0125
1.002
0.998
0.9885
0.986
0.99
0.9845
0.9965
1.014
1.004
0.999
0.995
0.9845
0.9865
0.9795
0.9745
0.9665
0.955
0.9495
0.9375
0.9215
0.922
0.932
0.9275
0.9125
0.91
0.907
0.9045
0.8995
0.8875
0.896
0.8895
0.876
0.877
0.8725
0.864
0.8485
0.843
0.845
0.8435
0.8485
0.847
0.839
0.8345
0.8225
0.805
0.806
0.81
0.804
0.7925
0.781
0.7865
0.787
0.779
0.7815
0.788
0.7905
0.7975
0.7965
0.7835
0.784
0.7905
0.794
0.7945
0.791
0.7955
0.7915
0.7845
0.7815
0.7735
0.768
0.7545
0.749
0.7455
0.7475
0.76
0.759
0.7635
0.762
0.7665
0.7785
0.7785
0.7745
0.765
0.7605
0.76
0.752
0.739
0.736
0.747
0.7605
0.7665
0.76
0.744
0.738
0.7325
0.7275
0.7395
0.7565
0.7695
0.768
0.769
0.7715
0.763
0.752
0.752
0.7465
0.74
0.751
0.7565
0.7485
0.737
0.736
0.747
0.748
0.7445
0.7475
0.7535
0.752
0.749
0.7645
0.772
0.7565
0.751
0.7535
0.7545
0.754
0.7525
0.75
0.746
0.746
0.7425
0.7405
0.747
0.7475
0.7485
0.7475
0.752
0.7505
0.7315
0.731
0.737
0.7435
0.7515
0.7555
0.758
0.767
0.774
0.7595
0.7535
0.762
0.754
0.749
0.7435
0.733
0.7355
0.7335
0.7475
0.7515
0.7505
0.7595
0.747
0.7505
0.7615
0.7585
0.753
0.7595
0.752
0.7465
0.762
0.756
0.748
0.754
0.76
0.759
0.751
0.753
0.752
0.7475
0.752
0.7565
0.755
0.745
0.744
0.75
0.749
0.752
0.7585
0.7635
0.7575
0.7455
0.7475
0.746
0.741
0.741
0.732
0.7355
0.739
0.746
0.763
0.7605
0.75
0.749
0.7505
0.7565
0.7645
0.768
0.773
0.76
0.7525
0.759
0.7605
0.7625
0.7665
0.7605
0.7475
0.7485
0.748
0.7545
0.769
0.754
0.7515
0.771
0.7615
0.742
0.743
0.753
0.751
0.75
0.7525
0.7545
0.76
0.7625
0.7565
0.7515
0.755
0.7495
0.746
0.748
0.753
0.761
0.7645
0.7735
0.7685
0.753
0.7535
0.7595
0.7545
0.742
0.7385
0.742
0.74
0.745
0.7475
0.7405
0.742
0.7445
0.7405
0.7345
0.744
0.752
0.7435
0.7355
0.737
0.7345
0.7365
0.7575
0.756
0.744
0.747
0.75
0.7565
0.763
0.762
0.7485
0.752
0.7605
0.752
0.7485
0.746
0.7535
0.7605
0.7495
0.7435
0.744
0.7415
0.7395
0.7395
0.7505
0.755
0.7495
0.738
0.7375
0.7495
0.748
0.751
0.7525
0.748
0.74
0.745
0.754
0.7505
0.7455
0.742
0.745
0.738
0.7495
0.772
0.769
0.762
0.7665
0.7745
0.777
0.7705
0.7675
0.766
0.759
0.758
0.767
0.795
0.808
0.799
0.7995
0.795
0.784
0.7935
0.8175
0.817
0.808
0.808
0.798
0.7995
0.807
0.8075
0.812
0.819
0.818
0.8025
0.7985
0.7975
0.794
0.7905
0.7935
0.8005
0.8075
0.8315
0.846
0.8275
0.808
0.804
0.8005
0.804
0.8095
0.8135
0.8175
0.8255
0.831
0.8325
0.8425
0.831
0.8155
0.822
0.8175
0.81
0.806
0.7965
0.795
0.7955
0.802
0.8015
0.8005
0.809
0.8145
0.8175
0.816
0.8205
0.8265
0.822
0.7975
0.7915
0.7915
0.7775
0.7795
0.792
0.807
0.8135
0.8225
0.819
0.802
0.7985
0.804
0.802
0.799
0.799
0.783
0.765
0.768
0.7685
0.7575
0.757
0.7585
0.7615
0.768
0.7655
0.7565
0.7605
0.7635
0.754
0.75
0.752
0.7505
0.745
0.74
0.7405
0.7455
0.7425
0.7435
0.7365
0.726
0.731
0.735
0.741
0.7465
0.747
0.7395
0.735
0.7345
0.729
0.7285
0.7225
0.7215
0.735
0.744
0.74
0.731
0.7365
0.7405
0.7335
0.7275
0.7275
0.727
0.723
0.7365
0.7405
0.7295
0.729
0.726
0.734
0.7475
0.742
0.717
0.714
0.7205
0.713
0.72
0.73
0.7305
0.7365
0.735
0.727
0.7295
0.7355
0.7305
0.727
0.7385
0.7375
0.732
0.724
0.716
0.7185
0.713
0.711
0.7125
0.718
0.715
0.702
0.7015
0.699
0.6875
0.677
0.6665
0.658
0.6495
0.64
0.639
0.6445
0.6565
0.6595
0.652
0.644
0.648
0.665
0.678
0.6975
0.7375
0.785
0.8215
0.87
0.9235
0.964
1.0005
1.0385
1.091
1.1385
1.178
1.224
1.28
1.3395
1.3785
1.405
1.443
1.4725
1.4805
1.4885
1.485
1.476
1.4685
1.46
1.452
1.434
1.427
1.4075
1.351
1.2965
1.2545
1.203
1.144
1.0885
1.018
0.9415
0.877
0.8255
0.7905
0.773
0.7635
0.7455
0.741
0.752
0.7415
0.7255
0.7215
0.717
0.726
0.724
0.7085
0.7075
0.716
0.724
0.7325
0.7445
0.743
0.7455
0.755
0.752
0.753
0.757
0.7585
0.7585
0.747
0.737
0.735
0.735
0.738
0.7395
0.7415
0.7435
0.7445
0.743
0.7345
0.734
0.7365
0.7365
0.7515
0.747
0.7275
0.7285
0.7365
0.7415
0.7445
0.7465
0.748
0.7515
0.7445
0.7355
0.7325
0.7205
0.7155
0.729
0.74
0.747
0.751
0.748
0.746
0.747
0.753
0.752
0.743
0.741
0.7435
0.742
0.7335
0.736
0.745
0.744
0.74
0.742
0.7465
0.7515
0.7655
0.767
0.761
0.758
0.7535
0.758
0.7555
0.742
0.7355
0.745
0.7515
0.7465
0.7425
0.746
0.7505
0.75
0.7525
0.759
0.761
0.747
0.751
0.7535
0.7505
0.7575
0.7615
0.7755
0.7745
0.7825
0.785
0.7715
0.7675
0.76
0.7645
0.769
0.769
0.763
0.7655
0.777
0.7755
0.766
0.764
0.769
0.7675
0.7725
0.783
0.787
0.789
0.7935
0.7895
0.784
0.778
0.7735
0.7705
0.767
0.773
0.791
0.803
0.7965
0.8
0.799
0.782
0.7845
0.7885
0.788
0.7855
0.781
0.7835
0.793
0.806
0.809
0.816
0.822
0.8285
0.8245
0.809
0.8125
0.8165
0.822
0.826
0.814
0.8095
0.8195
0.832
0.8325
0.837
0.843
0.838
0.839
0.8365
0.8385
0.847
0.8515
0.847
0.844
0.856
0.8655
0.8625
0.861
0.873
0.877
0.8705
0.8715
0.88
0.884
0.8815
0.877
0.8735
0.88
0.8845
0.8845
0.894
0.9055
0.911
0.9105
0.9125
0.9175
0.92
0.9195
0.9155
0.9205
0.9305
0.9435
0.948
0.946
0.9565
0.9605
0.969
0.975
0.972
0.971
0.9685
0.973
0.981
0.998
1.0105
1.003
1.0015
1.0025
0.991
0.9885
0.99
0.993
0.9985
1.007
1.022
1.0285
1.016
1.0015
1.0025
1.019
1.0335
1.033
1.035
1.0395
1.0285
1.0215
1.032
1.0305
1.0235
1.018
1.0215
1.0255
1.022
1.022
1.022
1.0165
1.006
1.004
1.0005
0.996
0.988
0.9865
1.0055
1.0125
1.004
0.9975
0.9965
0.9925
0.979
0.96
0.944
0.941
0.94
0.925
0.9045
0.9055
0.9185
0.922
0.921
0.904
0.888
0.893
0.9045
0.9005
0.886
0.8805
0.87
0.8625
0.854
0.849
0.8585
0.853
0.8375
0.834
0.832
0.8205
0.818
0.8175
0.809
0.8065
0.8095
0.8095
0.806
0.803
0.7915
0.784
0.7865
0.7885
0.7945
0.792
0.7925
0.7865
0.77
0.776
0.784
0.781
0.769
0.7635
0.7675
0.7685
0.774
0.7745
0.7745
0.775
0.773
0.768
0.754
0.7505
0.7525
0.7495
0.7525
0.7545
0.7535
0.755
0.753
0.749
0.7515
0.758
0.749
0.741
0.757
0.762
0.756
0.7645
0.773
0.7705
0.7675
0.7575
0.7655
0.772
0.7535
0.747
0.745
0.734
0.732
0.7405
0.7385
0.75
0.756
0.7395
0.737
0.739
0.7345
0.7305
0.7355
0.7455
0.755
0.753
0.747
0.753
0.7495
0.751
0.762
0.759
0.7565
0.7535
0.7505
0.748
0.7425
0.738
0.74
0.7475
0.749
0.75
0.7425
0.7375
0.744
0.745
0.745
0.7425
0.7415
0.74
0.7355
0.7395
0.7445
0.759
0.7615
0.749
0.75
0.752
0.751
0.747
0.748
0.7495
0.7495
0.753
0.7555
0.759
0.7585
0.7605
0.762
0.759
0.754
0.75
0.7535
0.749
0.7435
0.7575
0.758
0.7465
0.7425
0.7355
0.73
0.739
0.7485
0.743
0.745
0.749
0.7495
0.747
0.7475
0.752
0.7505
0.7555
0.761
0.7485
0.74
0.7445
0.7515
0.758
0.752
0.7515
0.758
0.7595
0.7635
0.767
0.7555
0.7485
0.7485
0.741
0.745
0.7495
0.743
0.7365
0.731
0.7355
0.7355
0.744
0.7545
0.7565
0.7625
0.746
0.7325
0.7405
0.7485
0.746
0.7465
0.75
0.7495
0.755
0.75
0.7455
0.747
0.7525
0.7485
0.741
0.74
0.742
0.748
0.744
0.741
0.7515
0.7455
0.7275
0.737
0.742
0.744
0.7465
0.756
0.772
0.7655
0.7675
0.766
0.7555
0.7605
0.7745
0.761
0.7405
0.7465
0.7515
0.755
0.76
0.7645
0.7635
0.753
0.7405
0.736
0.745
0.749
0.7455
0.735
0.738
0.742
0.732
0.7255
0.7235
0.735
0.7355
0.731
0.731
0.7385
0.75
0.7425
0.735
0.735
0.7415
0.749
0.7475
0.7425
0.7425
0.744
0.747
0.753
0.7515
0.7435
0.74
0.738
0.7415
0.747
0.7445
0.7465
0.742
0.733
0.738
0.743
0.7445
0.743
0.7395
0.74
0.742
0.745
0.7445
0.742
0.74
0.744
0.7445
0.7415
0.744
0.733
0.739
0.756
0.749
0.741
0.7405
0.749
0.7565
0.7515
0.7545
0.76
0.767
0.772
0.7735
0.785
0.7865
0.777
0.778
0.784
0.7825
0.785
0.783
0.776
0.775
0.777
0.7825
0.775
0.765
0.775
0.7945
0.7885
0.7835
0.808
0.815
0.8105
0.804
0.804
0.818
0.8145
0.8065
0.801
0.8035
0.813
0.8195
0.818
0.817
0.8225
0.819
0.8195
0.814
0.8165
0.821
0.819
0.825
0.8165
0.8105
0.8
0.795
0.802
0.801
0.796
0.7825
0.7845
0.7955
0.806
0.807
0.8015
0.8055
0.805
0.8025
0.797
0.789
0.7885
0.7965
0.802
0.793
0.78
0.79
0.8055
0.8115
0.811
0.8055
0.8045
0.808
0.8075
0.7945
0.791
0.796
0.7885
0.7715
0.759
0.7655
0.7735
0.7655
0.762
0.7575
0.7445
0.7455
0.753
0.7545
0.756
0.754
0.755
0.7545
0.748
0.7435
0.736
0.7335
0.737
0.7305
0.7115
0.7065
0.718
0.7285
0.7295
0.729
0.729
0.725
0.7165
0.7115
0.7195
0.715
0.7035
0.71
0.723
0.729
0.733
0.735
0.7295
0.728
0.7295
0.721
0.722
0.7285
0.7205
0.721
0.7235
0.7215
0.714
0.709
0.7115
0.7095
0.719
0.722
0.7165
0.713
0.71
0.7185
0.7195
0.7265
0.7405
0.7325
0.7185
0.71
0.708
0.7065
0.706
0.7165
0.723
0.718
0.714
0.7075
0.7045
0.718
0.7165
0.715
0.728
0.732
0.721
0.7065
0.698
0.692
0.695
0.7005
0.6975
0.675
0.663
0.6605
0.6485
0.633
0.622
0.622
0.6145
0.6165
0.622
0.6345
0.6435
0.6495
0.655
0.6535
0.67
0.69
0.734
0.7695
0.799
0.8565
0.909
0.971
1.0335
1.084
1.123
1.162
1.2205
1.2705
1.3215
1.3795
1.415
1.4385
1.4595
1.4765
1.4925
1.498
1.49
1.482
1.466
1.4505
1.4405
1.4365
1.439
1.3985
1.3255
1.2765
1.218
1.148
1.096
1.031
0.9505
0.8785
0.813
0.7795
0.762
0.7485
0.761
0.7535
0.7365
0.7365
0.7405
0.7355
0.7125
0.703
0.708
0.71
0.7185
0.7325
0.7355
0.728
0.722
0.7285
0.734
0.728
0.726
0.7275
0.719
0.716
0.721
0.723
0.7245
0.725
0.7285
0.728
0.72
0.7245
0.7335
0.717
0.71
0.721
0.721
0.7335
0.735
0.733
0.747
0.742
0.732
0.725
0.7235
0.723
0.73
0.739
0.7385
0.7415
0.7365
0.735
0.7315
0.736
0.7485
0.745
0.741
0.7385
0.7375
0.7365
0.7295
0.731
0.734
0.7315
0.725
0.7195
0.721
0.7185
0.735
0.742
0.7305
0.729
0.726
0.7235
0.7195
0.729
0.737
0.7395
0.7535
0.7525
0.7345
0.7355
0.7425
0.7385
0.7405
0.741
0.7425
0.74
0.7485
0.7595
0.752
0.7475
0.74
0.753
0.765
0.761
0.763
0.7655
0.7705
0.7545
0.729
0.733
0.735
0.7325
0.7465
0.7505
0.7655
0.7765
0.767
0.7585
0.759
0.7675
0.754
0.7485
0.755
0.7485
0.7495
0.7515
0.7645
0.779
0.778
0.776
0.7725
0.772
0.767
0.7615
0.77
0.777
0.782
0.7815
0.782
0.7855
0.782
0.7735
0.7705
0.7755
0.776
0.7835
0.79
0.787
0.7845
0.782
0.783
0.797
0.7965
0.7905
0.8015
0.803
0.806
0.813
0.8105
0.811
0.8115
0.819
0.83
0.8305
0.8085
0.788
0.8035
0.8165
0.81
0.8175
0.8335
0.838
0.8345
0.83
0.83
0.8315
0.8415
0.8585
0.8595
0.8505
0.8495
0.858
0.862
0.852
0.851
0.862
0.868
0.8855
0.891
0.8815
0.878
0.8785
0.8915
0.8985
0.902
0.8995
0.894
0.899
0.9035
0.9115
0.9125
0.911
0.923
0.9265
0.931
0.945
0.945
0.939
0.948
0.953
0.944
0.9455
0.952
0.9535
0.9595
0.977
0.987
0.974
0.979
0.981
0.972
0.9815
0.9875
0.997
0.99
0.9755
0.9745
0.972
0.9875
1.0035
1.0015
1.006
1.0245
1.0345
1.0325
1.0385
1.0345
1.029
1.0295
1.032
1.029
1.0175
1.021
1.024
1.007
1.001
1.0155
1.0175
1.018
1.0155
1.0015
0.9925
0.9905
0.9865
0.9845
0.9865
0.9805
0.9805
0.982
0.986
0.9875
0.9805
0.9625
0.945
0.9435
0.937
0.9265
0.92
0.9145
0.91
0.9175
0.9105
0.8945
0.888
0.882
0.8805
0.8715
0.8605
0.8485
0.856
0.8545
0.849
0.8595
0.8435
0.8275
0.821
0.8255
0.8325
0.833
0.8345
0.8145
0.802
0.8045
0.7895
0.7715
0.7665
0.76
0.753
0.7575
0.753
0.745
0.7565
0.7665
0.7565
0.757
0.7645
0.763
0.7605
0.762
0.7665
0.764
0.769
0.7675
0.7685
0.767
0.7615
0.763
0.7505
0.7455
0.757
0.7615
0.757
0.747
0.727
0.7305
0.7405
0.7385
0.74
0.7285
0.727
0.733
0.718
0.713
0.7195
0.74
0.7635
0.7595
0.7575
0.753
0.7475
0.74
0.724
0.7215
0.732
0.739
0.7355
0.7375
0.7415
0.746
0.7445
0.7315
0.7215
0.725
0.7285
0.7195
0.726
0.7345
0.731
0.734
0.734
0.736
0.7345
0.72
0.7205
0.725
0.715
0.714
0.7225
0.729
0.724
0.7195
0.7255
0.7325
0.732
0.7315
0.741
0.7345
0.7275
0.7355
0.735
0.7365
0.7365
0.7335
0.7295
0.7245
0.731
0.735
0.7185
0.693
0.701
0.7115
0.708
0.7115
0.719
0.7375
0.742
0.7415
0.751
0.7385
0.7295
0.7445
0.747
0.7345
0.7395
0.742
0.7375
0.7385
0.7285
0.7295
0.7255
0.7165
0.731
0.7345
0.7385
0.739
0.725
0.7325
0.7425
0.7435
0.7375
0.722
0.7225
0.7275
0.7315
0.735
0.735
0.7335
0.7295
0.741
0.743
0.7325
0.729
0.7355
0.737
0.738
0.737
0.732
0.7375
0.73
0.7345
0.7515
0.7495
0.7455
0.7425
0.7435
0.747
0.7375
0.7155
0.697
0.7105
0.7095
0.7055
0.716
0.725
0.738
0.7415
0.7505
0.74
0.7365
0.7395
0.7325
0.7315
0.7325
0.725
0.7295
0.733
0.714
0.7295
0.735
0.734
0.7355
0.716
0.726
0.74
0.7385
0.739
0.7405
0.7455
0.7565
0.751
0.73
0.721
0.7175
0.714
0.721
0.7165
0.715
0.7245
0.713
0.7145
0.7195
0.7305
0.7435
0.75
0.7485
0.7215
0.7185
0.747
0.7555
0.738
0.7355
0.74
0.7315
0.7265
0.727
0.726
0.7225
0.7205
0.728
0.7345
0.735
0.7315
0.7265
0.723
0.731
0.7405
0.747
0.754
0.7395
0.726
0.7185
0.7035
0.704
0.7015
0.713
0.727
0.721
0.729
0.727
0.724
0.7245
0.7255
0.7245
0.7215
0.7275
0.735
0.7375
0.7285
0.733
0.7385
0.738
0.7385
0.7395
0.746
0.746
0.7455
0.749
0.7545
0.7545
0.741
0.732
0.7345
0.7375
0.745
0.7365
0.7365
0.7535
0.767
0.7755
0.7725
0.7745
0.7785
0.7845
0.783
0.7885
0.789
0.7745
0.7635
0.7525
0.7635
0.771
0.7815
0.787
0.7895
0.798
0.7915
0.7915
0.7895
0.787
0.7785
0.783
0.792
0.796
0.807
0.8025
0.799
0.807
0.8105
0.798
0.7885
0.7875
0.7825
0.79
0.7955
0.797
0.795
0.787
0.783
0.789
0.8055
0.793
0.774
0.765
0.767
0.769
0.766
0.7725
0.7835
0.803
0.809
0.809
0.8005
0.8045
0.7995
0.784
0.776
0.7695
0.7755
0.7745
0.7825
0.774
0.7665
0.777
0.7735
0.768
0.753
0.749
0.7505
0.75
0.751
0.753
0.757
0.739
0.723
0.734
0.756
0.7545
0.7455
0.7395
0.7345
0.7435
0.7315
0.7165
0.7115
0.7085
0.698
0.687
0.6845
0.695
0.723
0.7265
0.73
0.732
0.7125
0.713
0.7145
0.7155
0.7125
0.6965
0.6985
0.7115
0.718
0.733
0.7285
0.7135
0.7175
0.7055
0.6965
0.6965
0.697
0.6975
0.7
0.709
0.703
0.705
0.718
0.708
0.6965
0.7075
0.717
0.7095
0.6925
0.687
0.6965
0.6875
0.68
0.698
0.7025
0.711
0.7165
0.7095
0.714
0.71
0.7085
0.708
0.708
0.7055
0.7015
0.709
0.7035
0.6895
0.6835
0.6855
0.6895
0.6915
0.7055
0.7125
0.6985
0.6975
0.6965
0.6815
0.6625
0.651
0.6495
0.6405
0.6375
0.6415
0.641
0.621
0.613
0.6165
0.6275
0.642
0.6175
0.608
0.6265
0.652
0.666
0.673
0.714
0.753
0.7885
0.826
0.8855
0.953
0.9885
1.036
1.083
1.1285
1.176
1.222
1.2765
1.33
1.3735
1.3885
1.412
1.428
1.4275
1.437
1.4385
1.4375
1.414
1.4035
1.397
1.374
1.3785
1.354
1.2935
1.2375
1.1765
1.115
1.0545
0.9885
0.9295
0.865
0.7945
0.755
0.723
0.7075
0.713
0.6905
0.6815
0.696
0.6875
0.686
0.6895
0.708
0.7105
0.691
0.699
0.7005
0.699
0.6965
0.705
0.7095
0.6935
0.696
0.7005
0.701
0.712
0.713
0.715
0.715
0.7135
0.721
0.715
0.7115
0.7145
0.712
0.71
0.708
0.715
0.721
0.72
0.7305
0.7295
0.7095
0.6915
0.6965
0.7
0.694
0.702
0.7055
0.7185
0.7295
0.7165
0.707
0.701
0.6945
0.686
0.691
0.7075
0.721
0.726
0.718
0.725
0.719
0.715
0.724
0.708
0.7055
0.7195
0.7225
0.7295
0.7275
0.724
0.7325
0.7335
0.732
0.731
0.728
0.714
0.709
0.7145
0.725
0.729
0.7215
0.727
0.7345
0.731
0.7355
0.7245
0.7215
0.732
0.7215
0.7285
0.7225
0.7205
0.73
0.7305
0.731
0.725
0.721
0.7255
0.742
0.746
0.7375
0.745
0.739
0.725
0.725
0.734
0.7425
0.7485
0.743
0.7395
0.743
0.73
0.7405
0.767
0.77
0.752
0.7455
0.7525
0.7525
0.753
0.75
0.751
0.747
0.7435
0.7485
0.7525
0.748
0.751
0.7635
0.756
0.7435
0.734
0.745
0.7655
0.7675
0.7645
0.7535
0.7465
0.752
0.7575
0.7515
0.754
0.7805
0.7835
0.773
0.7865
0.7945
0.7895
0.795
0.808
0.804
0.795
0.7955
0.7995
0.801
0.792
0.7935
0.7855
0.775
0.787
0.791
0.7985
0.8075
0.814
0.811
0.814
0.823
0.8135
0.823
0.836
0.8325
0.8265
0.837
0.847
0.836
0.8355
0.8465
0.852
0.8555
0.854
0.844
0.85
0.8525
0.854
0.8595
0.8585
0.8615
0.8745
0.891
0.896
0.8965
0.892
0.896
0.903
0.9155
0.9185
0.9175
0.916
0.914
0.9265
0.936
0.9395
0.9375
0.9395
0.9385
0.9455
0.96
0.953
0.949
0.9425
0.938
0.955
0.9715
0.9775
0.9625
0.9665
0.9835
0.981
0.9855
0.9865
0.983
0.9895
1.002
1.0075
0.992
0.986
0.9865
0.9895
1.006
1.0055
0.987
0.986
1.0
0.981
0.9735
0.99
0.992
1.0025
1.002
0.9945
0.9945
0.985
0.972
0.972
0.9795
0.9735
0.9665
0.975
0.976
0.97
0.9595
0.95
0.946
0.942
0.9485
0.9425
0.9315
0.916
0.906
0.9105
0.9015
0.89
0.884
0.8775
0.871
0.879
0.8755
0.8675
0.8615
0.8465
0.843
0.832
0.8205
0.8215
0.832
0.8355
0.823
0.813
0.8195
0.83
0.8235
0.825
0.8205
0.8085
0.7955
0.788
0.791
0.77
0.7595
0.7635
0.7615
0.765
0.7555
0.741
0.7555
0.7655
0.75
0.7425
0.7455
0.7445
0.738
0.7445
0.7485
0.7435
0.7415
0.737
0.7285
0.737
0.752
0.748
0.7395
0.7245
0.715
0.724
0.729
0.7315
0.7385
0.7315
0.738
0.73
0.7095
0.716
0.7195
0.732
0.732
0.728
0.7425
0.742
0.7325
0.727
0.7255
0.7245
0.7305
0.728
0.732
0.736
0.7145
0.7135
0.7235
0.718
0.716
0.714
0.7115
0.7115
0.7045
0.6985
0.7005
0.72
0.731
0.748
0.7665
0.7575
0.7445
0.722
0.711
0.715
0.7215
0.723
0.721
0.7205
0.7175
0.719
0.723
0.71
0.699
0.7075
0.715
0.714
0.7285
0.736
0.7175
0.7275
0.73
0.7215
0.7365
0.743
0.731
0.7285
0.7305
0.715
0.712
0.71
0.711
0.715
0.7175
0.7225
0.7195
0.72
0.713
0.6995
0.694
0.7135
0.73
0.7185
0.7185
0.7275
0.7275
0.728
0.7245
0.719
0.716
0.7195
0.726
0.715
0.714
0.721
0.7275
0.737
0.733
0.7255
0.7215
0.7305
0.7255
0.716
0.718
0.7185
0.7285
0.719
0.7185
0.7365
0.7365
0.7425
0.7355
0.7165
0.7115
0.7025
0.701
0.7205
0.738
0.744
0.748
0.744
0.7445
0.7345
0.723
0.7255
0.722
0.728
0.7415
0.7445
0.737
0.75
0.743
0.722
0.733
0.7335
0.7285
0.7305
0.725
0.718
0.7195
0.7195
0.7315
0.727
0.72
0.7265
0.7185
0.7315
0.7335
0.7395
0.741
0.7225
0.722
0.719
0.723
0.7185
0.723
0.7425
0.7375
0.7385
0.731
0.725
0.7195
0.701
0.72
0.7225
0.7115
0.718
0.7125
0.7155
0.7175
0.7315
0.74
0.7215
0.7265
0.717
0.7095
0.7285
0.7355
0.735
0.7395
0.74
0.7245
0.7065
0.71
0.724
0.7195
0.7135
0.707
0.71
0.715
0.715
0.7275
0.729
0.735
0.744
0.744
0.7335
0.7225
0.7215
0.721
0.7255
0.7145
0.715
0.7305
0.7315
0.719
0.6995
0.6985
0.693
0.7105
0.7335
0.7215
0.715
0.7185
0.731
0.74
0.7555
0.773
0.774
0.7625
0.761
0.779
0.776
0.7515
0.7375
0.7445
0.7445
0.7435
0.7675
0.7705
0.7625
0.7625
0.747
0.7475
0.7585
0.761
0.7605
0.7705
0.7815
0.793
0.802
0.8045
0.801
0.7755
0.7715
0.781
0.7835
0.7805
0.7715
0.7705
0.7755
0.7845
0.781
0.786
0.8
0.7925
0.784
0.78
0.7795
0.773
0.7675
0.77
0.765
0.771
0.8015
0.813
0.796
0.7765
0.7585
0.768
0.7845
0.7815
0.7785
0.781
0.7845
0.7895
0.793
0.791
0.79
0.7985
0.7955
0.777
0.7745
0.772
0.7695
0.7685
0.764
0.7585
0.7555
0.7525
0.7405
0.752
0.7675
0.767
0.7695
0.7695
0.7835
0.8025
0.784
0.7555
0.7535
0.748
0.743
0.738
0.7175
0.7185
0.7245
0.724
0.73
0.719
0.7025
0.695
0.7015
0.7185
0.717
0.718
0.728
0.7265
0.723
0.7165
0.73
0.73
0.7025
0.6985
0.7055
0.71
0.7105
0.704
0.711
0.721
0.713
0.7
0.6865
0.6875
0.6905
0.687
0.688
0.691
0.7105
0.7245
0.7175
0.716
0.714
0.7025
0.6925
0.6925
0.7
0.7015
0.6945
0.7005
0.713
0.71
0.7165
0.7195
0.7085
0.7115
0.7045
0.69
0.6755
0.666
0.6805
0.687
0.6895
0.6955
0.69
0.6915
0.6945
0.6935
0.69
0.6885
0.6925
0.7035
0.713
0.7045
0.703
0.706
0.703
0.6945
0.6875
0.6875
0.679
0.681
0.6875
0.6575
0.6265
0.626
0.6155
0.6095
0.605
0.616
0.64
0.632
0.613
0.6115
0.621
0.6235
0.646
0.6855
0.737
0.7705
0.7685
0.8065
0.8745
0.9285
0.983
1.017
1.057
1.1055
1.1465
1.1955
1.236
1.2995
1.3415
1.3495
1.3845
1.3905
1.3805
1.3955
1.3885
1.376
1.362
1.35
1.339
1.3245
1.328
1.307
1.257
1.203
1.1635
1.1125
1.044
0.9885
0.9295
0.8635
0.801
0.761
0.725
0.6945
0.6855
0.6935
0.705
0.699
0.6865
0.6825
0.6925
0.694
0.6885
0.6965
0.69
0.6795
0.678
0.6835
0.703
0.7055
0.707
0.712
0.7065
0.7065
0.709
0.7155
0.7145
0.7085
0.7055
0.6945
0.685
0.684
0.684
0.688
0.7
0.71
0.719
0.73
0.728
0.721
0.722
0.718
0.7225
0.7295
0.721
0.7135
0.714
0.7045
0.6965
0.6955
0.7045
0.725
0.7255
0.727
0.7135
0.7185
0.735
0.7255
0.737
0.73
0.714
0.712
0.708
0.7175
0.7265
0.7295
0.7325
0.7255
0.7135
0.708
0.721
0.7205
0.711
0.724
0.733
0.7345
0.727
0.72
0.718
0.723
0.7235
0.725
0.723
0.727
0.7325
0.717
0.718
0.716
0.7075
0.723
0.734
0.725
0.72
0.7185
0.732
0.737
0.7245
0.7255
0.727
0.734
0.7315
0.732
0.739
0.745
0.752
0.734
0.7285
0.7425
0.7475
0.7355
0.726
0.7375
0.743
0.7385
0.74
0.751
0.7505
0.75
0.7515
0.752
0.751
0.7515
0.775
0.7755
0.7585
0.761
0.7475
0.7405
0.747
0.75
0.7555
0.745
0.749
0.757
0.759
0.7775
0.772
0.7585
0.763
0.7685
0.7645
0.763
0.7765
0.7815
0.771
0.7625
0.7785
0.7825
0.7785
0.7925
0.7955
0.8
0.7965
0.7945
0.792
0.7855
0.787
0.7755
0.775
0.788
0.7845
0.7775
0.7965
0.8185
0.833
0.8215
0.807
0.817
0.8115
0.8085
0.8165
0.826
0.8125
0.813
0.832
0.8215
0.8205
0.824
0.826
0.8365
0.846
0.844
0.836
0.8385
0.842
0.851
0.8625
0.8715
0.8725
0.8695
0.8695
0.871
0.881
0.881
0.88
0.9025
0.901
0.906
0.9245
0.9205
0.93
0.923
0.9155
0.921
0.9235
0.9335
0.937
0.9385
0.941
0.948
0.9525
0.9525
0.9595
0.9665
0.959
0.963
0.962
0.9695
0.9795
0.9675
0.969
0.9715
0.967
0.95
0.9505
0.9665
0.9825
0.994
0.981
0.9705
0.9705
0.9685
0.9815
1.0
0.9925
0.9885
0.987
0.988
0.9925
0.9875
0.98
0.984
0.987
0.98
0.9765
0.976
0.9795
0.971
0.9545
0.9505
0.954
0.9545
0.9605
0.956
0.9405
0.9365
0.924
0.9205
0.934
0.923
0.916
0.904
0.881
0.876
0.862
0.8565
0.856
0.85
0.851
0.85
0.843
0.828
0.83
0.8295
0.818
0.8225
0.8245
0.818
0.806
0.8005
0.797
0.789
0.79
0.794
0.795
0.7805
0.776
0.778
0.772
0.7675
0.7585
0.756
0.7525
0.758
0.755
0.744
0.7475
0.747
0.7575
0.7545
0.743
0.739
0.7365
0.7445
0.734
0.7365
0.7455
0.753
0.7605
0.7485
0.747
0.7335
0.726
0.73
0.7285
0.723
0.7205
0.7125
0.7025
0.716
0.717
0.72
0.724
0.732
0.7485
0.7365
0.733
0.7345
0.7235
0.731
0.731
0.715
0.723
0.741
0.737
0.7245
0.7185
0.7065
0.706
0.721
0.7215
0.7235
0.7255
0.7245
0.724
0.719
0.724
0.73
0.7235
0.704
0.689
0.7085
0.7255
0.7155
0.717
0.72
0.722
0.7275
0.722
0.7175
0.7045
0.698
0.71
0.718
0.72
0.7095
0.705
0.706
0.7105
0.7285
0.721
0.7145
0.7295
0.724
0.7115
0.709
0.713
0.716
0.698
0.6995
0.7165
0.7125
0.707
0.7065
0.7205
0.7185
0.7065
0.715
0.7315
0.733
0.7215
0.7195
0.71
0.7025
0.697
0.704
0.7155
0.732
0.7515
0.7345
0.7255
0.7275
0.7165
0.712
0.721
0.7305
0.7215
0.707
0.703
0.723
0.7335
0.7255
0.7345
0.7395
0.738
0.7305
0.727
0.7285
0.717
0.709
0.709
0.7085
0.713
0.72
0.72
0.726
0.741
0.7405
0.7335
0.7395
0.7355
0.734
0.728
0.713
0.714
0.715
0.718
0.7185
0.7215
0.725
0.7165
0.7095
0.7185
0.7185
0.7135
0.7335
0.731
0.7305
0.733
0.736
0.7485
0.7355
0.7315
0.7275
0.729
0.722
0.7095
0.707
0.709
0.7265
0.733
0.729
0.721
0.7175
0.709
0.7055
0.712
0.714
0.718
0.721
