ECG
-0.4895
-0.4935
-0.4955
-0.4915
-0.4905
-0.4895
-0.4905
-0.496
-0.4945
-0.491
-0.49
-0.489
-0.483
-0.478
-0.4745
-0.474
-0.478
-0.4795
-0.482
-0.4795
-0.479
-0.4795
-0.479
-0.48
-0.477
-0.4785
-0.4775
-0.472
-0.4735
-0.473
-0.4695
-0.4675
-0.4725
-0.4765
-0.471
-0.4705
-0.471
-0.471
-0.4705
-0.47
-0.4685
-0.4685
-0.4745
-0.4745
-0.474
-0.4715
-0.472
-0.474
-0.474
-0.4745
-0.475
-0.4775
-0.48
-0.4835
-0.4805
-0.477
-0.4805
-0.483
-0.4855
-0.485
-0.486
-0.4865
-0.4825
-0.4795
-0.4805
-0.485
-0.481
-0.482
-0.487
-0.4825
-0.4875
-0.488
-0.487
-0.49
-0.485
-0.483
-0.482
-0.478
-0.481
-0.483
-0.4815
-0.4825
-0.4795
-0.4805
-0.4875
-0.493
-0.4935
-0.4915
-0.4875
-0.483
-0.4805
-0.4855
-0.492
-0.4885
-0.4915
-0.4925
-0.496
-0.503
-0.499
-0.4975
-0.497
-0.502
-0.505
-0.508
-0.511
-0.509
-0.511
-0.514
-0.514
-0.512
-0.5075
-0.5075
-0.512
-0.5025
-0.497
-0.506
-0.505
-0.5065
-0.512
-0.509
-0.5055
-0.5065
-0.5105
-0.5115
-0.5095
-0.508
-0.509
-0.5095
-0.5105
-0.5105
-0.5015
-0.498
-0.5025
-0.4975
-0.4945
-0.4975
-0.5015
-0.5005
-0.499
-0.501
-0.502
-0.506
-0.508
-0.507
-0.5065
-0.506
-0.506
-0.504
-0.504
-0.5025
-0.498
-0.4945
-0.488
-0.4795
-0.478
-0.477
-0.476
-0.4715
-0.466
-0.471
-0.4755
-0.4725
-0.4715
-0.471
-0.465
-0.466
-0.4685
-0.471
-0.4745
-0.4715
-0.4705
-0.472
-0.475
-0.4725
-0.468
-0.463
-0.4545
-0.45
-0.4495
-0.444
-0.4455
-0.457
-0.4605
-0.465
-0.4655
-0.4695
-0.478
-0.4795
-0.483
-0.481
-0.4785
-0.4945
-0.5075
-0.513
-0.518
-0.517
-0.525
-0.5325
-0.5245
-0.519
-0.5235
-0.5255
-0.528
-0.536
-0.537
-0.537
-0.5345
-0.53
-0.5355
-0.5375
-0.5365
-0.5375
-0.53
-0.5345
-0.539
-0.537
-0.5415
-0.542
-0.5455
-0.5465
-0.5385
-0.5345
-0.535
-0.534
-0.532
-0.5305
-0.536
-0.5375
-0.533
-0.5335
-0.5315
-0.5255
-0.5235
-0.5225
-0.5235
-0.533
-0.537
-0.532
-0.53
-0.529
-0.537
-0.539
-0.535
-0.537
-0.532
-0.5295
-0.5265
-0.5275
-0.538
-0.5385
-0.5365
-0.539
-0.538
-0.537
-0.538
-0.5335
-0.536
-0.539
-0.5345
-0.531
-0.528
-0.533
-0.5355
-0.54
-0.5455
-0.5425
-0.5485
-0.546
-0.5455
-0.556
-0.555
-0.556
-0.5545
-0.5535
-0.551
-0.5455
-0.547
-0.5405
-0.5355
-0.532
-0.52
-0.511
-0.501
-0.491
-0.4795
-0.461
-0.441
-0.4165
-0.3945
-0.381
-0.37
-0.353
-0.338
-0.327
-0.304
-0.2765
-0.251
-0.227
-0.2015
-0.173
-0.151
-0.1285
-0.1155
-0.111
-0.089
-0.075
-0.0755
-0.081
-0.0985
-0.1185
-0.1505
-0.1835
-0.202
-0.223
-0.252
-0.287
-0.3205
-0.352
-0.385
-0.4185
-0.4435
-0.465
-0.49
-0.511
-0.538
-0.5565
-0.5605
-0.5635
-0.561
-0.5615
-0.5625
-0.559
-0.5515
-0.538
-0.5235
-0.5125
-0.495
-0.478
-0.4715
-0.46
-0.454
-0.449
-0.4395
-0.4375
-0.4395
-0.4435
-0.445
-0.45
-0.459
-0.46
-0.4615
-0.467
-0.47
-0.4765
-0.483
-0.482
-0.48
-0.481
-0.4835
-0.484
-0.4835
-0.487
-0.486
-0.4885
-0.4925
-0.492
-0.4915
-0.487
-0.49
-0.492
-0.4925
-0.4955
-0.4915
-0.4905
-0.4905
-0.4905
-0.4915
-0.4935
-0.4975
-0.491
-0.4875
-0.495
-0.496
-0.4935
-0.4895
-0.4885
-0.49
-0.49
-0.4885
-0.4885
-0.491
-0.492
-0.494
-0.4885
-0.4855
-0.4895
-0.489
-0.49
-0.4875
-0.484
-0.4835
-0.483
-0.482
-0.4875
-0.4865
-0.478
-0.478
-0.478
-0.4795
-0.479
-0.477
-0.4765
-0.4785
-0.4785
-0.472
-0.47
-0.472
-0.475
-0.471
-0.469
-0.4705
-0.4675
-0.4705
-0.475
-0.47
-0.4685
-0.47
-0.4725
-0.468
-0.4685
-0.478
-0.4745
-0.4715
-0.47
-0.472
-0.472
-0.4635
-0.4625
-0.463
-0.4635
-0.4585
-0.4575
-0.4535
-0.4465
-0.451
-0.453
-0.4575
-0.457
-0.456
-0.4575
-0.4525
-0.4545
-0.4565
-0.454
-0.455
-0.455
-0.4535
-0.45
-0.446
-0.4515
-0.454
-0.45
-0.45
-0.4485
-0.4415
-0.436
-0.437
-0.437
-0.432
-0.4295
-0.4335
-0.435
-0.4315
-0.4275
-0.429
-0.431
-0.433
-0.4265
-0.4195
-0.419
-0.4075
-0.405
-0.4115
-0.4105
-0.41
-0.4085
-0.4075
-0.407
-0.4065
-0.404
-0.4
-0.3975
-0.3945
-0.391
-0.3905
-0.3875
-0.382
-0.3845
-0.3835
-0.384
-0.39
-0.381
-0.3725
-0.3715
-0.3745
-0.378
-0.381
-0.382
-0.3775
-0.3755
-0.3765
-0.3765
-0.377
-0.3765
-0.38
-0.381
-0.38
-0.382
-0.378
-0.378
-0.3835
-0.3885
-0.3915
-0.3865
-0.3795
-0.38
-0.386
-0.3905
-0.387
-0.3875
-0.386
-0.3865
-0.3965
-0.396
-0.395
-0.395
-0.392
-0.3955
-0.3995
-0.403
-0.405
-0.4085
-0.4075
-0.411
-0.419
-0.4145
-0.415
-0.4125
-0.4115
-0.414
-0.418
-0.43
-0.4355
-0.4375
-0.4405
-0.447
-0.451
-0.4495
-0.4495
-0.452
-0.4555
-0.463
-0.466
-0.474
-0.48
-0.4725
-0.465
-0.455
-0.459
-0.468
-0.471
-0.469
-0.4625
-0.4615
-0.4625
-0.4645
-0.4625
-0.4685
-0.472
-0.474
-0.482
-0.479
-0.485
-0.491
-0.4905
-0.492
-0.4985
-0.5
-0.496
-0.4985
-0.4985
-0.4985
-0.4945
-0.496
-0.5
-0.4875
-0.4825
-0.487
-0.486
-0.4855
-0.4875
-0.4895
-0.491
-0.491
-0.4865
-0.4895
-0.4965
-0.494
-0.4925
-0.4895
-0.485
-0.4895
-0.4905
-0.487
-0.486
-0.4835
-0.485
-0.482
-0.477
-0.4745
-0.477
-0.478
-0.472
-0.473
-0.479
-0.484
-0.483
-0.4815
-0.4805
-0.4795
-0.4765
-0.4745
-0.475
-0.4725
-0.4715
-0.4705
-0.477
-0.4815
-0.48
-0.4815
-0.4785
-0.4725
-0.4765
-0.484
-0.481
-0.4815
-0.4795
-0.48
-0.4865
-0.4845
-0.485
-0.4875
-0.49
-0.4905
-0.4895
-0.4915
-0.491
-0.489
-0.49
-0.496
-0.498
-0.4985
-0.4955
-0.493
-0.4935
-0.494
-0.4965
-0.4985
-0.501
-0.4965
-0.4955
-0.4995
-0.502
-0.5035
-0.5015
-0.4965
-0.4955
-0.496
-0.497
-0.504
-0.501
-0.499
-0.505
-0.501
-0.4955
-0.496
-0.4955
-0.4935
-0.492
-0.4925
-0.495
-0.496
-0.497
-0.5005
-0.4995
-0.494
-0.4955
-0.4915
-0.4875
-0.4915
-0.4955
-0.4955
-0.49
-0.4915
-0.4885
-0.4835
-0.4875
-0.4885
-0.4815
-0.4755
-0.4725
-0.4735
-0.4775
-0.4815
-0.4815
-0.473
-0.4755
-0.484
-0.481
-0.478
-0.4795
-0.483
-0.482
-0.479
-0.4775
-0.475
-0.479
-0.4785
-0.471
-0.4695
-0.4705
-0.4705
-0.4765
-0.48
-0.48
-0.479
-0.475
-0.4725
-0.476
-0.4825
-0.483
-0.4815
-0.4785
-0.476
-0.478
-0.478
-0.4785
-0.4835
-0.4855
-0.4835
-0.485
-0.485
-0.4835
-0.49
-0.4925
-0.4875
-0.491
-0.487
-0.489
-0.4965
-0.4875
-0.4865
-0.486
-0.4845
-0.481
-0.476
-0.475
-0.477
-0.482
-0.4785
-0.478
-0.4815
-0.4785
-0.475
-0.476
-0.475
-0.4745
-0.4755
-0.48
-0.4795
-0.4755
-0.482
-0.484
-0.4805
-0.487
-0.4905
-0.484
-0.492
-0.4935
-0.4815
-0.4875
-0.495
-0.497
-0.493
-0.4955
-0.4995
-0.492
-0.4905
-0.489
-0.4935
-0.4975
-0.4955
-0.4905
-0.49
-0.4875
-0.4815
-0.4875
-0.4885
-0.4905
-0.4895
-0.4825
-0.4865
-0.489
-0.492
-0.4895
-0.491
-0.493
-0.4875
-0.4885
-0.4845
-0.4815
-0.4815
-0.4805
-0.4815
-0.4785
-0.477
-0.478
-0.4805
-0.483
-0.484
-0.4715
-0.4665
-0.479
-0.4795
-0.483
-0.4845
-0.479
-0.4815
-0.4815
-0.477
-0.483
-0.4875
-0.482
-0.4845
-0.4865
-0.48
-0.484
-0.486
-0.4865
-0.489
-0.4825
-0.4795
-0.481
-0.477
-0.472
-0.4715
-0.4725
-0.472
-0.4695
-0.4725
-0.4785
-0.4715
-0.4655
-0.4645
-0.4615
-0.468
-0.4705
-0.4695
-0.4705
-0.4615
-0.4665
-0.474
-0.47
-0.4695
-0.469
-0.4745
-0.483
-0.476
-0.4725
-0.482
-0.4845
-0.481
-0.4775
-0.4735
-0.4635
-0.4645
-0.462
-0.452
-0.45
-0.4525
-0.461
-0.4605
-0.4595
-0.462
-0.464
-0.4685
-0.4575
-0.4515
-0.463
-0.4655
-0.4675
-0.465
-0.46
-0.4625
-0.461
-0.464
-0.467
-0.4645
-0.4555
-0.4485
-0.4475
-0.438
-0.431
-0.431
-0.43
-0.4265
-0.43
-0.437
-0.4415
-0.4445
-0.4425
-0.446
-0.4485
-0.4485
-0.452
-0.461
-0.4675
-0.4675
-0.473
-0.48
-0.483
-0.4885
-0.486
-0.475
-0.479
-0.4805
-0.486
-0.4955
-0.504
-0.508
-0.508
-0.5125
-0.504
-0.5035
-0.5015
-0.497
-0.5055
-0.5135
-0.5105
-0.4945
-0.5045
-0.5205
-0.515
-0.5075
-0.5095
-0.517
-0.513
-0.5105
-0.509
-0.5075
-0.507
-0.5025
-0.5065
-0.501
-0.5025
-0.5
-0.5
-0.5145
-0.5055
-0.511
-0.5195
-0.5155
-0.5165
-0.519
-0.519
-0.514
-0.5155
-0.5155
-0.512
-0.5095
-0.513
-0.511
-0.5075
-0.512
-0.5135
-0.511
-0.5105
-0.5125
-0.516
-0.5125
-0.5015
-0.5035
-0.5035
-0.495
-0.4995
-0.5025
-0.5015
-0.507
-0.516
-0.5115
-0.513
-0.524
-0.5155
-0.515
-0.518
-0.52
-0.523
-0.5265
-0.527
-0.517
-0.5145
-0.5095
-0.503
-0.499
-0.4895
-0.48
-0.4785
-0.47
-0.455
-0.432
-0.4085
-0.3895
-0.3735
-0.3655
-0.3495
-0.3375
-0.32
-0.304
-0.2945
-0.27
-0.245
-0.228
-0.211
-0.1895
-0.1745
-0.1565
-0.1425
-0.1265
-0.1105
-0.103
-0.101
-0.112
-0.1205
-0.141
-0.1625
-0.1955
-0.2355
-0.2615
-0.283
-0.311
-0.35
-0.381
-0.399
-0.4245
-0.4545
-0.473
-0.501
-0.516
-0.5325
-0.558
-0.5615
-0.563
-0.566
-0.5665
-0.561
-0.561
-0.5635
-0.55
-0.5415
-0.532
-0.5165
-0.503
-0.4915
-0.4835
-0.475
-0.4725
-0.4685
-0.4635
-0.462
-0.456
-0.4545
-0.456
-0.452
-0.4515
-0.4615
-0.4715
-0.473
-0.472
-0.4755
-0.4775
-0.4765
-0.4805
-0.488
-0.488
-0.485
-0.4895
-0.4885
-0.4815
-0.484
-0.4885
-0.489
-0.4885
-0.4875
-0.486
-0.481
-0.4835
-0.483
-0.4835
-0.4875
-0.4775
-0.4775
-0.4815
-0.481
-0.4805
-0.486
-0.4885
-0.487
-0.4865
-0.4755
-0.476
-0.479
-0.477
-0.4855
-0.4895
-0.483
-0.4795
-0.478
-0.479
-0.4775
-0.471
-0.4805
-0.4855
-0.4775
-0.4755
-0.473
-0.4775
-0.48
-0.4745
-0.466
-0.4615
-0.464
-0.4585
-0.46
-0.4645
-0.457
-0.4535
-0.4565
-0.454
-0.454
-0.457
-0.4535
-0.4525
-0.4555
-0.453
-0.4555
-0.451
-0.4395
-0.4385
-0.4425
-0.4455
-0.4425
-0.438
-0.4375
-0.4405
-0.438
-0.4275
-0.431
-0.4405
-0.4355
-0.43
-0.4285
-0.4305
-0.434
-0.43
-0.4245
-0.426
-0.432
-0.435
-0.4315
-0.4255
-0.4205
-0.4225
-0.4305
-0.423
-0.4235
-0.432
-0.422
-0.425
-0.4295
-0.4225
-0.416
-0.414
-0.424
-0.428
-0.425
-0.419
-0.413
-0.4165
-0.4095
-0.409
-0.4175
-0.409
-0.4055
-0.413
-0.413
-0.4075
-0.4
-0.397
-0.396
-0.385
-0.376
-0.379
-0.379
-0.378
-0.3775
-0.3745
-0.3765
-0.3685
-0.3665
-0.369
-0.366
-0.3635
-0.3535
-0.3495
-0.351
-0.3445
-0.3355
-0.3315
-0.332
-0.333
-0.328
-0.322
-0.33
-0.3325
-0.333
-0.3365
-0.3315
-0.3295
-0.3235
-0.325
-0.3265
-0.3195
-0.3175
-0.32
-0.322
-0.3205
-0.3215
-0.3225
-0.325
-0.3235
-0.3165
-0.32
-0.321
-0.3245
-0.3265
-0.322
-0.323
-0.324
-0.3285
-0.331
-0.3195
-0.315
-0.3235
-0.3285
-0.3265
-0.3265
-0.338
-0.339
-0.3275
-0.3295
-0.341
-0.3445
-0.3445
-0.3495
-0.3525
-0.354
-0.3605
-0.3635
-0.36
-0.3605
-0.363
-0.36
-0.3655
-0.3695
-0.367
-0.3675
-0.3655
-0.3655
-0.369
-0.3795
-0.3815
-0.381
-0.392
-0.388
-0.391
-0.4025
-0.402
-0.4035
-0.402
-0.409
-0.4155
-0.418
-0.4105
-0.4005
-0.4135
-0.4185
-0.4205
-0.4235
-0.42
-0.4225
-0.4245
-0.4295
-0.427
-0.415
-0.412
-0.431
-0.439
-0.426
-0.4255
-0.43
-0.436
-0.4365
-0.436
-0.4345
-0.426
-0.4285
-0.437
-0.4345
-0.425
-0.4285
-0.4335
-0.4395
-0.4415
-0.438
-0.439
-0.4405
-0.441
-0.439
-0.4385
-0.445
-0.4495
-0.447
-0.4435
-0.44
-0.4405
-0.4475
-0.454
-0.4535
-0.4525
-0.445
-0.4395
-0.4365
-0.438
-0.4475
-0.446
-0.449
-0.4505
-0.4425
-0.4335
-0.4425
-0.4475
-0.439
-0.441
-0.4475
-0.445
-0.437
-0.442
-0.4435
-0.4435
-0.4425
-0.44
-0.4435
-0.4455
-0.447
-0.441
-0.438
-0.443
-0.4395
-0.443
-0.4485
-0.448
-0.451
-0.442
-0.442
-0.4495
-0.4455
-0.4415
-0.435
-0.438
-0.4395
-0.44
-0.4405
-0.442
-0.447
-0.444
-0.4465
-0.4455
-0.4455
-0.4475
-0.4445
-0.448
-0.4555
-0.4605
-0.458
-0.455
-0.4555
-0.4555
-0.456
-0.46
-0.4615
-0.4575
-0.455
-0.4565
-0.4515
-0.45
-0.456
-0.4535
-0.4465
-0.445
-0.448
-0.4465
-0.4495
-0.448
-0.4485
-0.455
-0.4485
-0.4515
-0.451
-0.4445
-0.443
-0.436
-0.4415
-0.4485
-0.446
-0.4495
-0.457
-0.46
-0.452
-0.4475
-0.456
-0.46
-0.456
-0.454
-0.4605
-0.4605
-0.452
-0.4515
-0.456
-0.453
-0.4585
-0.4605
-0.455
-0.459
-0.467
-0.4685
-0.464
-0.461
-0.463
-0.4685
-0.472
-0.476
-0.468
-0.4605
-0.464
-0.4705
-0.467
-0.4665
-0.472
-0.4625
-0.4575
-0.4555
-0.453
-0.4585
-0.4575
-0.4545
-0.454
-0.454
-0.4605
-0.4595
-0.457
-0.4605
-0.4625
-0.466
-0.464
-0.4595
-0.461
-0.4585
-0.4585
-0.464
-0.4605
-0.4645
-0.4625
-0.4535
-0.458
-0.459
-0.4565
-0.453
-0.4555
-0.4565
-0.4495
-0.4565
-0.4635
-0.463
-0.4605
-0.4585
-0.4615
-0.4575
-0.455
-0.454
-0.45
-0.4495
-0.453
-0.454
-0.4515
-0.452
-0.4535
-0.4535
-0.448
-0.449
-0.4515
-0.4495
-0.455
-0.449
-0.446
-0.4515
-0.4495
-0.456
-0.459
-0.446
-0.4435
-0.4535
-0.4505
-0.4515
-0.4595
-0.4555
-0.4595
-0.4585
-0.4605
-0.465
-0.4555
-0.458
-0.459
-0.459
-0.4625
-0.465
-0.4665
-0.4615
-0.47
-0.475
-0.468
-0.4695
-0.474
-0.4615
-0.458
-0.463
-0.466
-0.4745
-0.471
-0.4725
-0.476
-0.475
-0.4725
-0.4705
-0.4685
-0.468
-0.4715
-0.468
-0.4645
-0.469
-0.468
-0.4605
-0.461
-0.4585
-0.4605
-0.461
-0.453
-0.4515
-0.4485
-0.4455
-0.4505
-0.4555
-0.4575
-0.451
-0.4475
-0.447
-0.449
-0.4545
-0.4495
-0.4525
-0.454
-0.445
-0.4465
-0.451
-0.4485
-0.4495
-0.452
-0.4485
-0.4465
-0.445
-0.4445
-0.447
-0.4505
-0.456
-0.456
-0.449
-0.4445
-0.4445
-0.4415
-0.4475
-0.4485
-0.444
-0.4475
-0.4395
-0.434
-0.437
-0.435
-0.4265
-0.422
-0.4225
-0.4255
-0.4315
-0.426
-0.426
-0.4335
-0.4295
-0.4295
-0.4325
-0.4285
-0.4245
-0.4305
-0.43
-0.4325
-0.444
-0.4405
-0.4375
-0.4355
-0.4315
-0.4265
-0.416
-0.418
-0.4215
-0.4135
-0.4115
-0.4155
-0.4195
-0.425
-0.4215
-0.4205
-0.4235
-0.4275
-0.4345
-0.432
-0.4325
-0.44
-0.45
-0.455
-0.4555
-0.4675
-0.479
-0.478
-0.4765
-0.4775
-0.4735
-0.4715
-0.4705
-0.472
-0.4815
-0.4805
-0.4735
-0.4765
-0.469
-0.4625
-0.465
-0.461
-0.469
-0.4695
-0.4705
-0.475
-0.4615
-0.469
-0.4745
-0.469
-0.472
-0.47
-0.469
-0.469
-0.473
-0.469
-0.467
-0.471
-0.4675
-0.472
-0.474
-0.47
-0.4705
-0.4685
-0.4715
-0.4725
-0.466
-0.4695
-0.47
-0.47
-0.472
-0.473
-0.473
-0.474
-0.4775
-0.479
-0.483
-0.4775
-0.476
-0.478
-0.4755
-0.4785
-0.476
-0.475
-0.4755
-0.4705
-0.4715
-0.479
-0.479
-0.4735
-0.476
-0.478
-0.4735
-0.474
-0.4765
-0.4725
-0.47
-0.4745
-0.476
-0.479
-0.4845
-0.4815
-0.4805
-0.4795
-0.476
-0.4765
-0.4725
-0.4695
-0.4665
-0.4595
-0.4595
-0.453
-0.435
-0.4235
-0.412
-0.3955
-0.3765
-0.365
-0.351
-0.339
-0.3315
-0.3205
-0.3065
-0.2845
-0.2735
-0.2585
-0.2355
-0.213
-0.183
-0.161
-0.155
-0.1395
-0.123
-0.1135
-0.0945
-0.082
-0.079
-0.0915
-0.1085
-0.1225
-0.1455
-0.179
-0.2155
-0.242
-0.26
-0.283
-0.3115
-0.343
-0.366
-0.387
-0.4125
-0.434
-0.4515
-0.4635
-0.48
-0.5025
-0.5155
-0.514
-0.5125
-0.5145
-0.5115
-0.505
-0.5025
-0.503
-0.493
-0.4805
-0.4605
-0.445
-0.439
-0.425
-0.414
-0.4075
-0.4035
-0.4025
-0.3975
-0.394
-0.3945
-0.3965
-0.3965
-0.4045
-0.4205
-0.4305
-0.43
-0.4165
-0.42
-0.4225
-0.4195
-0.4255
-0.4225
-0.428
-0.4255
-0.422
-0.4275
-0.4245
-0.4265
-0.4285
-0.428
-0.4245
-0.422
-0.428
-0.4275
-0.4255
-0.4285
-0.425
-0.4235
-0.425
-0.4245
-0.4275
-0.427
-0.4255
-0.4255
-0.4215
-0.4215
-0.4245
-0.431
-0.4255
-0.4215
-0.429
-0.4275
-0.425
-0.425
-0.424
-0.416
-0.4155
-0.4235
-0.421
-0.418
-0.4215
-0.421
-0.4175
-0.422
-0.4245
-0.423
-0.419
-0.4185
-0.422
-0.4205
-0.422
-0.415
-0.415
-0.424
-0.4185
-0.4215
-0.426
-0.421
-0.423
-0.4255
-0.4255
-0.4295
-0.4335
-0.436
-0.43
-0.4255
-0.4275
-0.424
-0.424
-0.423
-0.418
-0.415
-0.418
-0.419
-0.414
-0.4175
-0.4195
-0.419
-0.415
-0.415
-0.4165
-0.4115
-0.4105
-0.4095
-0.4105
-0.4075
-0.4065
-0.411
-0.41
-0.41
-0.407
-0.4085
-0.41
-0.409
-0.41
-0.4095
-0.408
-0.402
-0.4015
-0.404
-0.403
-0.3995
-0.3945
-0.385
-0.382
-0.38
-0.3725
-0.377
-0.376
-0.373
-0.375
-0.372
-0.3685
-0.3635
-0.3615
-0.3575
-0.3515
-0.357
-0.3585
-0.347
-0.3425
-0.345
-0.34
-0.338
-0.3425
-0.3405
-0.34
-0.3385
-0.3385
-0.336
-0.337
-0.3365
-0.3275
-0.325
-0.322
-0.3185
-0.318
-0.319
-0.314
-0.3085
-0.306
-0.3045
-0.306
-0.3065
-0.307
-0.3045
-0.302
-0.294
-0.291
-0.2935
-0.2985
-0.304
-0.2985
-0.3
-0.2975
-0.29
-0.2935
-0.2965
-0.2945
-0.292
-0.2895
-0.2945
-0.298
-0.296
-0.2935
-0.292
-0.295
-0.2925
-0.2915
-0.2915
-0.296
-0.307
-0.3075
-0.305
-0.31
-0.3155
-0.3125
-0.3145
-0.3225
-0.32
-0.3165
-0.3235
-0.33
-0.333
-0.3325
-0.337
-0.3365
-0.336
-0.3405
-0.34
-0.346
-0.345
-0.35
-0.3615
-0.359
-0.36
-0.3555
-0.353
-0.367
-0.375
-0.374
-0.3765
-0.3795
-0.3835
-0.388
-0.384
-0.3765
-0.372
-0.37
-0.3725
-0.3795
-0.383
-0.386
-0.3855
-0.3855
-0.3905
-0.391
-0.397
-0.404
-0.4015
-0.395
-0.392
-0.3905
-0.3955
-0.4025
-0.3995
-0.4005
-0.405
-0.4055
-0.4025
-0.397
-0.3965
-0.3985
-0.4015
-0.402
-0.3965
-0.4005
-0.3985
-0.396
-0.3985
-0.391
-0.3965
-0.4
-0.3905
-0.392
-0.404
-0.4045
-0.401
-0.4045
-0.4075
-0.4075
-0.4065
-0.4115
-0.4075
-0.398
-0.399
-0.4005
-0.4045
-0.4015
-0.4
-0.403
-0.3965
-0.3935
-0.3955
-0.398
-0.4025
-0.4045
-0.4065
-0.408
-0.404
-0.4
-0.4
-0.4015
-0.406
-0.406
-0.4115
-0.41
-0.3995
-0.4005
-0.4105
-0.413
-0.4075
-0.409
-0.4085
-0.409
-0.406
-0.408
-0.4105
-0.402
-0.4015
-0.414
-0.422
-0.4195
-0.419
-0.411
-0.413
-0.412
-0.4025
-0.4
-0.395
-0.4005
-0.4
-0.3965
-0.4005
-0.404
-0.404
-0.4005
-0.398
-0.4025
-0.405
-0.402
-0.402
-0.4015
-0.403
-0.399
-0.3985
-0.3985
-0.3985
-0.399
-0.396
-0.3965
-0.392
-0.397
-0.4
-0.399
-0.3965
-0.386
-0.3915
-0.394
-0.3885
-0.3875
-0.388
-0.392
-0.394
-0.392
-0.3875
-0.391
-0.391
-0.3875
-0.385
-0.386
-0.388
-0.3895
-0.3915
-0.386
-0.3835
-0.379
-0.377
-0.378
-0.3755
-0.3825
-0.3845
-0.385
-0.3875
-0.3865
-0.384
-0.3805
-0.3825
-0.387
-0.3925
-0.392
-0.389
-0.383
-0.381
-0.3865
-0.39
-0.394
-0.3955
-0.3975
-0.398
-0.3945
-0.3915
-0.3975
-0.3975
-0.3965
-0.4015
-0.3985
-0.398
-0.3985
-0.398
-0.3965
-0.396
-0.3995
-0.3985
-0.3945
-0.398
-0.3925
-0.386
-0.3935
-0.3945
-0.3935
-0.3925
-0.3905
-0.39
-0.391
-0.393
-0.3925
-0.3905
-0.3905
-0.393
-0.3905
-0.3885
-0.386
-0.3845
-0.3915
-0.395
-0.392
-0.383
-0.38
-0.3885
-0.3895
-0.388
-0.387
-0.393
-0.4025
-0.396
-0.3965
-0.404
-0.4055
-0.4075
-0.4065
-0.406
-0.412
-0.414
-0.4125
-0.4165
-0.411
-0.4055
-0.4045
-0.404
-0.4095
-0.4105
-0.409
-0.4125
-0.4155
-0.41
-0.4095
-0.409
-0.409
-0.4145
-0.4125
-0.412
-0.412
-0.413
-0.415
-0.419
-0.422
-0.422
-0.4245
-0.425
-0.42
-0.4205
-0.426
-0.43
-0.4305
-0.4285
-0.428
-0.4325
-0.438
-0.4345
-0.4385
-0.437
-0.4325
-0.435
-0.437
-0.4425
-0.441
-0.4395
-0.4395
-0.442
-0.4445
-0.439
-0.4385
-0.4415
-0.4435
-0.449
-0.448
-0.4445
-0.443
-0.438
-0.44
-0.439
-0.439
-0.4425
-0.4415
-0.4465
-0.452
-0.453
-0.4475
-0.445
-0.446
-0.442
-0.4425
-0.4465
-0.4485
-0.451
-0.4485
-0.449
-0.4535
-0.457
-0.45
-0.446
-0.4435
-0.4435
-0.4585
-0.44
-0.4565
-0.431
-0.46
-0.426
-0.457
-0.4325
-0.444
-0.7455
-0.5085
-0.3995
-0.4775
-0.421
-0.4545
-0.429
-0.454
-0.435
-0.4415
-0.439
-0.441
-0.446
-0.4475
-0.4485
-0.4425
-0.444
-0.444
-0.4425
-0.4395
-0.438
-0.4305
-0.4305
-0.4395
-0.4435
-0.431
-0.428
-0.4305
-0.431
-0.4245
-0.414
-0.41
-0.4115
-0.408
-0.3995
-0.398
-0.398
-0.399
-0.4025
-0.409
-0.413
-0.4175
-0.412
-0.404
-0.407
-0.4095
-0.4105
-0.407
-0.4115
-0.4145
-0.4085
-0.4095
-0.4095
-0.4075
-0.4035
-0.394
-0.3905
-0.3905
-0.3905
-0.385
-0.383
-0.3885
-0.3885
-0.3875
-0.388
-0.392
-0.4
-0.405
-0.409
-0.411
-0.4125
-0.423
-0.4285
-0.427
-0.4305
-0.4325
-0.4305
-0.4295
-0.4305
-0.4305
-0.4305
-0.428
-0.43
-0.4315
-0.438
-0.4405
-0.436
-0.4425
-0.4475
-0.4535
-0.4555
-0.4525
-0.45
-0.447
-0.4465
-0.446
-0.4445
-0.4495
-0.455
-0.4525
-0.4525
-0.4505
-0.4515
-0.4535
-0.452
-0.449
-0.4485
-0.4525
-0.4535
-0.4495
-0.445
-0.447
-0.451
-0.45
-0.449
-0.4515
-0.4515
-0.4525
-0.4505
-0.446
-0.4485
-0.4495
-0.455
-0.4595
-0.451
-0.4465
-0.4485
-0.451
-0.4525
-0.454
-0.4545
-0.4535
-0.454
-0.455
-0.4555
-0.4555
-0.456
-0.4625
-0.463
-0.4605
-0.46
-0.4605
-0.4635
-0.464
-0.4635
-0.4645
-0.4655
-0.468
-0.4685
-0.468
-0.4705
-0.4705
-0.4745
-0.4755
-0.472
-0.467
-0.4555
-0.4615
-0.4635
-0.456
-0.449
-0.4285
-0.4155
-0.4015
-0.386
-0.366
-0.3435
-0.3385
-0.332
-0.3125
-0.2955
-0.285
-0.2735
-0.255
-0.226
-0.2055
-0.185
-0.157
-0.1355
-0.114
-0.0945
-0.0845
-0.069
-0.052
-0.0535
-0.061
-0.0665
-0.0755
-0.0985
-0.1335
-0.162
-0.184
-0.2
-0.224
-0.2575
-0.288
-0.319
-0.3485
-0.3715
-0.387
-0.4105
-0.4335
-0.45
-0.4705
-0.481
-0.479
-0.4765
-0.4825
-0.486
-0.478
-0.4725
-0.4665
-0.456
-0.4425
-0.4265
-0.412
-0.4065
-0.3985
-0.385
-0.3775
-0.376
-0.3645
-0.362
-0.3685
-0.366
-0.3675
-0.3685
-0.37
-0.3725
-0.374
-0.3755
-0.38
-0.3825
-0.3835
-0.387
-0.3885
-0.3915
-0.399
-0.402
-0.3985
-0.4005
-0.403
-0.4065
-0.4085
-0.408
-0.4085
-0.406
-0.409
-0.412
-0.4115
-0.4075
-0.4045
-0.4025
-0.4055
-0.406
-0.407
-0.411
-0.4105
-0.4095
-0.4085
-0.4065
-0.405
-0.407
-0.4025
-0.3905
-0.3935
-0.398
-0.3965
-0.3975
-0.4015
-0.402
-0.4025
-0.4045
-0.4055
-0.407
-0.405
-0.4045
-0.407
-0.407
-0.4015
-0.403
-0.404
-0.3995
-0.402
-0.401
-0.4025
-0.4085
-0.409
-0.409
-0.4095
-0.4095
-0.409
-0.4075
-0.408
-0.4145
-0.414
-0.407
-0.4075
-0.4075
-0.407
-0.4075
-0.408
-0.4065
-0.403
-0.4015
-0.4025
-0.401
-0.3975
-0.3995
-0.398
-0.393
-0.3935
-0.3965
-0.398
-0.3945
-0.3915
-0.3925
-0.3905
-0.3905
-0.389
-0.387
-0.391
-0.3905
-0.3935
-0.392
-0.387
-0.3915
-0.3935
-0.3885
-0.3845
-0.384
-0.3765
-0.372
-0.3705
-0.3695
-0.369
-0.363
-0.3615
-0.361
-0.3615
-0.361
-0.3575
-0.356
-0.3495
-0.35
-0.353
-0.348
-0.3455
-0.3385
-0.3395
-0.3435
-0.337
-0.336
-0.337
-0.3315
-0.322
-0.3165
-0.316
-0.317
-0.3195
-0.3195
-0.317
-0.314
-0.314
-0.3105
-0.3085
-0.307
-0.3035
-0.3045
-0.2975
-0.2875
-0.2835
-0.286
-0.2915
-0.289
-0.289
-0.2915
-0.2895
-0.292
-0.29
-0.286
-0.287
-0.288
-0.286
-0.2875
-0.2775
-0.2815
-0.2775
-0.285
-0.2865
-0.277
-0.2945
-0.2605
-0.321
-0.245
-0.3465
-0.2255
-0.3585
-0.2195
-0.3455
-0.293
0.9655
-0.025
-0.461
-0.158
-0.3905
-0.213
-0.3465
-0.254
-0.312
-0.282
-0.2945
-0.297
-0.288
-0.307
-0.2925
-0.298
-0.2965
-0.3065
-0.304
-0.309
-0.3055
-0.312
-0.311
-0.3145
-0.3185
-0.3185
-0.313
-0.312
-0.3185
-0.3175
-0.3205
-0.3235
-0.3265
-0.336
-0.3395
-0.3415
-0.3455
-0.348
-0.347
-0.35
-0.354
-0.353
-0.35
-0.3535
-0.361
-0.3595
-0.362
-0.37
-0.3685
-0.364
-0.3665
-0.3685
-0.3695
-0.3745
-0.3795
-0.3805
-0.382
-0.387
-0.3875
-0.3905
-0.397
-0.396
-0.397
-0.3995
-0.3995
-0.397
-0.3955
-0.3985
-0.403
-0.401
-0.3925
-0.3935
-0.397
-0.4005
-0.402
-0.398
-0.3975
-0.401
-0.4
-0.399
-0.399
-0.3995
-0.4035
-0.4045
-0.4045
-0.4015
-0.398
-0.402
-0.4105
-0.412
-0.4125
-0.414
-0.4115
-0.409
-0.4115
-0.413
-0.409
-0.403
-0.398
-0.4
-0.405
-0.403
-0.399
-0.4
-0.3985
-0.3965
-0.4
-0.4035
-0.4055
-0.4085
-0.408
-0.402
-0.3985
-0.401
-0.401
-0.402
-0.4025
-0.4035
-0.4035
-0.402
-0.4045
-0.409
-0.407
-0.4035
-0.404
-0.4
-0.4005
-0.402
-0.398
-0.3985
-0.398
-0.3975
-0.3975
-0.396
-0.398
-0.399
-0.3975
-0.399
-0.405
-0.401
-0.3975
-0.403
-0.403
-0.4
-0.4015
-0.403
-0.398
-0.393
-0.385
-0.3785
-0.383
-0.3845
-0.3855
-0.389
-0.39
-0.388
-0.3845
-0.387
-0.3865
-0.3795
-0.3775
-0.3825
-0.387
-0.3825
-0.38
-0.3835
-0.3875
-0.3895
-0.386
-0.3895
-0.395
-0.393
-0.392
-0.3925
-0.391
-0.3865
-0.39
-0.3895
-0.386
-0.3865
-0.382
-0.3795
-0.3805
-0.3875
-0.385
-0.384
-0.386
-0.3845
-0.391
-0.392
-0.3865
-0.3915
-0.396
-0.3885
-0.387
-0.3905
-0.3935
-0.3895
-0.384
-0.385
-0.3835
-0.3875
-0.3885
-0.384
-0.379
-0.379
-0.385
-0.3855
-0.384
-0.3845
-0.3795
-0.378
-0.382
-0.379
-0.3785
-0.3815
-0.3795
-0.3845
-0.387
-0.384
-0.3865
-0.3835
-0.3835
-0.3885
-0.388
-0.386
-0.3895
-0.39
-0.387
-0.3875
-0.3835
-0.386
-0.394
-0.392
-0.387
-0.3865
-0.388
-0.3945
-0.3885
-0.3845
-0.3865
-0.3845
-0.3895
-0.3935
-0.394
-0.394
-0.396
-0.3945
-0.392
-0.3915
-0.394
-0.3925
-0.3895
-0.391
-0.3895
-0.3895
-0.3875
-0.389
-0.389
-0.3815
-0.385
-0.3885
-0.386
-0.3865
-0.3885
-0.3975
-0.3985
-0.3915
-0.3895
-0.385
-0.384
-0.3855
-0.39
-0.4005
-0.406
-0.4015
-0.395
-0.3925
-0.3905
-0.3895
-0.3875
-0.385
-0.391
-0.3985
-0.399
-0.3945
-0.3985
-0.4
-0.3965
-0.3965
-0.397
-0.3955
-0.3955
-0.396
-0.396
-0.4
-0.403
-0.408
-0.409
-0.4075
-0.4085
-0.4075
-0.4095
-0.4065
-0.4035
-0.4045
-0.406
-0.403
-0.4005
-0.4045
-0.3995
-0.3985
-0.4065
-0.404
-0.4005
-0.4015
-0.399
-0.3995
-0.4035
-0.4035
-0.4005
-0.4
-0.402
-0.403
-0.4
-0.4
-0.4015
-0.396
-0.401
-0.4055
-0.398
-0.3965
-0.4005
-0.398
-0.3845
-0.3875
-0.396
-0.395
-0.4015
-0.401
-0.395
-0.398
-0.3985
-0.3955
-0.3985
-0.399
-0.398
-0.3985
-0.3965
-0.3975
-0.399
-0.395
-0.3925
-0.395
-0.397
-0.3995
-0.4015
-0.3975
-0.4005
-0.4065
-0.4005
-0.3975
-0.4
-0.402
-0.403
-0.398
-0.398
-0.3955
-0.392
-0.395
-0.395
-0.392
-0.388
-0.3925
-0.394
-0.3945
-0.3975
-0.4005
-0.4055
-0.406
-0.405
-0.4065
-0.404
-0.402
-0.404
-0.404
-0.402
-0.4015
-0.404
-0.398
-0.3935
-0.3955
-0.3945
-0.3955
-0.392
-0.385
-0.377
-0.378
-0.3805
-0.371
-0.371
-0.372
-0.369
-0.3705
-0.37
-0.3665
-0.3665
-0.371
-0.377
-0.3785
-0.375
-0.3735
-0.371
-0.3685
-0.372
-0.375
-0.3795
-0.383
-0.3825
-0.382
-0.38
-0.378
-0.3715
-0.3625
-0.356
-0.3505
-0.3555
-0.357
-0.3525
-0.3555
-0.363
-0.3665
-0.3615
-0.361
-0.367
-0.3695
-0.372
-0.372
-0.374
-0.3845
-0.39
-0.395
-0.4005
-0.4085
-0.4145
-0.4105
-0.41
-0.4125
-0.411
-0.412
-0.4125
-0.413
-0.4195
-0.4185
-0.4145
-0.417
-0.4145
-0.4145
-0.4155
-0.4145
-0.414
-0.4115
-0.4125
-0.41
-0.407
-0.405
-0.408
-0.412
-0.4105
-0.4115
-0.4115
-0.409
-0.411
-0.4155
-0.412
-0.4065
-0.409
-0.4085
-0.4065
-0.4085
-0.405
-0.403
-0.4015
-0.4025
-0.4075
-0.406
-0.406
-0.4095
-0.414
-0.414
-0.4105
-0.415
-0.417
-0.4125
-0.413
-0.408
-0.4065
-0.411
-0.411
-0.412
-0.4095
-0.412
-0.413
-0.414
-0.4145
-0.414
-0.413
-0.409
-0.4045
-0.4035
-0.4045
-0.404
-0.406
-0.4025
-0.406
-0.412
-0.4085
-0.415
-0.421
-0.419
-0.422
-0.4275
-0.4215
-0.418
-0.4145
-0.4035
-0.4005
-0.393
-0.3895
-0.383
-0.3675
-0.353
-0.3345
-0.321
-0.304
-0.28
-0.2665
-0.261
-0.2485
-0.23
-0.2165
-0.2055
-0.182
-0.152
-0.1255
-0.0995
-0.078
-0.058
-0.036
-0.019
-0.001
0.024
0.036
0.041
0.023
0.0355
-0.0185
-0.002
-0.0905
-0.0565
-0.1325
-0.1075
-0.152
-0.2275
-0.123
-0.489
0.731
0.419
-0.608
-0.2165
-0.473
-0.357
-0.4515
-0.4375
-0.4315
-0.458
-0.431
-0.4585
-0.426
-0.4515
-0.4245
-0.428
-0.3995
-0.388
-0.378
-0.3655
-0.3555
-0.349
-0.3445
-0.342
-0.339
-0.342
-0.3475
-0.3465
-0.3465
-0.3535
-0.359
-0.3635
-0.37
-0.373
-0.3735
-0.3765
-0.381
-0.3815
-0.3815
-0.3845
-0.3865
-0.3895
-0.394
-0.3985
-0.396
-0.396
-0.394
-0.3915
-0.397
-0.395
-0.3895
-0.389
-0.3875
-0.389
-0.394
-0.394
-0.396
-0.3965
-0.3955
-0.3965
-0.3915
-0.389
-0.389
-0.3895
-0.389
-0.3865
-0.388
-0.385
-0.384
-0.3875
-0.3915
-0.391
-0.39
-0.392
-0.391
-0.3905
-0.39
-0.3945
-0.394
-0.3885
-0.3875
-0.39
-0.387
-0.3775
-0.3785
-0.3815
-0.383
-0.383
-0.3845
-0.3885
-0.384
-0.381
-0.384
-0.383
-0.381
-0.3865
-0.387
-0.3835
-0.382
-0.3765
-0.3745
-0.375
-0.3725
-0.372
-0.3725
-0.3705
-0.369
-0.3685
-0.3665
-0.3605
-0.36
-0.364
-0.362
-0.361
-0.363
-0.3595
-0.355
-0.359
-0.3585
-0.3545
-0.356
-0.3575
-0.3535
-0.351
-0.3565
-0.3565
-0.3505
-0.353
-0.3575
-0.356
-0.353
-0.3515
-0.354
-0.3555
-0.3545
-0.3535
-0.3515
-0.3485
-0.3465
-0.3465
-0.346
-0.344
-0.3435
-0.3395
-0.334
-0.3375
-0.3415
-0.3405
-0.3415
-0.3405
-0.338
-0.335
-0.334
-0.3385
-0.3345
-0.325
-0.323
-0.3205
-0.314
-0.31
-0.3085
-0.3105
-0.308
-0.301
-0.2995
-0.298
-0.2985
-0.2985
-0.2955
-0.292
-0.292
-0.2935
-0.2895
-0.289
-0.2895
-0.2835
-0.2755
-0.27
-0.266
-0.268
-0.2715
-0.27
-0.2705
-0.2675
-0.2665
-0.269
-0.2655
-0.2635
-0.2615
-0.2535
-0.2475
-0.2525
-0.2565
-0.2565
-0.2565
-0.2555
-0.2575
-0.2625
-0.2665
-0.266
-0.265
-0.2625
-0.262
-0.264
-0.257
-0.257
-0.2665
-0.27
-0.2755
-0.273
-0.271
-0.2715
-0.27
-0.278
-0.2795
-0.2775
-0.277
-0.279
-0.287
-0.2865
-0.284
-0.2855
-0.2865
-0.288
-0.2915
-0.291
-0.2945
-0.302
-0.301
-0.2975
-0.301
-0.3065
-0.309
-0.3135
-0.3125
-0.314
-0.3255
-0.3285
-0.325
-0.329
-0.3345
-0.336
-0.3415
-0.3455
-0.3465
-0.3435
-0.3385
-0.343
-0.3495
-0.3565
-0.359
-0.361
-0.3645
-0.3665
-0.3695
-0.371
-0.379
-0.3845
-0.3855
-0.386
-0.389
-0.391
-0.394
-0.3955
-0.3915
-0.3955
-0.3985
-0.3985
-0.3985
-0.3955
-0.3985
-0.3995
-0.398
-0.3995
-0.402
-0.4035
-0.403
-0.402
-0.4
-0.401
-0.4065
-0.4105
-0.41
-0.41
-0.4145
-0.423
-0.4225
-0.4195
-0.4225
-0.424
-0.426
-0.426
-0.4145
-0.4095
-0.4055
-0.406
-0.4105
-0.4075
-0.4085
-0.4085
-0.4115
-0.4185
-0.4215
-0.4215
-0.421
-0.4185
-0.4165
-0.42
-0.428
-0.434
-0.43
-0.4255
-0.423
-0.42
-0.4215
-0.4235
-0.427
-0.4255
-0.421
-0.4205
-0.4225
-0.4255
-0.4245
-0.4235
-0.422
-0.42
-0.4195
-0.4125
-0.412
-0.4185
-0.4205
-0.4185
-0.4155
-0.4165
-0.418
-0.416
-0.423
-0.434
-0.4345
-0.433
-0.4345
-0.4355
-0.435
-0.437
-0.4335
-0.4305
-0.436
-0.435
-0.4305
-0.4275
-0.4265
-0.422
-0.422
-0.42
-0.414
-0.414
-0.4075
-0.4115
-0.416
-0.4105
-0.4135
-0.415
-0.411
-0.412
-0.4125
-0.4095
-0.404
-0.4035
-0.407
-0.4075
-0.404
-0.404
-0.4065
-0.406
-0.4025
-0.399
-0.399
-0.401
-0.4025
-0.403
-0.4025
-0.4015
-0.401
-0.402
-0.4005
-0.4
-0.403
-0.4015
-0.404
-0.4065
-0.404
-0.406
-0.4035
-0.4025
-0.4025
-0.4075
-0.416
-0.4115
-0.407
-0.409
-0.4115
-0.411
-0.4085
-0.4085
-0.4135
-0.4115
-0.4095
-0.4145
-0.417
-0.416
-0.4135
-0.4125
-0.412
-0.416
-0.4185
-0.419
-0.421
-0.4195
-0.415
-0.414
-0.4135
-0.412
-0.41
-0.4075
-0.407
-0.406
-0.409
-0.4095
-0.4095
-0.4165
-0.418
-0.4175
-0.4195
-0.42
-0.4205
-0.424
-0.421
-0.4185
-0.4195
-0.422
-0.4245
-0.4205
-0.4175
-0.4205
-0.4205
-0.4185
-0.419
-0.418
-0.4175
-0.417
-0.419
-0.4185
-0.416
-0.4195
-0.4195
-0.418
-0.419
-0.4185
-0.425
-0.4245
-0.4205
-0.422
-0.42
-0.4255
-0.4255
-0.4235
-0.4235
-0.4215
-0.4245
-0.4235
-0.423
-0.426
-0.425
-0.4255
-0.423
-0.419
-0.419
-0.4225
-0.418
-0.4155
-0.415
-0.4155
-0.4235
-0.423
-0.42
-0.4205
-0.4225
-0.427
-0.426
-0.424
-0.4245
-0.425
-0.428
-0.429
-0.4305
-0.429
-0.4255
-0.4215
-0.422
-0.4195
-0.4185
-0.4245
-0.4235
-0.4245
-0.4235
-0.426
-0.425
-0.418
-0.4155
-0.4135
-0.4175
-0.4165
-0.4165
-0.4175
-0.417
-0.4185
-0.4185
-0.42
-0.417
-0.4205
-0.425
-0.424
-0.4235
-0.4225
-0.4235
-0.426
-0.43
-0.4295
-0.4285
-0.43
-0.431
-0.433
-0.435
-0.433
-0.431
-0.43
-0.425
-0.423
-0.417
-0.4165
-0.425
-0.424
-0.422
-0.422
-0.425
-0.4315
-0.434
-0.431
-0.429
-0.4305
-0.4335
-0.4345
-0.436
-0.4355
-0.4315
-0.429
-0.4255
-0.433
-0.4355
-0.4335
-0.4325
-0.433
-0.438
-0.4345
-0.4315
-0.4265
-0.42
-0.419
-0.4175
-0.4205
-0.4275
-0.427
-0.4235
-0.425
-0.422
-0.4205
-0.42
-0.4175
-0.4165
-0.414
-0.4155
-0.4135
-0.411
-0.409
-0.4035
-0.404
-0.4005
-0.4015
-0.4055
-0.4035
-0.404
-0.4105
-0.4155
-0.4125
-0.41
-0.407
-0.411
-0.411
-0.4025
-0.4015
-0.403
-0.399
-0.3995
-0.3985
-0.395
-0.3925
-0.387
-0.3895
-0.3925
-0.388
-0.3845
-0.3885
-0.3915
-0.39
-0.3855
-0.386
-0.3905
-0.395
-0.3985
-0.4
-0.403
-0.404
-0.4025
-0.396
-0.39
-0.3865
-0.3795
-0.3715
-0.368
-0.3715
-0.375
-0.3735
-0.376
-0.3785
-0.3815
-0.384
-0.386
-0.395
-0.4005
-0.3995
-0.4055
-0.415
-0.4105
-0.419
-0.4355
-0.4395
-0.442
-0.4455
-0.4495
-0.4425
-0.4355
-0.44
-0.4445
-0.445
-0.4525
-0.455
-0.452
-0.4565
-0.455
-0.4525
-0.4495
-0.4465
-0.4495
-0.45
-0.4465
-0.446
-0.449
-0.4455
-0.443
-0.446
-0.4515
-0.452
-0.4485
-0.445
-0.442
-0.4465
-0.4535
-0.4515
-0.446
-0.443
-0.449
-0.4515
-0.4425
-0.4485
-0.4535
-0.451
-0.4505
-0.4475
-0.454
-0.4575
-0.4565
-0.4535
-0.453
-0.459
-0.46
-0.4595
-0.46
-0.457
-0.4575
-0.4635
-0.458
-0.4515
-0.4545
-0.453
-0.451
-0.452
-0.452
-0.4525
-0.451
-0.4465
-0.449
-0.4525
-0.45
-0.451
-0.452
-0.4505
-0.4575
-0.4655
-0.463
-0.463
-0.4655
-0.4665
-0.467
-0.464
-0.463
-0.4645
-0.46
-0.456
-0.4495
-0.4395
-0.438
-0.443
-0.4325
-0.414
-0.4045
-0.391
-0.376
-0.3515
-0.325
-0.313
-0.299
-0.2765
-0.2595
-0.2535
-0.2405
-0.2135
-0.1795
-0.159
-0.139
-0.1125
-0.091
-0.0665
-0.046
-0.033
-0.0135
0.011
0.0
-0.0145
-0.016
-0.0355
-0.067
-0.101
-0.1315
-0.157
-0.176
-0.2075
-0.244
-0.2775
-0.31
-0.3385
-0.364
-0.3795
-0.402
-0.4255
-0.449
-0.471
-0.4755
-0.479
-0.483
-0.4845
-0.4815
-0.4785
-0.481
-0.4675
-0.442
-0.4215
-0.4105
-0.405
-0.3965
-0.381
-0.374
-0.3755
-0.3705
-0.3645
-0.363
-0.3655
-0.3655
-0.3605
-0.36
-0.3675
-0.379
-0.3885
-0.394
-0.3955
-0.3925
-0.395
-0.3945
-0.401
-0.4085
-0.4045
-0.403
-0.403
-0.4075
-0.411
-0.4155
-0.4175
-0.417
-0.422
-0.4195
-0.4175
-0.416
-0.413
-0.4155
-0.414
-0.421
-0.423
-0.4195
-0.429
-0.423
-0.419
-0.4275
-0.4225
-0.421
-0.4225
-0.419
-0.422
-0.418
-0.413
-0.4125
-0.414
-0.413
-0.406
-0.4085
-0.41
-0.4065
-0.407
-0.4075
-0.408
-0.413
-0.414
-0.407
-0.406
-0.4095
-0.413
-0.41
-0.405
-0.405
-0.4015
-0.4025
-0.405
-0.403
-0.4045
-0.4045
-0.398
-0.4
-0.403
-0.399
-0.3965
-0.399
-0.397
-0.391
-0.399
-0.4
-0.3945
-0.3925
-0.3945
-0.398
-0.399
-0.394
-0.3815
-0.385
-0.383
-0.3775
-0.3735
-0.374
-0.38
-0.3775
-0.378
-0.3775
-0.382
-0.3845
-0.3785
-0.375
-0.3805
-0.381
-0.3745
-0.3745
-0.369
-0.3635
-0.37
-0.3755
-0.374
-0.3725
-0.3675
-0.3645
-0.3595
-0.3535
-0.3505
-0.347
-0.3505
-0.3505
-0.345
-0.341
-0.3395
-0.337
-0.3325
-0.336
-0.335
-0.325
-0.3225
-0.3275
-0.3295
-0.326
-0.327
-0.3295
-0.324
-0.3115
-0.3065
-0.3075
-0.3095
-0.31
-0.309
-0.3055
-0.3015
-0.3025
-0.304
-0.3025
-0.2945
-0.2945
-0.296
-0.2925
-0.293
-0.2945
-0.297
-0.2955
-0.292
-0.2885
-0.288
-0.285
-0.275
-0.275
-0.2775
-0.2715
-0.268
-0.27
-0.265
-0.263
-0.271
-0.28
-0.2805
-0.277
-0.2735
-0.272
-0.2825
-0.287
-0.2805
-0.28
-0.283
-0.278
-0.2775
-0.2815
-0.2825
-0.285
-0.2835
-0.2845
-0.281
-0.285
-0.295
-0.297
-0.2955
-0.291
-0.2905
-0.2925
-0.294
-0.2975
-0.298
-0.297
-0.2975
-0.2905
-0.295
-0.303
-0.302
-0.3035
-0.2975
-0.2955
-0.2985
-0.3045
-0.309
-0.308
-0.3135
-0.315
-0.3185
-0.3275
-0.3265
-0.329
-0.3385
-0.336
-0.3355
-0.343
-0.3495
-0.348
-0.348
-0.351
-0.348
-0.353
-0.359
-0.3585
-0.361
-0.3575
-0.354
-0.3665
-0.3685
-0.371
-0.3825
-0.3785
-0.379
-0.386
-0.388
-0.388
-0.393
-0.3945
-0.3935
-0.3985
-0.397
-0.3975
-0.4015
-0.3975
-0.3965
-0.397
-0.3975
-0.401
-0.407
-0.4085
-0.4065
-0.411
-0.4125
-0.41
-0.4125
-0.416
-0.418
-0.415
-0.4155
-0.416
-0.4155
-0.4155
-0.4145
-0.4095
-0.413
-0.4235
-0.4255
-0.4275
-0.4245
-0.4235
-0.4305
-0.435
-0.427
-0.4205
-0.4175
-0.414
-0.422
-0.4245
-0.425
-0.426
-0.4295
-0.4315
-0.4305
-0.429
-0.424
-0.4305
-0.4265
-0.4175
-0.4105
-0.411
-0.4215
-0.4215
-0.425
-0.4205
-0.413
-0.4135
-0.4155
-0.423
-0.4265
-0.421
-0.416
-0.4215
-0.42
-0.4225
-0.423
-0.4195
-0.4225
-0.4205
-0.423
-0.42
-0.4235
-0.4225
-0.42
-0.4245
-0.4255
-0.4245
-0.415
-0.415
-0.4115
-0.416
-0.426
-0.424
-0.4245
-0.4215
-0.4275
-0.431
-0.4255
-0.425
-0.4275
-0.4225
-0.423
-0.429
-0.424
-0.427
-0.429
-0.4255
-0.4275
-0.4365
-0.4345
-0.4245
-0.4225
-0.43
-0.429
-0.424
-0.4305
-0.4285
-0.429
-0.429
-0.427
-0.4275
-0.4315
-0.434
-0.43
-0.4315
-0.4285
-0.4295
-0.4415
-0.451
-0.4415
-0.431
-0.433
-0.441
-0.4395
-0.435
-0.445
-0.4385
-0.435
-0.4445
-0.445
-0.4425
-0.4375
-0.435
-0.4365
-0.439
-0.4445
-0.4495
-0.442
-0.4445
-0.4425
-0.4385
-0.4405
-0.434
-0.44
-0.437
-0.4335
-0.4325
-0.437
-0.4485
-0.4445
-0.445
-0.443
-0.4405
-0.4485
-0.449
-0.4415
-0.4335
-0.4355
-0.4445
-0.4465
-0.4435
-0.441
-0.4455
-0.446
-0.4395
-0.4365
-0.439
-0.441
-0.441
-0.4425
-0.439
-0.438
-0.441
-0.4375
-0.4315
-0.427
-0.4285
-0.436
-0.429
-0.4245
-0.431
-0.4255
-0.427
-0.4235
-0.4225
-0.4295
-0.4265
-0.4315
-0.435
-0.431
-0.431
-0.4285
-0.4235
-0.4235
-0.424
-0.434
-0.4425
-0.4395
-0.4395
-0.434
-0.432
-0.433
-0.432
-0.4305
-0.433
-0.4395
-0.4375
-0.4425
-0.444
-0.442
-0.442
-0.4335
-0.44
-0.441
-0.4355
-0.4475
-0.45
-0.4425
-0.445
-0.448
-0.441
-0.4315
-0.435
-0.4435
-0.434
-0.4385
-0.444
-0.433
-0.4375
-0.437
-0.431
-0.429
-0.434
-0.445
-0.447
-0.443
-0.4375
-0.4405
-0.445
-0.446
-0.4405
-0.4325
-0.4335
-0.438
-0.435
-0.432
-0.4375
-0.4445
-0.4475
-0.4485
-0.4455
-0.4415
-0.4405
-0.444
-0.4505
-0.453
-0.448
-0.441
-0.44
-0.438
-0.438
-0.4395
-0.443
-0.4455
-0.447
-0.454
-0.45
-0.449
-0.4525
-0.45
-0.445
-0.4415
-0.4375
-0.4305
-0.4305
-0.429
-0.43
-0.429
-0.4245
-0.4275
-0.4275
-0.4235
-0.4185
-0.4205
-0.427
-0.4225
-0.42
-0.415
-0.4145
-0.416
-0.4085
-0.407
-0.411
-0.4145
-0.413
-0.411
-0.4105
-0.4165
-0.4175
-0.412
-0.417
-0.418
-0.417
-0.4165
-0.41
-0.411
-0.4195
-0.417
-0.419
-0.4275
-0.421
-0.4195
-0.423
-0.419
-0.414
-0.413
-0.4115
-0.407
-0.399
-0.392
-0.3885
-0.3835
-0.3845
-0.391
-0.3925
-0.392
-0.401
-0.4035
-0.3945
-0.3935
-0.3965
-0.3915
-0.389
-0.3935
-0.399
-0.398
-0.396
-0.394
-0.383
-0.3775
-0.369
-0.3635
-0.3685
-0.3645
-0.363
-0.3615
-0.362
-0.372
-0.3705
-0.3675
-0.371
-0.3735
-0.382
-0.3865
-0.382
-0.384
-0.393
-0.4075
-0.4195
-0.419
-0.429
-0.4325
-0.4275
-0.432
-0.4275
-0.4265
-0.424
-0.4325
-0.4435
-0.4385
-0.435
-0.4305
-0.4265
-0.425
-0.427
-0.433
-0.4365
-0.4315
-0.4255
-0.4275
-0.43
-0.4265
-0.4295
-0.4325
-0.4285
-0.4285
-0.4275
-0.432
-0.439
-0.442
-0.44
-0.4355
-0.432
-0.431
-0.4305
-0.422
-0.422
-0.429
-0.429
-0.4265
-0.4275
-0.427
-0.4225
-0.4205
-0.423
-0.427
-0.4225
-0.423
-0.429
-0.4285
-0.4165
-0.414
-0.4235
-0.4205
-0.418
-0.421
-0.4215
-0.4175
-0.4155
-0.416
-0.4205
-0.425
-0.419
-0.4155
-0.419
-0.4165
-0.417
-0.4205
-0.417
-0.4205
-0.4255
-0.4335
-0.437
-0.4365
-0.4315
-0.4245
-0.437
-0.4385
-0.427
-0.425
-0.42
-0.413
-0.413
-0.413
-0.404
-0.3905
-0.3805
-0.37
-0.355
-0.3405
-0.32
-0.297
-0.29
-0.284
-0.265
-0.248
-0.235
-0.223
-0.2035
-0.173
-0.146
-0.1315
-0.1085
-0.0945
-0.09
-0.068
-0.057
-0.042
-0.0345
-0.0385
-0.045
-0.0575
-0.0565
-0.071
-0.1105
-0.1575
-0.185
-0.202
-0.226
-0.2585
-0.2915
-0.31
-0.335
-0.353
-0.3675
-0.388
-0.406
-0.425
-0.438
-0.4585
-0.463
-0.457
-0.458
-0.454
-0.447
-0.4505
-0.452
-0.441
-0.426
-0.406
-0.386
-0.3725
-0.366
-0.3615
-0.3545
-0.3475
-0.344
-0.3395
-0.335
-0.3355
-0.342
-0.3425
-0.3335
-0.3295
-0.3355
-0.3445
-0.3455
-0.347
-0.355
-0.3655
-0.364
-0.3625
-0.366
-0.3595
-0.3635
-0.3685
-0.3665
-0.3635
-0.3615
-0.365
-0.3585
-0.3615
-0.3665
-0.3745
-0.3785
-0.3595
-0.3615
-0.372
-0.369
-0.364
-0.3645
-0.368
-0.366
-0.3615
-0.3625
-0.3725
-0.372
-0.3655
-0.369
-0.363
-0.357
-0.361
-0.36
-0.3555
-0.3545
-0.3535
-0.355
-0.356
-0.3515
-0.3495
-0.3515
-0.348
-0.344
-0.346
-0.352
-0.355
-0.3505
-0.3495
-0.352
-0.347
-0.343
-0.3495
-0.3575
-0.3565
-0.355
-0.354
-0.3475
-0.341
-0.347
-0.347
-0.3395
-0.3445
-0.341
-0.3425
-0.3435
-0.3355
-0.338
-0.34
-0.3405
-0.347
-0.346
-0.344
-0.3465
-0.3415
-0.3375
-0.3395
-0.334
-0.332
-0.338
-0.328
-0.328
-0.331
-0.321
-0.325
-0.3365
-0.33
-0.329
-0.3395
-0.338
-0.336
-0.3405
-0.341
-0.33
-0.32
-0.323
-0.335
-0.336
-0.325
-0.325
-0.3265
-0.3235
-0.325
-0.32
-0.319
-0.325
-0.3235
-0.323
-0.327
-0.325
-0.3235
-0.32
-0.315
-0.3145
-0.3145
-0.315
-0.313
-0.3105
-0.307
-0.3025
-0.303
-0.306
-0.3085
-0.3135
-0.309
-0.302
-0.3025
-0.295
-0.2975
-0.3005
-0.297
-0.297
-0.2985
-0.3025
-0.297
-0.297
-0.2965
-0.291
-0.286
-0.2845
-0.29
-0.2855
-0.276
-0.2755
-0.267
-0.2665
-0.268
-0.265
-0.269
-0.268
-0.271
-0.27
-0.267
-0.26
-0.2575
-0.2675
-0.267
-0.2625
-0.264
-0.266
-0.263
-0.2525
-0.254
-0.26
-0.268
-0.2725
-0.265
-0.265
-0.272
-0.2695
-0.2635
-0.2675
-0.268
-0.266
-0.2615
-0.2615
-0.2655
-0.2705
-0.274
-0.269
-0.274
-0.264
-0.264
-0.276
-0.273
-0.2815
-0.275
-0.279
-0.2865
-0.289
-0.298
-0.297
-0.3075
-0.3055
-0.309
-0.309
-0.298
-0.3115
-0.32
-0.3185
-0.32
-0.3245
-0.3335
-0.331
-0.3275
-0.3335
-0.3375
-0.3425
-0.344
-0.3435
-0.347
-0.349
-0.3495
-0.3515
-0.3495
-0.3575
-0.368
-0.368
-0.3625
-0.365
-0.379
-0.383
-0.38
-0.3805
-0.3815
-0.3755
-0.3755
-0.379
-0.3755
-0.3815
-0.392
-0.3865
-0.385
-0.3905
-0.391
-0.3855
-0.3845
-0.395
-0.3945
-0.393
-0.3935
-0.397
-0.4045
-0.404
-0.403
-0.4015
-0.401
-0.404
-0.403
-0.399
-0.4
-0.3995
-0.3955
-0.4
-0.403
-0.402
-0.401
-0.394
-0.394
-0.4035
-0.4085
-0.397
-0.3895
-0.394
-0.4015
-0.4105
-0.4015
-0.3995
-0.405
-0.402
-0.4035
-0.408
-0.405
-0.4025
-0.4175
-0.4175
-0.4095
-0.4155
-0.407
-0.404
-0.4085
-0.4065
-0.413
-0.4225
-0.4165
-0.407
-0.414
-0.409
-0.4115
-0.413
-0.4095
-0.419
-0.4125
-0.4155
-0.412
-0.408
-0.4175
-0.4175
-0.413
-0.4085
-0.408
-0.4035
-0.4025
-0.401
-0.401
-0.4035
-0.401
-0.3975
-0.395
-0.401
-0.401
-0.404
-0.412
-0.409
-0.4145
-0.4145
-0.41
-0.414
-0.416
-0.4105
-0.4065
-0.4105
-0.4085
-0.41
-0.416
-0.4125
-0.409
-0.411
-0.4045
-0.403
-0.407
-0.396
-0.392
-0.4
-0.3935
-0.3895
-0.3915
-0.389
-0.3955
-0.3945
-0.3935
-0.4
-0.394
-0.395
-0.3965
-0.3955
-0.405
-0.4095
-0.401
-0.4015
-0.4035
-0.398
-0.4025
-0.405
-0.4
-0.404
-0.4125
-0.4025
-0.3965
-0.404
-0.41
-0.4095
-0.4045
-0.402
-0.402
-0.4075
-0.4055
-0.4045
-0.404
-0.4055
-0.4045
-0.397
-0.405
-0.4025
-0.3965
-0.3955
-0.389
-0.396
-0.395
-0.389
-0.3885
-0.39
-0.389
-0.383
-0.386
-0.3825
-0.379
-0.3795
-0.3785
-0.383
-0.3845
-0.388
-0.386
-0.383
-0.3775
-0.3835
-0.3985
-0.393
-0.391
-0.4
-0.3985
-0.395
-0.3975
-0.4025
-0.3975
-0.3865
-0.393
-0.3935
-0.3855
-0.391
-0.3945
-0.403
-0.3965
-0.384
-0.394
-0.4015
-0.4045
-0.4005
-0.397
-0.3975
-0.405
-0.4155
-0.417
-0.4165
-0.4155
-0.4195
-0.417
-0.4095
-0.4075
-0.4055
-0.402
-0.4015
-0.408
-0.4155
-0.4155
-0.409
-0.407
-0.4045
-0.4075
-0.412
-0.4095
-0.411
-0.4095
-0.41
-0.411
-0.411
-0.4105
-0.412
-0.411
-0.404
-0.4085
-0.4085
-0.4135
-0.423
-0.4085
-0.405
-0.4025
-0.4025
-0.407
-0.4025
-0.405
-0.4085
-0.4045
-0.3985
-0.4015
-0.399
-0.396
-0.398
-0.4005
-0.403
-0.4055
-0.4015
-0.3995
-0.4035
-0.411
-0.414
-0.4075
-0.4075
-0.41
-0.411
-0.4125
-0.413
-0.411
-0.406
-0.4035
-0.409
-0.41
-0.4075
-0.4055
-0.3995
-0.4005
-0.4015
-0.394
-0.394
-0.401
-0.4025
-0.407
-0.406
-0.405
-0.4075
-0.4075
-0.41
-0.411
-0.4105
-0.41
-0.4115
-0.415
-0.415
-0.4155
-0.419
-0.416
-0.4135
-0.413
-0.409
-0.4085
-0.4055
-0.3965
-0.3875
-0.386
-0.389
-0.384
-0.3875
-0.393
-0.3955
-0.3965
-0.3915
-0.393
-0.3915
-0.3865
-0.3835
-0.3855
-0.391
-0.394
-0.397
-0.397
-0.3995
-0.396
-0.3905
-0.3795
-0.369
-0.3695
-0.3725
-0.378
-0.3795
-0.383
-0.384
-0.3885
-0.391
-0.391
-0.396
-0.3985
-0.406
-0.41
-0.4125
-0.422
-0.4235
-0.4215
-0.425
-0.431
-0.439
-0.438
-0.4375
-0.44
-0.437
-0.439
-0.4435
-0.446
-0.446
-0.442
-0.437
-0.436
-0.44
-0.441
-0.4375
-0.4325
-0.432
-0.4365
-0.4345
-0.438
-0.4415
-0.4445
-0.452
-0.442
-0.436
-0.437
-0.435
-0.4395
-0.4435
-0.4455
-0.441
-0.4415
-0.447
-0.4445
-0.446
-0.455
-0.459
-0.453
-0.4485
-0.4525
-0.455
-0.449
-0.4455
-0.4495
-0.448
-0.4465
-0.4445
-0.45
-0.454
-0.4545
-0.465
-0.4545
-0.445
-0.4555
-0.455
-0.4485
-0.449
-0.454
-0.455
-0.452
-0.4555
-0.4625
-0.4555
-0.4465
-0.449
-0.456
-0.458
-0.458
-0.458
-0.46
-0.4655
-0.473
-0.4765
-0.4715
-0.4705
-0.474
-0.474
-0.471
-0.465
-0.468
-0.4755
-0.4765
-0.472
-0.4665
-0.4605
-0.451
-0.4395
-0.416
-0.4035
-0.396
-0.373
-0.358
-0.3515
-0.3355
-0.3185
-0.3075
-0.295
-0.278
-0.2605
-0.2405
-0.223
-0.2065
-0.181
-0.1615
-0.1455
-0.14
-0.1365
-0.1215
-0.115
-0.1175
-0.121
-0.1305
-0.1415
-0.167
-0.2015
-0.244
-0.2915
-0.3265
-0.3615
-0.3785
-0.4025
-0.4195
-0.426
-0.445
-0.454
-0.4485
-0.4515
-0.47
-0.4835
-0.4995
-0.5055
-0.509
-0.516
-0.5145
-0.5105
-0.5055
-0.5065
-0.498
-0.48
-0.4635
-0.4505
-0.4435
-0.4335
-0.4265
-0.4195
-0.411
-0.4055
-0.401
-0.4
-0.396
-0.3955
-0.3985
-0.398
-0.41
-0.419
-0.414
-0.412
-0.4155
-0.426
-0.433
-0.4335
-0.436
-0.438
-0.4365
-0.4335
-0.43
-0.429
-0.4355
-0.427
-0.428
-0.4365
-0.436
-0.439
-0.436
-0.437
-0.437
-0.433
-0.433
-0.435
-0.4375
-0.4385
-0.431
-0.428
-0.433
-0.431
-0.435
-0.4335
-0.4305
-0.4295
-0.4235
-0.4275
-0.428
-0.425
-0.4245
-0.4215
-0.4215
-0.42
-0.417
-0.421
-0.425
-0.4305
-0.43
-0.43
-0.434
-0.424
-0.4205
-0.4285
-0.4285
-0.4275
-0.4335
-0.4325
-0.4315
-0.426
-0.4245
-0.43
-0.4295
-0.434
-0.428
-0.4255
-0.43
-0.43
-0.4335
-0.434
-0.433
-0.4305
-0.427
-0.4275
-0.4175
-0.4125
-0.4165
-0.418
-0.4165
-0.416
-0.422
-0.419
-0.414
-0.411
-0.407
-0.4065
-0.402
-0.4
-0.4035
-0.4015
-0.3965
-0.3975
-0.4005
-0.3985
-0.3975
-0.398
-0.399
-0.4
-0.3975
-0.3945
-0.393
-0.3915
-0.391
-0.3925
-0.39
-0.3835
-0.3835
-0.3865
-0.3845
-0.3805
-0.3735
-0.3715
-0.371
-0.369
-0.37
-0.372
-0.3765
-0.3695
-0.361
-0.366
-0.3685
-0.374
-0.3725
-0.3635
-0.3595
-0.3605
-0.3575
-0.361
-0.362
-0.3595
-0.3595
-0.343
-0.3375
-0.3365
-0.3315
-0.3255
-0.3215
-0.323
-0.318
-0.3185
-0.3175
-0.317
-0.3105
-0.302
-0.3075
-0.314
-0.314
-0.3025
-0.296
-0.299
-0.3
-0.3005
-0.294
-0.2955
-0.293
-0.3005
-0.2905
-0.302
-0.2935
-0.2965
-0.277
-0.2885
-0.289
-0.273
-0.306
-0.252
-0.3425
-0.206
-0.38
-0.1465
-0.4585
-0.028
0.9655
-0.298
-0.348
-0.222
-0.366
-0.2325
-0.356
-0.256
-0.336
-0.2815
-0.317
-0.3015
-0.315
-0.3165
-0.3135
-0.3185
-0.312
-0.319
-0.3195
-0.3255
-0.3275
-0.328
-0.3265
-0.333
-0.341
-0.339
-0.343
-0.343
-0.3405
-0.3475
-0.3455
-0.3455
-0.351
-0.3525
-0.355
-0.362
-0.3645
-0.364
-0.371
-0.3765
-0.375
-0.381
-0.3885
-0.3875
-0.39
-0.3955
-0.394
-0.3915
-0.4015
-0.4095
-0.406
-0.4055
-0.4095
-0.411
-0.4125
-0.413
-0.415
-0.4195
-0.4195
-0.42
-0.4275
-0.43
-0.43
-0.4315
-0.424
-0.4255
-0.434
-0.437
-0.442
-0.441
-0.4385
-0.44
-0.4395
-0.4405
-0.441
-0.4405
-0.4425
-0.4425
-0.4405
-0.4375
-0.437
-0.4385
-0.439
-0.445
-0.4405
-0.4325
-0.432
-0.4375
-0.443
-0.438
-0.436
-0.439
-0.4425
-0.4365
-0.4285
-0.4265
-0.423
-0.425
-0.4265
-0.4275
-0.4265
-0.424
-0.4225
-0.4315
-0.4315
-0.4155
-0.4135
-0.416
-0.413
-0.415
-0.4215
-0.424
-0.4225
-0.423
-0.4275
-0.432
-0.431
-0.43
-0.4295
-0.429
-0.4265
-0.4265
-0.439
-0.4425
-0.4385
-0.4385
-0.4365
-0.438
-0.4385
-0.438
-0.438
-0.4405
-0.4395
-0.4355
-0.443
-0.4465
-0.44
-0.4405
-0.4425
-0.441
-0.4415
-0.4415
-0.4455
-0.447
-0.449
-0.451
-0.445
-0.444
-0.4475
-0.447
-0.445
-0.441
-0.4385
-0.4445
-0.444
-0.4455
-0.45
-0.4465
-0.4465
-0.4425
-0.4405
-0.441
-0.4415
-0.4355
-0.4275
-0.4345
-0.4375
-0.433
-0.4315
-0.436
-0.44
-0.436
-0.438
-0.439
-0.432
-0.4295
-0.4365
-0.4405
-0.4355
-0.433
-0.436
-0.44
-0.44
-0.4355
-0.4385
-0.4395
-0.441
-0.4395
-0.4325
-0.436
-0.435
-0.435
-0.4355
-0.436
-0.4355
-0.432
-0.4345
-0.436
-0.4405
-0.4385
-0.436
-0.441
-0.4435
-0.4425
-0.441
-0.44
-0.435
-0.4325
-0.43
-0.4305
-0.429
-0.417
-0.4155
-0.423
-0.4245
-0.4235
-0.424
-0.4275
-0.429
-0.429
-0.427
-0.424
-0.422
-0.417
-0.4175
-0.414
-0.416
-0.425
-0.423
-0.423
-0.4235
-0.419
-0.42
-0.429
-0.4235
-0.418
-0.421
-0.4185
-0.4215
-0.4275
-0.4255
-0.4235
-0.4255
-0.4235
-0.4285
-0.4315
-0.4315
-0.4335
-0.4355
-0.4365
-0.43
-0.4305
-0.433
-0.4275
-0.426
-0.431
-0.4345
-0.4355
-0.436
-0.4335
-0.4325
-0.4365
-0.4345
-0.431
-0.43
-0.4315
-0.4275
-0.4315
-0.434
-0.4305
-0.435
-0.43
-0.4295
-0.4295
-0.4265
-0.4285
-0.4255
-0.424
-0.4265
-0.425
-0.4255
-0.424
-0.426
-0.4275
-0.4245
-0.427
-0.4205
-0.4165
-0.419
-0.4195
-0.425
-0.4275
-0.4255
-0.4275
-0.432
-0.432
-0.4275
-0.425
-0.4285
-0.4225
-0.4165
-0.426
-0.4295
-0.4255
-0.4255
-0.422
-0.421
-0.4205
-0.4165
-0.4165
-0.414
-0.417
-0.4205
-0.4145
-0.4105
-0.4105
-0.416
-0.4185
-0.4165
-0.413
-0.4095
-0.408
-0.4115
-0.4115
-0.41
-0.414
-0.415
-0.416
-0.419
-0.4155
-0.41
-0.409
-0.41
-0.4045
-0.4085
-0.412
-0.403
-0.409
-0.4105
-0.403
-0.399
-0.395
-0.3955
-0.3945
-0.391
-0.383
-0.382
-0.3805
-0.3805
-0.3805
-0.3805
-0.3855
-0.3815
-0.384
-0.383
-0.3825
-0.3825
-0.379
-0.385
-0.388
-0.3875
-0.389
-0.3875
-0.3845
-0.3805
-0.378
-0.372
-0.363
-0.36
-0.3575
-0.356
-0.3595
-0.361
-0.3625
-0.369
-0.371
-0.3685
-0.372
-0.377
-0.3815
-0.3855
-0.3865
-0.388
-0.397
-0.408
-0.4125
-0.4155
-0.4195
-0.422
-0.419
-0.4215
-0.419
-0.411
-0.4135
-0.4175
-0.423
-0.422
-0.419
-0.4225
-0.4215
-0.4185
-0.42
-0.4215
-0.425
-0.4235
-0.422
-0.432
-0.426
-0.421
-0.42
-0.4145
-0.419
-0.4135
-0.4105
-0.4145
-0.414
-0.413
-0.4115
-0.4135
-0.416
-0.412
-0.4115
-0.4115
-0.4115
-0.411
-0.4075
-0.407
-0.41
-0.4135
-0.411
-0.4065
-0.405
-0.409
-0.4105
-0.4105
-0.411
-0.4155
-0.4235
-0.42
-0.4175
-0.416
-0.4155
-0.421
-0.419
-0.4175
-0.4205
-0.4205
-0.4135
-0.4095
-0.412
-0.4155
-0.415
-0.412
-0.4125
-0.4185
-0.4165
-0.4145
-0.4215
-0.418
-0.418
-0.426
-0.428
-0.426
-0.4265
-0.427
-0.424
-0.4195
-0.413
-0.4105
-0.4045
-0.4035
-0.3965
-0.3775
-0.364
-0.3435
-0.3235
-0.3115
-0.292
-0.275
-0.264
-0.2495
-0.231
-0.219
-0.2105
-0.1885
-0.164
-0.147
-0.1255
-0.099
-0.078
-0.061
-0.041
-0.024
-0.009
0.006
0.0075
-0.0055
-0.0165
-0.0235
-0.044
-0.079
-0.11
-0.143
-0.168
-0.186
-0.2125
-0.2415
-0.2675
-0.2905
-0.329
-0.3595
-0.385
-0.408
-0.4235
-0.4455
-0.4555
-0.456
-0.459
-0.4585
-0.4565
-0.4555
-0.453
-0.4455
-0.4305
-0.4185
-0.4025
-0.385
-0.3765
-0.3685
-0.3605
-0.351
-0.346
-0.3395
-0.3335
-0.338
-0.342
-0.3445
-0.348
-0.3515
-0.352
-0.357
-0.36
-0.3635
-0.3725
-0.3715
-0.3715
-0.376
-0.38
-0.384
-0.3835
-0.3825
-0.3825
-0.3785
-0.3775
-0.3755
-0.3725
-0.376
-0.377
-0.376
-0.375
-0.377
-0.384
-0.381
-0.3755
-0.3765
-0.3755
-0.372
-0.373
-0.3765
-0.378
-0.3805
-0.377
-0.377
-0.38
-0.3825
-0.3845
-0.3835
-0.384
-0.379
-0.3785
-0.383
-0.384
-0.3815
-0.379
-0.3775
-0.379
-0.381
-0.3775
-0.3755
-0.375
-0.3755
-0.3725
-0.3705
-0.375
-0.3765
-0.381
-0.3775
-0.3745
-0.3725
-0.365
-0.3715
-0.3735
-0.372
-0.369
-0.37
-0.372
-0.37
-0.371
-0.37
-0.3725
-0.3705
-0.3675
-0.3665
-0.365
-0.366
-0.367
-0.3685
-0.3675
-0.3665
-0.3685
-0.3715
-0.3705
-0.3685
-0.3705
-0.37
-0.3725
-0.376
-0.3765
-0.3745
-0.369
-0.3695
-0.3715
-0.3675
-0.3685
-0.3695
-0.368
-0.3655
-0.363
-0.3635
-0.3615
-0.362
-0.3635
-0.36
-0.3595
-0.361
-0.357
-0.3535
-0.352
-0.349
-0.346
-0.3435
-0.34
-0.3395
-0.3395
-0.334
-0.332
-0.3305
-0.3305
-0.331
-0.329
-0.3275
-0.3215
-0.3195
-0.32
-0.3215
-0.316
-0.308
-0.3105
-0.306
-0.305
-0.2985
-0.2935
-0.3025
-0.301
-0.2945
-0.291
-0.2905
-0.29
-0.2855
-0.2795
-0.2795
-0.281
-0.28
-0.2795
-0.274
-0.275
-0.2745
-0.2705
-0.2685
-0.2655
-0.2655
-0.267
-0.2645
-0.255
-0.255
-0.2565
-0.2545
-0.2535
-0.2485
-0.2485
-0.2485
-0.2485
-0.2475
-0.2505
-0.2515
-0.2425
-0.2435
-0.244
-0.246
-0.2485
-0.246
-0.246
-0.245
-0.249
-0.25
-0.251
-0.254
-0.2545
-0.255
-0.254
-0.2525
-0.255
-0.261
-0.2615
-0.261
-0.2685
-0.268
-0.264
-0.2695
-0.273
-0.273
-0.276
-0.282
-0.2825
-0.2825
-0.2825
-0.2825
-0.2895
-0.298
-0.302
-0.3035
-0.3065
-0.312
-0.317
-0.322
-0.328
-0.33
-0.328
-0.33
-0.334
-0.3335
-0.3375
-0.342
-0.3445
-0.351
-0.351
-0.35
-0.355
-0.3595
-0.3595
-0.355
-0.36
-0.3665
-0.3715
-0.378
-0.3795
-0.3825
-0.382
-0.383
-0.388
-0.391
-0.392
-0.392
-0.3945
-0.395
-0.3965
-0.3985
-0.3975
-0.396
-0.3945
-0.3935
-0.394
-0.3965
-0.396
-0.396
-0.3965
-0.3955
-0.3995
-0.4025
-0.395
-0.385
-0.3835
-0.386
-0.3875
-0.3895
-0.395
-0.3935
-0.393
-0.392
-0.387
-0.3945
-0.3965
-0.395
-0.4
-0.3975
-0.3945
-0.394
-0.395
-0.4025
-0.4025
-0.3995
-0.4025
-0.4025
-0.4005
-0.398
-0.4015
-0.4025
-0.3955
-0.396
-0.395
-0.394
-0.3885
-0.385
-0.387
-0.3855
-0.392
-0.396
-0.3905
-0.3855
-0.391
-0.391
-0.392
-0.3955
-0.39
-0.39
-0.391
-0.3905
-0.391
-0.3925
-0.389
-0.384
-0.3845
-0.382
-0.3825
-0.383
-0.3805
-0.3815
-0.38
-0.3815
-0.386
-0.386
-0.3875
-0.3895
-0.388
-0.3895
-0.385
-0.3785
-0.381
-0.382
-0.3795
-0.378
-0.3755
-0.3755
-0.381
-0.3825
-0.379
-0.38
-0.3815
-0.378
-0.376
-0.3825
-0.3845
-0.3795
-0.3795
-0.3835
-0.3845
-0.381
-0.3775
-0.379
-0.383
-0.3815
-0.38
-0.38
-0.384
-0.3845
-0.38
-0.3775
-0.375
-0.3745
-0.3725
-0.3745
-0.3785
-0.3775
-0.3805
-0.381
-0.381
-0.3865
-0.3865
-0.384
-0.3785
-0.374
-0.3745
-0.3705
-0.374
-0.374
-0.3765
-0.38
-0.374
-0.377
-0.3825
-0.3835
-0.3815
-0.384
-0.3895
-0.388
-0.3845
-0.384
-0.384
-0.3835
-0.3835
-0.3835
-0.3855
-0.386
-0.384
-0.384
-0.384
-0.3835
-0.385
-0.3835
-0.3795
-0.3755
-0.3735
-0.374
-0.374
-0.3745
-0.37
-0.3665
-0.3705
-0.371
-0.37
-0.3665
-0.3645
-0.3695
-0.3725
-0.37
-0.3715
-0.3715
-0.3725
-0.375
-0.375
-0.3755
-0.373
-0.3735
-0.378
-0.3795
-0.379
-0.38
-0.382
-0.383
-0.3835
-0.3855
-0.3815
-0.3775
-0.385
-0.3815
-0.377
-0.3795
-0.382
-0.3855
-0.388
-0.3895
-0.387
-0.387
-0.388
-0.386
-0.385
-0.385
-0.387
-0.384
-0.385
-0.3915
-0.3935
-0.3915
-0.387
-0.391
-0.391
-0.386
-0.3875
-0.387
-0.384
-0.3875
-0.3925
-0.3925
-0.393
-0.398
-0.3945
-0.389
-0.3895
-0.3885
-0.39
-0.3905
-0.393
-0.3955
-0.393
-0.3965
-0.396
-0.393
-0.397
-0.3985
-0.401
-0.4055
-0.3985
-0.398
-0.397
-0.389
-0.3975
-0.404
-0.406
-0.4005
-0.396
-0.4
-0.398
-0.3965
-0.398
-0.4
-0.3985
-0.401
-0.3995
-0.397
-0.4
-0.402
-0.4005
-0.3965
-0.3995
-0.397
-0.3965
-0.4
-0.4
-0.403
-0.3955
-0.397
-0.398
-0.3925
-0.3905
-0.394
-0.4035
-0.398
-0.4145
-0.3855
-0.4165
-0.3745
-0.4235
-0.3775
-0.4325
-0.7085
-0.426
-0.365
-0.418
-0.368
-0.4085
-0.3795
-0.401
-0.377
-0.384
-0.373
-0.3695
-0.375
-0.377
-0.372
-0.37
-0.374
-0.3695
-0.3695
-0.372
-0.3765
-0.3825
-0.384
-0.378
-0.376
-0.378
-0.3785
-0.379
-0.3805
-0.382
-0.381
-0.38
-0.379
-0.378
-0.371
-0.363
-0.361
-0.361
-0.356
-0.351
-0.3505
-0.3515
-0.353
-0.3535
-0.356
-0.3585
-0.3585
-0.3615
-0.3635
-0.3635
-0.368
-0.372
-0.3755
-0.38
-0.3855
-0.3965
-0.4055
-0.407
-0.4055
-0.406
-0.407
-0.4045
-0.408
-0.415
-0.418
-0.4205
-0.423
-0.4225
-0.4225
-0.423
-0.4175
-0.4145
-0.4205
-0.421
-0.417
-0.4175
-0.4185
-0.4195
-0.416
-0.419
-0.429
-0.4275
-0.421
-0.423
-0.427
-0.4245
-0.4265
-0.4275
-0.4295
-0.432
-0.428
-0.4285
-0.427
-0.431
-0.427
-0.424
-0.429
-0.426
-0.4255
-0.4285
-0.4305
-0.426
-0.4285
-0.436
-0.437
-0.4345
-0.4365
-0.435
-0.4305
-0.433
-0.4315
-0.432
-0.4335
-0.4375
-0.434
-0.428
-0.431
-0.429
-0.4265
-0.425
-0.4215
-0.419
-0.419
-0.421
-0.4225
-0.423
-0.424
-0.428
-0.4335
-0.4405
-0.445
-0.445
-0.444
-0.444
-0.4455
-0.4385
-0.432
-0.426
-0.4185
-0.415
-0.4035
-0.4005
-0.393
-0.381
-0.3695
-0.3455
-0.3295
-0.3095
-0.2895
-0.278
-0.2685
-0.253
-0.236
-0.2235
-0.203
-0.1795
-0.1535
-0.1285
-0.105
-0.079
-0.0505
-0.0245
-0.014
-0.005
0.0205
0.032
0.023
0.014
0.001
-0.015
-0.0425
-0.08
-0.1095
-0.1295
-0.1495
-0.18
-0.2155
-0.244
-0.2685
-0.3015
-0.3335
-0.3585
-0.383
-0.4075
-0.4355
-0.462
-0.469
-0.4675
-0.4705
-0.467
-0.4635
-0.461
-0.4545
-0.4375
-0.42
-0.408
-0.3975
-0.386
-0.3745
-0.367
-0.358
-0.351
-0.3455
-0.3415
-0.345
-0.349
-0.35
-0.3505
-0.357
-0.3585
-0.3595
-0.3665
-0.37
-0.3715
-0.377
-0.381
-0.381
-0.384
-0.382
-0.3865
-0.393
-0.391
-0.3945
-0.3945
-0.394
-0.3935
-0.3915
-0.396
-0.396
-0.392
-0.392
-0.3885
-0.3895
-0.3865
-0.383
-0.384
-0.3855
-0.388
-0.381
-0.3805
-0.3855
-0.3905
-0.395
-0.3955
-0.396
-0.3935
-0.3945
-0.398
-0.3995
-0.3995
-0.396
-0.394
-0.3985
-0.4
-0.3925
-0.3895
-0.394
-0.39
-0.387
-0.389
-0.3885
-0.391
-0.388
-0.385
-0.385
-0.3815
-0.3815
-0.384
-0.3815
-0.38
-0.3805
-0.3825
-0.3825
-0.3805
-0.377
-0.3775
-0.3815
-0.3855
-0.3855
-0.381
-0.383
-0.382
-0.3825
-0.3845
-0.382
-0.3825
-0.3855
-0.3875
-0.386
-0.388
-0.3855
-0.3845
-0.391
-0.392
-0.3925
-0.3915
-0.3895
-0.3885
-0.3865
-0.388
-0.389
-0.3905
-0.3865
-0.3855
-0.384
-0.3805
-0.38
-0.379
-0.3795
-0.3785
-0.374
-0.371
-0.3775
-0.377
-0.3735
-0.372
-0.3745
-0.3755
-0.37
-0.3705
-0.369
-0.3655
-0.3645
-0.3575
-0.351
-0.347
-0.3395
-0.345
-0.3495
-0.3455
-0.341
-0.3395
-0.3385
-0.337
-0.3385
-0.334
-0.3315
-0.3315
-0.3315
-0.3275
-0.3195
-0.317
-0.32
-0.324
-0.3225
-0.3155
-0.307
-0.3105
-0.316
-0.312
-0.304
-0.299
-0.301
-0.3
-0.2995
-0.3015
-0.3005
-0.3
-0.3005
-0.297
-0.293
-0.2925
-0.2895
-0.2865
-0.289
-0.286
-0.28
-0.2825
-0.282
-0.282
-0.28
-0.2795
-0.2825
-0.282
-0.281
-0.281
-0.2815
-0.2785
-0.2825
-0.2805
-0.2775
-0.2825
-0.2845
-0.284
-0.2855
-0.2895
-0.2895
-0.286
-0.2865
-0.2895
-0.2885
-0.2895
-0.2915
-0.287
-0.2895
-0.2925
-0.2915
-0.294
-0.2955
-0.3015
-0.3055
-0.306
-0.309
-0.31
-0.313
-0.32
-0.322
-0.3235
-0.325
-0.324
-0.3265
-0.329
-0.3315
-0.337
-0.337
-0.342
-0.348
-0.349
-0.352
-0.354
-0.3525
-0.3595
-0.3705
-0.3725
-0.3745
-0.377
-0.3765
-0.375
-0.375
-0.377
-0.3775
-0.377
-0.377
-0.3735
-0.37
-0.3735
-0.381
-0.382
-0.3815
-0.3855
-0.3935
-0.3965
-0.3915
-0.3935
-0.4005
-0.4045
-0.404
-0.4005
-0.4015
-0.407
-0.415
-0.4185
-0.4155
-0.4135
-0.4155
-0.4175
-0.4115
-0.411
-0.4185
-0.422
-0.422
-0.4215
-0.425
-0.4295
-0.43
-0.4275
-0.4285
-0.4305
-0.4345
-0.441
-0.4355
-0.43
-0.4335
-0.439
-0.4415
-0.4385
-0.436
-0.4325
-0.4395
-0.4435
-0.4405
-0.439
-0.436
-0.436
-0.437
-0.4405
-0.4455
-0.445
-0.443
-0.444
-0.445
-0.449
-0.4525
-0.4535
-0.4495
-0.4485
-0.455
-0.453
-0.4485
-0.4505
-0.4495
-0.4485
-0.4445
-0.4375
-0.439
-0.4435
-0.4425
-0.441
-0.4375
-0.4345
-0.436
-0.437
-0.438
-0.438
-0.4315
-0.4295
-0.428
-0.4295
-0.4315
-0.4265
-0.428
-0.4305
-0.432
-0.435
-0.4305
-0.4315
-0.431
-0.429
-0.432
-0.429
-0.432
-0.434
-0.433
-0.429
-0.4285
-0.429
-0.4285
-0.431
-0.4315
-0.4335
-0.434
-0.438
-0.435
-0.432
-0.436
-0.4325
-0.4295
-0.4245
-0.427
-0.4275
-0.4255
-0.4295
-0.4285
-0.431
-0.433
-0.431
-0.434
-0.4325
-0.4305
-0.4295
-0.426
-0.427
-0.4285
-0.425
-0.425
-0.4265
-0.4245
-0.4295
-0.435
-0.432
-0.4305
-0.436
-0.437
-0.4325
-0.43
-0.425
-0.4235
-0.423
-0.424
-0.4245
-0.425
-0.4265
-0.429
-0.432
-0.4315
-0.433
-0.428
-0.4275
-0.4285
-0.4245
-0.4255
-0.4255
-0.426
-0.426
-0.4275
-0.423
-0.4205
-0.425
-0.425
-0.4265
-0.426
-0.421
-0.4225
-0.42
-0.419
-0.4175
-0.4165
-0.421
-0.4215
-0.421
-0.4235
-0.426
-0.4265
-0.428
-0.4295
-0.4255
-0.4195
-0.419
-0.421
-0.426
-0.426
-0.4205
-0.4215
-0.4195
-0.42
-0.4265
-0.4255
-0.4255
-0.4275
-0.424
-0.427
-0.427
-0.424
-0.4225
-0.419
-0.423
-0.424
-0.4195
-0.418
-0.4175
-0.4175
-0.416
-0.412
-0.4155
-0.4195
-0.4115
-0.4095
-0.4095
-0.4075
-0.4105
-0.418
-0.4145
-0.413
-0.4175
-0.408
-0.4025
-0.4045
-0.407
-0.408
-0.409
-0.4105
-0.4105
-0.4095
-0.412
-0.4135
-0.42
-0.4255
-0.424
-0.424
-0.4225
-0.4195
-0.4195
-0.425
-0.431
-0.4305
-0.426
-0.425
-0.429
-0.4285
-0.4245
-0.4235
-0.4215
-0.4225
-0.424
-0.421
-0.4255
-0.424
-0.4225
-0.423
-0.4215
-0.4265
-0.4275
-0.4315
-0.4325
-0.4345
-0.4385
-0.4385
-0.4385
-0.4355
-0.433
-0.431
-0.4335
-0.434
-0.4355
-0.4405
-0.44
-0.437
-0.439
-0.441
-0.4415
-0.4475
-0.446
-0.4405
-0.4455
-0.448
-0.4435
-0.4415
-0.445
-0.45
-0.451
-0.4515
-0.451
-0.445
-0.444
-0.4465
-0.4475
-0.4495
-0.4495
-0.445
-0.44
-0.443
-0.4425
-0.4355
-0.434
-0.431
-0.4275
-0.429
-0.425
-0.4245
-0.4285
-0.4255
-0.4265
-0.4295
-0.4265
-0.4255
-0.4265
-0.4255
-0.4255
-0.425
-0.4275
-0.4355
-0.4385
-0.4335
-0.4325
-0.433
-0.433
-0.4315
-0.425
-0.422
-0.4255
-0.4265
-0.4245
-0.427
-0.429
-0.4235
-0.418
-0.414
-0.411
-0.409
-0.4045
-0.403
-0.4015
-0.3955
-0.395
-0.399
-0.3965
-0.392
-0.3895
-0.394
-0.4015
-0.4035
-0.4005
-0.3985
-0.3985
-0.3965
-0.394
-0.3955
-0.4
-0.3975
-0.3975
-0.4015
-0.399
-0.393
-0.388
-0.3895
-0.385
-0.383
-0.384
-0.3805
-0.381
-0.382
-0.3805
-0.377
-0.3815
-0.3825
-0.381
-0.382
-0.3815
-0.3875
-0.395
-0.406
-0.413
-0.4185
-0.4275
-0.4285
-0.4305
-0.435
-0.4325
-0.43
-0.429
-0.433
-0.441
-0.443
-0.4455
-0.447
-0.45
-0.4475
-0.4425
-0.4435
-0.4405
-0.4395
-0.4395
-0.44
-0.442
-0.4395
-0.438
-0.4365
-0.44
-0.4415
-0.4395
-0.442
-0.442
-0.4395
-0.4375
-0.4385
-0.4405
-0.4395
-0.4405
-0.441
-0.438
-0.438
-0.439
-0.4385
-0.431
-0.4305
-0.4345
-0.4345
-0.4385
-0.4375
-0.436
-0.4335
-0.432
-0.4305
-0.427
-0.4265
-0.426
-0.4305
-0.4325
-0.4335
-0.4405
-0.441
-0.4355
-0.4405
-0.4405
-0.4365
-0.436
-0.432
-0.428
-0.426
-0.4265
-0.4275
-0.428
-0.427
-0.4255
-0.4255
-0.431
-0.435
-0.4355
-0.443
-0.448
-0.446
-0.442
-0.4405
-0.4445
-0.4435
-0.44
-0.4375
-0.4355
-0.432
-0.423
-0.4065
-0.391
-0.3765
-0.358
-0.3415
-0.3185
-0.2975
-0.287
-0.275
-0.256
-0.2355
-0.226
-0.2125
-0.1845
-0.1605
-0.144
-0.1145
-0.082
-0.065
-0.0535
-0.0405
-0.0245
-0.003
0.009
-0.001
-0.0115
-0.019
-0.0345
-0.063
-0.099
-0.1275
-0.1465
-0.1645
-0.1995
-0.236
-0.265
-0.292
-0.32
-0.346
-0.3665
-0.3895
-0.4115
-0.4315
-0.4425
-0.454
-0.4585
-0.4565
-0.455
-0.453
-0.454
-0.4485
-0.437
-0.4175
-0.3985
-0.385
-0.3675
-0.355
-0.347
-0.3405
-0.333
-0.3285
-0.327
-0.329
-0.3305
-0.329
-0.3315
-0.331
-0.334
-0.3405
-0.34
-0.3455
-0.3505
-0.35
-0.349
-0.351
-0.356
-0.3555
-0.355
-0.3565
-0.3595
-0.3605
-0.3595
-0.358
-0.36
-0.362
-0.358
-0.3635
-0.372
-0.3665
-0.366
-0.3745
-0.377
-0.378
-0.3755
-0.374
-0.374
-0.369
-0.369
-0.373
-0.371
-0.37
-0.3715
-0.3705
-0.367
-0.3665
-0.365
-0.3625
-0.3625
-0.36
-0.363
-0.369
-0.367
-0.3685
-0.369
-0.3645
-0.367
-0.369
-0.3705
-0.368
-0.359
-0.356
-0.359
-0.364
-0.37
-0.3705
-0.3645
-0.3635
-0.3655
-0.366
-0.361
-0.355
-0.3545
-0.358
-0.3575
-0.3575
-0.359
-0.3535
-0.3565
-0.3555
-0.349
-0.355
-0.3625
-0.3655
-0.366
-0.3625
-0.363
-0.366
-0.3635
-0.36
-0.362
-0.3675
-0.3685
-0.3665
-0.3655
-0.3635
-0.3635
-0.361
-0.355
-0.3555
-0.362
-0.3595
-0.356
-0.355
-0.349
-0.3475
-0.3475
-0.3525
-0.352
-0.3525
-0.3615
-0.3565
-0.3495
-0.3465
-0.352
-0.354
-0.3535
-0.355
-0.347
-0.3405
-0.3325
-0.339
-0.3495
-0.3445
-0.339
-0.336
-0.3315
-0.3315
-0.3335
-0.329
-0.3245
-0.3225
-0.319
-0.319
-0.3185
-0.3145
-0.3115
-0.311
-0.3115
-0.3035
-0.2945
-0.29
-0.288
-0.2925
-0.292
-0.286
-0.2845
-0.286
-0.284
-0.2785
-0.279
-0.2795
-0.275
-0.27
-0.2685
-0.2705
-0.269
-0.266
-0.2665
-0.2625
-0.2625
-0.2645
-0.2575
-0.2495
-0.246
-0.2505
-0.2505
-0.2475
-0.248
-0.246
-0.2495
-0.252
-0.2505
-0.2525
-0.2545
-0.2545
-0.251
-0.251
-0.253
-0.253
-0.251
-0.253
-0.2475
-0.241
-0.2465
-0.2505
-0.258
-0.2615
-0.26
-0.2605
-0.2565
-0.2605
-0.2655
-0.2675
-0.2675
-0.267
-0.267
-0.257
-0.2565
-0.2615
-0.2665
-0.2715
-0.2685
-0.2725
-0.2775
-0.275
-0.2795
-0.288
-0.289
-0.2925
-0.295
-0.2945
-0.301
-0.308
-0.302
-0.3
-0.3045
-0.3025
-0.3055
-0.312
-0.3195
-0.32
-0.3205
-0.3225
-0.3215
-0.331
-0.3325
-0.33
-0.3365
-0.34
-0.341
-0.3405
-0.3465
-0.3515
-0.35
-0.347
-0.347
-0.346
-0.347
-0.3575
-0.3625
-0.369
-0.3725
-0.368
-0.363
-0.36
-0.366
-0.3725
-0.3775
-0.378
-0.379
-0.3815
-0.3785
-0.3775
-0.3745
-0.3725
-0.3725
-0.37
-0.3695
-0.3725
-0.375
-0.369
-0.37
-0.377
-0.3745
-0.372
-0.368
-0.37
-0.3725
-0.374
-0.3705
-0.3705
-0.3765
-0.372
-0.3755
-0.3775
-0.374
-0.3755
-0.3785
-0.382
-0.38
-0.376
-0.3745
-0.3785
-0.3785
-0.3755
-0.374
-0.376
-0.3785
-0.3815
-0.379
-0.3745
-0.376
-0.379
-0.3855
-0.381
-0.373
-0.3705
-0.3755
-0.379
-0.38
-0.3855
-0.3785
-0.374
-0.378
-0.385
-0.381
-0.3735
-0.372
-0.367
-0.373
-0.3735
-0.3755
-0.3835
-0.383
-0.3865
-0.389
-0.3865
-0.387
-0.389
-0.39
-0.39
-0.3915
-0.391
-0.3885
-0.391
-0.3955
-0.396
-0.3955
-0.395
-0.4
-0.3985
-0.3985
-0.4
-0.394
-0.397
-0.393
-0.388
-0.388
-0.3805
-0.385
-0.392
-0.3925
-0.3955
-0.392
-0.393
-0.3915
-0.3855
-0.3835
-0.3925
-0.3935
-0.3855
-0.386
-0.3835
-0.388
-0.3905
-0.3905
-0.388
-0.385
-0.386
-0.3835
-0.387
-0.389
-0.388
-0.3875
-0.385
-0.387
-0.389
-0.392
-0.389
-0.385
-0.3915
-0.392
-0.3885
-0.384
-0.384
-0.388
-0.3875
-0.3855
-0.383
-0.3855
-0.3825
-0.378
-0.3815
-0.384
-0.3855
-0.382
-0.3825
-0.384
-0.381
-0.3825
-0.3815
-0.375
-0.3755
-0.3775
-0.3715
-0.3775
-0.3815
-0.377
-0.3815
-0.385
-0.382
-0.3815
-0.3845
-0.39
-0.3915
-0.383
-0.386
-0.3845
-0.3835
-0.391
-0.3805
-0.382
-0.385
-0.381
-0.3815
-0.377
-0.378
-0.3785
-0.3845
-0.389
-0.39
-0.392
-0.3905
-0.391
-0.3875
-0.3815
-0.385
-0.3905
-0.388
-0.3855
-0.3835
-0.3865
-0.395
-0.386
-0.3765
-0.38
-0.379
-0.379
-0.381
-0.38
-0.38
-0.379
-0.381
-0.3795
-0.381
-0.3875
-0.3875
-0.387
-0.378
-0.377
-0.386
-0.383
-0.384
-0.383
-0.3785
-0.3835
-0.387
-0.386
-0.388
-0.3905
-0.3915
-0.3955
-0.397
-0.389
-0.3895
-0.3925
-0.3885
-0.387
-0.387
-0.3885
-0.389
-0.3905
-0.384
-0.3795
-0.3805
-0.384
-0.388
-0.3875
-0.3895
-0.3925
-0.391
-0.3905
-0.394
-0.386
-0.3845
-0.3875
-0.3815
-0.3805
-0.3795
-0.378
-0.382
-0.3765
-0.3725
-0.378
-0.373
-0.37
-0.3745
-0.381
-0.3825
-0.376
-0.3735
-0.376
-0.3695
-0.364
-0.3675
-0.3695
-0.365
-0.3635
-0.3615
-0.3605
-0.369
-0.3645
-0.367
-0.371
-0.367
-0.3655
-0.365
-0.368
-0.362
-0.361
-0.368
-0.3705
-0.3685
-0.3645
-0.36
-0.368
-0.371
-0.3605
-0.367
-0.3735
-0.364
-0.371
-0.374
-0.367
-0.368
-0.373
-0.379
-0.3755
-0.372
-0.372
-0.3725
-0.372
-0.3725
-0.377
-0.3725
-0.3715
-0.3695
-0.364
-0.362
-0.364
-0.367
-0.366
-0.364
-0.3615
-0.3695
-0.3725
-0.369
-0.359
-0.3535
-0.3645
-0.369
-0.3695
-0.3675
-0.366
-0.3715
-0.377
-0.375
-0.3755
-0.384
-0.3815
-0.3745
-0.374
-0.376
-0.3735
-0.374
-0.3755
-0.3725
-0.3735
-0.3745
-0.3675
-0.3645
-0.359
-0.3535
-0.356
-0.3555
-0.3565
-0.3595
-0.3555
-0.344
-0.3485
-0.353
-0.348
-0.3525
-0.356
-0.358
-0.3525
-0.3485
-0.35
-0.3505
-0.3565
-0.3625
-0.361
-0.353
-0.347
-0.347
-0.342
-0.333
-0.329
-0.3305
-0.3315
-0.3355
-0.3375
-0.342
-0.338
-0.3365
-0.351
-0.348
-0.35
-0.358
-0.3555
-0.359
-0.3675
-0.377
-0.3765
-0.3785
-0.386
-0.3865
-0.392
-0.39
-0.3785
-0.3715
-0.375
-0.389
-0.388
-0.3835
-0.3805
-0.3765
-0.3895
-0.399
-0.3955
-0.392
-0.3925
-0.3905
-0.3835
-0.383
-0.387
-0.39
-0.3925
-0.395
-0.3955
-0.3915
-0.3885
-0.389
-0.39
-0.394
-0.399
-0.392
-0.389
-0.3925
-0.3885
-0.3905
-0.394
-0.3885
-0.388
-0.3935
-0.397
-0.4
-0.3975
-0.395
-0.397
-0.3965
-0.3965
-0.393
-0.394
-0.3965
-0.393
-0.3955
-0.397
-0.397
-0.398
-0.398
-0.3995
-0.401
-0.403
-0.404
-0.406
-0.408
-0.4065
-0.4055
-0.409
-0.4085
-0.4015
-0.4045
-0.4075
-0.41
-0.412
-0.408
-0.4205
-0.4375
-0.437
-0.4275
-0.4165
-0.4185
-0.4155
-0.406
-0.4065
-0.403
-0.4015
-0.3975
-0.3905
-0.3835
-0.367
-0.354
-0.334
-0.316
-0.306
-0.276
-0.263
-0.258
-0.2425
-0.223
-0.208
-0.197
-0.17
-0.148
-0.123
-0.1
-0.0785
-0.053
-0.0265
-0.0055
-0.005
0.0065
0.0235
0.026
0.015
-0.0005
-0.004
-0.0255
-0.0565
-0.0935
-0.126
-0.146
-0.1735
-0.2015
-0.2365
-0.269
-0.29
-0.312
-0.336
-0.3525
-0.363
-0.3845
-0.4055
-0.4225
-0.4315
-0.429
-0.4335
-0.434
-0.4345
-0.443
-0.441
-0.435
-0.419
-0.3965
-0.3805
-0.3635
-0.3505
-0.342
-0.3425
-0.3415
-0.324
-0.316
-0.324
-0.3235
-0.321
-0.326
-0.332
-0.3355
-0.332
-0.337
-0.349
-0.349
-0.3475
-0.352
-0.3545
-0.352
-0.3475
-0.3575
-0.367
-0.369
-0.3645
-0.359
-0.3645
-0.3715
-0.3755
-0.367
-0.365
-0.37
-0.378
-0.382
-0.376
-0.374
-0.371
-0.3755
-0.3745
-0.3765
-0.3765
-0.373
-0.3705
-0.375
-0.383
-0.3795
-0.3805
-0.378
-0.375
-0.377
-0.378
-0.377
-0.376
-0.378
-0.379
-0.375
-0.375
-0.3795
-0.3735
-0.377
-0.3765
-0.3705
-0.375
-0.3735
-0.3715
-0.37
-0.368
-0.37
-0.372
-0.372
-0.364
-0.3615
-0.359
-0.3555
-0.3525
-0.351
-0.3545
-0.355
-0.354
-0.3515
-0.353
-0.3505
-0.346
-0.348
-0.3495
-0.3435
-0.34
-0.3385
-0.328
-0.3275
-0.331
-0.3265
-0.3275
-0.332
-0.3275
-0.3265
-0.328
-0.3225
-0.3215
-0.319
-0.3165
-0.3155
-0.3195
-0.322
-0.316
-0.317
-0.3115
-0.308
-0.3095
-0.3085
-0.3135
-0.3065
-0.3075
-0.3135
-0.3025
-0.3045
-0.304
-0.299
-0.301
-0.304
-0.307
-0.3055
-0.3075
-0.2995
-0.292
-0.297
-0.2965
-0.291
-0.284
-0.2825
-0.2885
-0.292
-0.2895
-0.2835
-0.2815
-0.2735
-0.266
-0.263
-0.259
-0.2665
-0.2705
-0.264
-0.2645
-0.261
-0.2555
-0.2555
-0.2475
-0.2525
-0.252
-0.2485
-0.2525
-0.2405
-0.2355
-0.233
-0.23
-0.238
-0.2415
-0.24
-0.2375
-0.2285
-0.228
-0.2325
-0.225
-0.2135
-0.2105
-0.22
-0.2195
-0.2135
-0.2115
-0.2145
-0.2205
-0.2235
-0.2145
-0.21
-0.215
-0.2085
-0.2165
-0.227
-0.2175
-0.213
-0.217
-0.2245
-0.2265
-0.2145
-0.216
-0.2185
-0.2225
-0.2265
-0.2235
-0.2295
-0.226
-0.2275
-0.232
-0.2355
-0.234
-0.232
-0.234
-0.2365
-0.24
-0.2405
-0.2435
-0.242
-0.238
-0.233
-0.2335
-0.238
-0.241
-0.248
-0.2585
-0.2585
-0.26
-0.265
-0.2625
-0.267
-0.268
-0.2745
-0.2765
-0.2755
-0.277
-0.2785
-0.284
-0.28
-0.2815
-0.2965
-0.2975
-0.292
-0.299
-0.3075
-0.3055
-0.3015
-0.3155
-0.323
-0.318
-0.325
-0.3275
-0.328
-0.3235
-0.3205
-0.3255
-0.3225
-0.327
-0.322
-0.306
-0.3125
-0.3235
-0.3325
-0.3375
-0.3335
-0.3375
-0.335
-0.3285
-0.334
-0.3405
-0.34
-0.3365
-0.3405
-0.3425
-0.339
-0.343
-0.3445
-0.349
-0.355
-0.3515
-0.3455
-0.3445
-0.3385
-0.3375
-0.3445
-0.337
-0.3335
-0.3365
-0.343
-0.343
-0.343
-0.352
-0.344
-0.337
-0.343
-0.3465
-0.347
-0.34
-0.339
-0.3425
-0.336
-0.3425
-0.3495
-0.3455
-0.3415
-0.3415
-0.348
-0.345
-0.3405
-0.3385
-0.3425
-0.342
-0.3345
-0.33
-0.3245
-0.339
-0.3475
-0.3345
-0.332
-0.3405
-0.343
-0.3475
-0.3465
-0.3315
-0.337
-0.338
-0.328
-0.3305
-0.3345
-0.3365
-0.3335
-0.33
-0.332
-0.331
-0.3295
-0.331
-0.3355
-0.332
-0.3235
-0.322
-0.3225
-0.3215
-0.321
-0.3225
-0.329
-0.3295
-0.3245
-0.3235
-0.321
-0.3225
-0.3175
-0.313
-0.3095
-0.307
-0.3125
-0.306
-0.309
-0.3135
-0.313
-0.3165
-0.313
-0.315
-0.3175
-0.3165
-0.3155
-0.3125
-0.316
-0.32
-0.315
-0.3145
-0.317
-0.316
-0.309
-0.31
-0.3135
-0.3065
-0.3015
-0.3015
-0.31
-0.3115
-0.306
-0.313
-0.3145
-0.3095
-0.311
-0.317
-0.3195
-0.313
-0.313
-0.313
-0.3155
-0.3105
-0.2975
-0.307
-0.313
-0.312
-0.307
-0.307
-0.306
-0.3045
-0.3105
-0.3135
-0.3165
-0.307
-0.304
-0.304
-0.3005
-0.3025
-0.309
-0.31
-0.3035
-0.3035
-0.306
-0.3125
-0.3105
-0.3065
-0.312
-0.31
-0.3115
-0.3155
-0.316
-0.321
-0.319
-0.314
-0.3135
-0.322
-0.324
-0.319
-0.3115
-0.313
-0.3185
-0.3105
-0.31
-0.3125
-0.313
-0.3055
-0.3045
-0.3245
-0.328
-0.3225
-0.322
-0.322
-0.3225
-0.32
-0.3215
-0.32
-0.322
-0.3285
-0.3225
-0.32
-0.325
-0.321
-0.317
-0.32
-0.321
-0.3225
-0.321
-0.3205
-0.324
-0.3175
-0.32
-0.326
-0.3165
-0.3135
-0.3175
-0.329
-0.328
-0.322
-0.323
-0.32
-0.329
-0.326
-0.323
-0.323
-0.306
-0.3075
-0.3075
-0.306
-0.3185
-0.317
-0.3205
-0.3185
-0.318
-0.3255
-0.326
-0.3245
-0.3165
-0.314
-0.3235
-0.3225
-0.315
-0.319
-0.315
-0.3135
-0.3205
-0.3205
-0.3165
-0.315
-0.3215
-0.325
-0.3195
-0.32
-0.3145
-0.309
-0.3185
-0.32
-0.322
-0.3265
-0.3295
-0.33
-0.3315
-0.339
-0.3395
-0.332
-0.3275
-0.333
-0.334
-0.326
-0.326
-0.3285
-0.3295
-0.333
-0.3335
-0.335
-0.3305
-0.3195
-0.3185
-0.327
-0.331
-0.3325
-0.3375
-0.3385
-0.3345
-0.333
-0.326
-0.3245
-0.3325
-0.3315
-0.3305
-0.334
-0.331
-0.334
-0.3305
-0.3165
-0.322
-0.3345
-0.3375
-0.335
-0.3365
-0.3335
-0.3325
-0.334
-0.3345
-0.3305
-0.3225
-0.3235
-0.326
-0.326
-0.336
-0.3395
-0.3375
-0.3335
-0.3315
-0.3335
-0.3285
-0.334
-0.3295
-0.328
-0.331
-0.329
-0.3355
-0.338
-0.3375
-0.3235
-0.3235
-0.3315
-0.326
-0.3265
-0.3325
-0.3335
-0.3285
-0.3205
-0.321
-0.3255
-0.313
-0.314
-0.3165
-0.3115
-0.311
-0.3045
-0.309
-0.312
-0.3135
-0.313
-0.315
-0.3215
-0.3175
-0.3235
-0.322
-0.312
-0.309
-0.315
-0.3245
-0.318
-0.314
-0.314
-0.3065
-0.3005
-0.2945
-0.2905
-0.2855
-0.284
-0.291
-0.2925
-0.2925
-0.2935
-0.2985
-0.307
-0.305
-0.308
-0.31
-0.3095
-0.318
-0.317
-0.316
-0.3265
-0.3375
-0.3495
-0.346
-0.341
-0.343
-0.336
-0.337
-0.3285
-0.3365
-0.3485
-0.346
-0.352
-0.354
-0.3575
-0.3525
-0.3555
-0.3625
-0.358
-0.354
-0.348
-0.3525
-0.353
-0.348
-0.3515
-0.352
-0.348
-0.3425
-0.3405
-0.347
-0.353
-0.353
-0.3515
-0.3475
-0.3455
-0.349
-0.3505
-0.3475
-0.3495
-0.3475
-0.3405
-0.343
-0.347
-0.349
-0.35
-0.3525
-0.3485
-0.35
-0.3615
-0.3535
-0.3475
-0.3555
-0.351
-0.3505
-0.359
-0.358
-0.3505
-0.3515
-0.3555
-0.352
-0.3495
-0.3495
-0.3515
-0.3555
-0.3575
-0.3555
-0.361
-0.3585
-0.352
-0.3545
-0.354
-0.359
-0.359
-0.3545
-0.3545
-0.361
-0.3595
-0.3535
-0.359
-0.3515
-0.3465
-0.3545
-0.3545
-0.3525
-0.3505
-0.3465
-0.3435
-0.335
-0.316
-0.3005
-0.289
-0.2685
-0.252
-0.226
-0.205
-0.197
-0.1875
-0.1865
-0.1755
-0.158
-0.143
-0.12
-0.0875
-0.064
-0.0495
-0.038
-0.0315
-0.0145
-0.01
-0.0005
0.0155
0.026
0.021
-0.003
-0.0045
-0.022
-0.0535
-0.083
-0.1255
-0.143
-0.16
-0.1895
-0.2155
-0.246
-0.268
-0.291
-0.303
-0.3175
-0.3425
-0.3545
-0.3675
-0.3775
-0.3835
-0.3875
-0.3845
-0.379
-0.3825
-0.381
-0.3745
-0.372
-0.3555
-0.3395
-0.328
-0.3135
-0.3025
-0.295
-0.2835
-0.2785
-0.283
-0.2725
-0.269
-0.2755
-0.274
-0.274
-0.2725
-0.274
-0.2805
-0.29
-0.299
-0.298
-0.297
-0.298
-0.3
-0.3025
-0.2985
-0.2965
-0.298
-0.301
-0.3075
-0.311
-0.3065
-0.304
-0.3005
-0.2985
-0.299
-0.3005
-0.3035
-0.3005
-0.3005
-0.2965
-0.2955
-0.2965
-0.296
-0.301
-0.2975
-0.2975
-0.298
-0.296
-0.2975
-0.3005
-0.298
-0.2965
-0.2955
-0.2965
-0.302
-0.3
-0.3065
-0.3145
-0.31
-0.307
-0.3055
-0.3055
-0.308
-0.31
-0.311
-0.306
-0.3105
-0.3135
-0.3065
-0.3105
-0.3135
-0.309
-0.3085
-0.3105
-0.3095
-0.308
-0.3045
-0.3085
-0.31
-0.308
-0.308
-0.3035
-0.3075
-0.301
-0.311
-0.307
-0.316
-0.302
-0.3045
-0.293
-0.3055
-0.302
-0.288
-0.3175
-0.258
-0.3535
-0.2205
-0.3925
-0.164
-0.469
-0.031
0.964
-0.295
-0.3465
-0.2215
-0.3625
-0.2225
-0.3435
-0.2455
-0.3195
-0.2615
-0.296
-0.2775
-0.293
-0.2885
-0.283
-0.2945
-0.2805
-0.278
-0.275
-0.28
-0.2815
-0.275
-0.27
-0.2705
-0.272
-0.278
-0.2765
-0.272
-0.2645
-0.2565
-0.254
-0.2495
-0.2535
-0.2585
-0.255
-0.254
-0.2505
-0.2465
-0.237
-0.232
-0.243
-0.239
-0.2335
-0.2415
-0.2415
-0.237
-0.236
-0.2315
-0.226
-0.2295
-0.2265
-0.2165
-0.214
-0.2095
-0.2065
-0.2065
-0.203
-0.2025
-0.201
-0.2015
-0.201
-0.196
-0.192
-0.1925
-0.1925
-0.192
-0.1925
-0.189
-0.188
-0.192
-0.193
-0.1855
-0.1805
-0.179
-0.181
-0.185
-0.183
-0.1785
-0.1755
-0.1815
-0.1815
-0.1775
-0.185
-0.1855
-0.181
-0.183
-0.189
-0.183
-0.1825
-0.186
-0.173
-0.1795
-0.1875
-0.186
-0.1885
-0.19
-0.186
-0.1845
-0.192
-0.186
-0.187
-0.1945
-0.191
-0.1975
-0.2015
-0.2015
-0.2085
-0.2115
-0.2135
-0.214
-0.214
-0.217
-0.2235
-0.23
-0.2335
-0.2345
-0.236
-0.2405
-0.241
-0.244
-0.254
-0.2585
-0.2615
-0.2665
-0.27
-0.268
-0.261
-0.2595
-0.2635
-0.2705
-0.279
-0.2815
-0.2835
-0.2845
-0.2865
-0.295
-0.2975
-0.2965
-0.298
-0.3025
-0.3065
-0.3115
-0.313
-0.308
-0.3065
-0.3035
-0.3035
-0.3035
-0.3115
-0.316
-0.3115
-0.3155
-0.3185
-0.3165
-0.3175
-0.3145
-0.317
-0.321
-0.316
-0.321
-0.3275
-0.3235
-0.324
-0.325
-0.318
-0.3205
-0.328
-0.33
-0.3315
-0.3265
-0.3295
-0.333
-0.3315
-0.341
-0.3365
-0.3325
-0.3375
-0.335
-0.332
-0.3275
-0.3285
-0.3325
-0.3325
-0.3305
-0.3315
-0.336
-0.3355
-0.3325
-0.3355
-0.335
-0.332
-0.3315
-0.3325
-0.334
-0.3335
-0.336
-0.339
-0.337
-0.341
-0.341
-0.3325
-0.338
-0.3375
-0.332
-0.34
-0.3395
-0.338
-0.338
-0.336
-0.3345
-0.332
-0.33
-0.327
-0.3285
-0.3315
-0.3335
-0.3325
-0.3285
-0.3295
-0.3295
-0.332
-0.335
-0.3345
-0.3365
-0.336
-0.3305
-0.3265
-0.329
-0.331
-0.3275
-0.3245
-0.323
-0.335
-0.3385
-0.329
-0.3315
-0.326
-0.3205
-0.3235
-0.3225
-0.323
-0.326
-0.325
-0.3225
-0.318
-0.3155
-0.316
-0.3095
-0.3105
-0.311
-0.308
-0.3145
-0.318
-0.31
-0.312
-0.309
-0.311
-0.315
-0.3045
-0.3075
-0.3055
-0.31
-0.31
-0.3055
-0.309
-0.3055
-0.3055
-0.3045
-0.308
-0.307
-0.305
-0.31
-0.3155
-0.32
-0.318
-0.3175
-0.3185
-0.3225
-0.3215
-0.32
-0.3195
-0.3185
-0.3235
-0.3195
-0.3155
-0.3135
-0.315
-0.316
-0.308
-0.3095
-0.3125
-0.316
-0.3145
-0.3125
-0.3155
-0.316
-0.3165
-0.318
-0.32
-0.317
-0.3175
-0.3185
-0.32
-0.323
-0.3235
-0.3255
-0.324
-0.3235
-0.32
-0.3185
-0.325
-0.322
-0.3235
-0.3275
-0.325
-0.3215
-0.3235
-0.33
-0.3355
-0.3405
-0.3355
-0.333
-0.335
-0.331
-0.328
-0.324
-0.3215
-0.3185
-0.321
-0.319
-0.319
-0.3275
-0.3315
-0.3335
-0.3255
-0.322
-0.324
-0.32
-0.3155
-0.314
-0.314
-0.313
-0.3195
-0.33
-0.3295
-0.328
-0.3305
-0.3225
-0.3225
-0.329
-0.3285
-0.3265
-0.319
-0.3165
-0.3175
-0.3255
-0.3285
-0.323
-0.332
-0.3395
-0.3355
-0.332
-0.331
-0.332
-0.333
-0.331
-0.3305
-0.3315
-0.334
-0.3395
-0.347
-0.3435
-0.336
-0.34
-0.344
-0.3425
-0.346
-0.348
-0.3395
-0.338
-0.3405
-0.3405
-0.3485
-0.352
-0.353
-0.3565
-0.3575
-0.351
-0.3435
-0.3455
-0.345
-0.3415
-0.3385
-0.3465
-0.3485
-0.34
-0.3445
-0.346
-0.3475
-0.3505
-0.342
-0.337
-0.342
-0.3405
-0.3355
-0.3405
-0.344
-0.3475
-0.3515
-0.346
-0.341
-0.347
-0.342
-0.3375
-0.3415
-0.339
-0.3395
-0.338
-0.3325
-0.335
-0.3365
-0.335
-0.3395
-0.338
-0.3355
-0.342
-0.3425
-0.339
-0.3365
-0.3365
-0.3395
-0.335
-0.3305
-0.3315
-0.3325
-0.3285
-0.3265
-0.322
-0.315
-0.317
-0.3155
-0.3105
-0.3145
-0.3115
-0.3165
-0.3225
-0.3145
-0.313
-0.313
-0.317
-0.3155
-0.3115
-0.3195
-0.321
-0.315
-0.3145
-0.3185
-0.318
-0.3125
-0.3135
-0.3165
-0.319
-0.3175
-0.3135
-0.314
-0.3155
-0.3155
-0.3105
-0.307
-0.303
-0.3035
-0.3035
-0.297
-0.288
-0.281
-0.2875
-0.286
-0.287
-0.293
-0.293
-0.295
-0.295
-0.292
-0.2875
-0.2875
-0.292
-0.3015
-0.302
-0.303
-0.303
-0.294
-0.2925
-0.2875
-0.283
-0.273
-0.268
-0.2755
-0.275
-0.2765
-0.2745
-0.274
-0.28
-0.2825
-0.2845
-0.2845
-0.2875
-0.289
-0.286
-0.2905
-0.2935
-0.2975
-0.305
-0.3125
-0.3155
-0.3175
-0.319
-0.319
-0.3205
-0.3175
-0.319
-0.3195
-0.324
-0.3315
-0.332
-0.329
-0.3285
-0.33
-0.3305
-0.3355
-0.3375
-0.337
-0.338
-0.338
-0.3435
-0.3435
-0.3375
-0.3395
-0.339
-0.338
-0.34
-0.338
-0.3325
-0.338
-0.3445
-0.337
-0.3375
-0.337
-0.334
-0.337
-0.3365
-0.337
-0.3395
-0.3375
-0.3335
-0.3275
-0.33
-0.338
-0.3345
-0.334
-0.332
-0.3285
-0.33
-0.333
-0.3345
-0.3365
-0.3355
-0.3255
-0.3245
-0.329
-0.331
-0.3295
-0.327
-0.3315
-0.3265
-0.3195
-0.3235
-0.3275
-0.321
-0.32
-0.321
-0.3155
-0.319
-0.3195
-0.32
-0.322
-0.3225
-0.3285
-0.333
-0.3325
-0.3335
-0.3355
-0.3305
-0.3235
-0.321
-0.313
-0.31
-0.3145
-0.3075
-0.2965
-0.2855
-0.2805
-0.269
-0.2455
-0.23
-0.212
-0.1945
-0.1825
-0.1715
-0.159
-0.1425
-0.127
-0.116
-0.09
-0.0525
-0.0335
-0.0095
0.017
0.0385
0.0595
0.072
0.084
0.099
0.1045
0.102
0.101
0.088
0.071
0.0445
0.008
-0.019
-0.0375
-0.057
-0.0875
-0.1215
-0.146
-0.1645
-0.1975
-0.228
-0.249
-0.272
-0.289
-0.3105
-0.334
-0.341
-0.34
-0.3415
-0.343
-0.341
-0.338
-0.337
-0.331
-0.3145
-0.292
-0.28
-0.266
-0.252
-0.2505
-0.2495
-0.2435
-0.236
-0.2365
-0.246
-0.2465
-0.2385
-0.2455
-0.2515
-0.2565
-0.264
-0.2635
-0.269
-0.278
-0.277
-0.2685
-0.2685
-0.281
-0.2865
-0.2855
-0.289
-0.2875
-0.282
-0.279
-0.2815
-0.282
-0.279
-0.282
-0.2765
-0.2765
-0.279
-0.2745
-0.2735
-0.272
-0.2715
-0.268
-0.2675
-0.268
-0.2665
-0.2725
-0.2735
-0.273
-0.276
-0.2775
-0.278
-0.276
-0.2725
-0.2725
-0.277
-0.2835
-0.2815
-0.277
-0.277
-0.279
-0.2825
-0.279
-0.274
-0.2675
-0.2715
-0.2735
-0.2755
-0.274
-0.2665
-0.266
-0.271
-0.27
-0.27
-0.2755
-0.267
-0.2715
-0.2565
-0.28
-0.248
-0.291
-0.2395
-0.2895
-0.232
0.052
-0.233
-0.2925
-0.238
-0.285
-0.242
-0.2755
-0.2505
-0.261
-0.249
-0.262
-0.259
-0.249
-0.2485
-0.251
-0.259
-0.2605
-0.258
-0.257
-0.257
-0.2555
-0.25
-0.2495
-0.2525
-0.2495
-0.2515
-0.2535
-0.2495
-0.2485
-0.249
-0.246
-0.243
-0.239
-0.2375
-0.238
-0.2395
-0.2395
-0.236
-0.236
-0.236
-0.235
-0.2335
-0.233
-0.235
-0.2325
-0.2305
-0.236
-0.2315
-0.2245
-0.2245
-0.2235
-0.217
-0.2125
-0.2095
-0.2075
-0.204
-0.198
-0.1995
-0.1945
-0.194
-0.2
-0.1965
-0.1935
-0.1955
-0.1945
-0.1845
-0.1795
-0.187
-0.1835
-0.176
-0.168
-0.16
-0.165
-0.166
-0.1625
-0.1605
-0.1615
-0.162
-0.1585
-0.1635
-0.166
-0.159
-0.151
-0.1495
-0.1535
-0.148
-0.1425
-0.1435
-0.1445
-0.1495
-0.1475
-0.14
-0.1365
-0.1355
-0.1345
-0.1325
-0.1405
-0.143
-0.138
-0.1375
-0.134
-0.136
-0.1395
-0.1395
-0.1415
-0.1385
-0.1375
-0.1395
-0.137
-0.1385
-0.14
-0.1355
-0.1395
-0.143
-0.137
-0.1395
-0.14
-0.136
-0.14
-0.143
-0.137
-0.1325
-0.1385
-0.14
-0.1345
-0.1425
-0.146
-0.15
-0.1545
-0.1545
-0.161
-0.1625
-0.1645
-0.1695
-0.178
-0.1785
-0.174
-0.18
-0.188
-0.188
-0.1835
-0.1835
-0.1855
-0.191
-0.1965
-0.1975
-0.2
-0.204
-0.209
-0.211
-0.2115
-0.216
-0.2205
-0.2215
-0.222
-0.2225
-0.2245
-0.228
-0.231
-0.2335
-0.2345
-0.236
-0.2385
-0.2365
-0.2395
-0.243
-0.24
-0.243
-0.247
-0.247
-0.2505
-0.2505
-0.243
-0.2385
-0.244
-0.2505
-0.2475
-0.244
-0.2455
-0.2395
-0.2415
-0.2445
-0.244
-0.2485
-0.246
-0.2485
-0.252
-0.2495
-0.248
-0.2475
-0.248
-0.251
-0.253
-0.2485
-0.248
-0.2495
-0.2525
-0.257
-0.252
-0.2555
-0.26
-0.258
-0.2575
-0.258
-0.254
-0.2495
-0.2555
-0.2595
-0.26
-0.259
-0.2535
-0.2535
-0.2555
-0.253
-0.256
-0.2575
-0.252
-0.253
-0.2575
-0.256
-0.2555
-0.256
-0.2575
-0.2585
-0.2525
-0.249
-0.247
-0.2475
-0.249
-0.2445
-0.245
-0.2445
-0.241
-0.246
-0.249
-0.2515
-0.256
-0.2555
-0.2565
-0.258
-0.257
-0.26
-0.261
-0.2645
-0.2635
-0.264
-0.268
-0.269
-0.2705
-0.2645
-0.26
-0.262
-0.264
-0.269
-0.275
-0.2725
-0.264
-0.264
-0.266
-0.2635
-0.2695
-0.2665
-0.2585
-0.256
-0.252
-0.2575
-0.2635
-0.259
-0.256
-0.26
-0.263
-0.2655
-0.265
-0.2615
-0.257
-0.2545
-0.2535
-0.2545
-0.258
-0.2575
-0.2545
-0.254
-0.259
-0.2645
-0.2645
-0.2595
-0.2585
-0.257
-0.256
-0.257
-0.26
-0.266
-0.262
-0.2555
-0.2535
-0.2515
-0.2515
-0.2565
-0.2575
-0.2565
-0.254
-0.2485
-0.2465
-0.25
-0.2505
-0.25
-0.251
-0.2435
-0.247
-0.2535
-0.258
-0.267
-0.265
-0.2615
-0.2615
-0.2685
-0.2755
-0.2695
-0.2625
-0.2605
-0.2665
-0.2695
-0.2675
-0.2675
-0.264
-0.261
-0.2585
-0.26
-0.266
-0.2665
-0.262
-0.257
-0.254
-0.251
-0.2495
-0.248
-0.2495
-0.2535
-0.254
-0.254
-0.2535
-0.255
-0.2595
-0.261
-0.2595
-0.263
-0.265
-0.2565
-0.2595
-0.27
-0.2725
-0.278
-0.28
-0.2755
-0.2745
-0.2735
-0.2735
-0.276
-0.278
-0.2755
-0.271
-0.2755
-0.2735
-0.271
-0.271
-0.268
-0.2645
-0.2625
-0.269
-0.2675
-0.2675
-0.27
-0.273
-0.2765
-0.276
-0.2735
-0.274
-0.269
-0.275
-0.2685
-0.279
-0.2835
-0.271
-0.2915
-0.2595
-0.3165
-0.236
-0.3345
-0.2155
-0.357
-0.22
-0.3435
-0.2925
0.9635
-0.032
-0.4645
-0.1675
-0.3995
-0.2185
-0.356
-0.262
-0.319
-0.2885
-0.2985
-0.2945
-0.2915
-0.31
-0.2955
-0.3085
-0.3035
-0.305
-0.291
-0.292
-0.285
-0.2915
-0.294
-0.2915
-0.2925
-0.297
-0.3
-0.302
-0.3035
-0.304
-0.3085
-0.312
-0.311
-0.313
-0.3145
-0.312
-0.314
-0.3125
-0.308
-0.3085
-0.314
-0.3165
-0.31
-0.3085
-0.312
-0.3135
-0.3155
-0.3115
-0.308
-0.3125
-0.316
-0.313
-0.304
-0.307
-0.3105
-0.311
-0.3115
-0.309
-0.314
-0.3145
-0.3145
-0.3145
-0.311
-0.3065
-0.31
-0.315
-0.315
-0.3135
-0.31
-0.31
-0.3115
-0.3085
-0.3075
-0.31
-0.3075
-0.305
-0.3025
-0.3005
-0.3025
-0.3015
-0.3005
-0.3015
-0.302
-0.3045
-0.303
-0.298
-0.301
-0.3
-0.2985
-0.307
-0.3075
-0.304
-0.2995
-0.2955
-0.301
-0.2965
-0.2925
-0.296
-0.2935
-0.2965
-0.2975
-0.299
-0.308
-0.3065
-0.302
-0.302
-0.3065
-0.3065
-0.3025
-0.3
-0.2985
-0.299
-0.294
-0.29
-0.287
-0.287
-0.29
-0.2875
-0.2865
-0.289
-0.2875
-0.2885
-0.2865
-0.2815
-0.2835
-0.285
-0.2835
-0.285
-0.2885
-0.291
-0.293
-0.2975
-0.2955
-0.2915
-0.2915
-0.287
-0.2795
-0.2735
-0.268
-0.2635
-0.265
-0.2675
-0.2665
-0.2635
-0.268
-0.2745
-0.273
-0.273
-0.2775
-0.2765
-0.274
-0.2795
-0.2845
-0.2905
-0.294
-0.2975
-0.306
-0.31
-0.314
-0.3165
-0.319
-0.318
-0.317
-0.3165
-0.3185
-0.324
-0.323
-0.325
-0.3245
-0.3235
-0.325
-0.3245
-0.324
-0.325
-0.32
-0.319
-0.3205
-0.315
-0.318
-0.323
-0.326
-0.325
-0.3235
-0.32
-0.32
-0.3215
-0.311
-0.3065
-0.3135
-0.3205
-0.3215
-0.325
-0.3235
-0.3175
-0.3195
-0.3215
-0.3225
-0.3245
-0.3245
-0.3195
-0.3215
-0.325
-0.3215
-0.3225
-0.323
-0.321
-0.324
-0.33
-0.3345
-0.3375
-0.3375
-0.336
-0.3395
-0.3405
-0.3355
-0.335
-0.333
-0.3305
-0.3325
-0.3335
-0.335
-0.335
-0.3315
-0.333
-0.3345
-0.335
-0.3355
-0.3335
-0.3385
-0.3415
-0.3445
-0.351
-0.3525
-0.348
-0.35
-0.349
-0.3385
-0.3395
-0.336
-0.3305
-0.33
-0.3225
-0.311
-0.2975
-0.289
-0.2785
-0.2555
-0.234
-0.2205
-0.2
-0.186
-0.178
-0.164
-0.147
-0.1315
-0.121
-0.098
-0.069
-0.043
-0.018
0.009
0.033
0.048
0.0665
0.0755
0.088
0.11
0.107
0.1
0.0935
0.0805
0.061
0.0245
-0.0105
-0.0325
-0.0505
-0.0795
-0.1155
-0.148
-0.1725
-0.2025
-0.2375
-0.256
-0.2805
-0.3065
-0.3255
-0.3535
-0.369
-0.3625
-0.364
-0.369
-0.3625
-0.356
-0.3505
-0.3435
-0.329
-0.3135
-0.303
-0.29
-0.2835
-0.2775
-0.2635
-0.2535
-0.247
-0.245
-0.248
-0.246
-0.244
-0.2485
-0.251
-0.25
-0.255
-0.258
-0.2615
-0.267
-0.2715
-0.2765
-0.28
-0.2765
-0.2745
-0.278
-0.28
-0.2825
-0.285
-0.287
-0.2845
-0.285
-0.2865
-0.276
-0.2695
-0.2775
-0.2825
-0.281
-0.28
-0.276
-0.2775
-0.28
-0.2765
-0.277
-0.2805
-0.287
-0.285
-0.2785
-0.283
-0.284
-0.284
-0.283
-0.283
-0.2905
-0.293
-0.292
-0.2865
-0.289
-0.2905
-0.29
-0.289
-0.283
-0.2815
-0.279
-0.2815
-0.283
-0.2845
-0.291
-0.289
-0.2825
-0.285
-0.2905
-0.2875
-0.2805
-0.277
-0.278
-0.2735
-0.278
-0.286
-0.2815
-0.2765
-0.2765
-0.277
-0.276
-0.276
-0.27
-0.2665
-0.268
-0.2695
-0.2685
-0.2685
-0.2655
-0.267
-0.2675
-0.262
-0.266
-0.2655
-0.2625
-0.2605
-0.2615
-0.26
-0.2565
-0.257
-0.2575
-0.2575
-0.255
-0.2585
-0.257
-0.255
-0.2575
-0.2565
-0.2525
-0.251
-0.2535
-0.2465
-0.2415
-0.2395
-0.2405
-0.2395
-0.235
-0.24
-0.236
-0.233
-0.237
-0.2355
-0.234
-0.2275
-0.224
-0.2255
-0.231
-0.2355
-0.226
-0.2205
-0.2245
-0.2235
-0.2205
-0.224
-0.2285
-0.2215
-0.2175
-0.2185
-0.215
-0.2125
-0.208
-0.207
-0.207
-0.2025
-0.2015
-0.2025
-0.2045
-0.2025
-0.197
-0.1915
-0.192
-0.188
-0.1815
-0.185
-0.185
-0.191
-0.1955
-0.1855
-0.175
-0.1695
-0.1685
-0.1675
-0.166
-0.1655
-0.165
-0.1645
-0.1675
-0.1675
-0.1635
-0.164
-0.1675
-0.171
-0.169
-0.166
-0.1655
-0.1585
-0.1565
-0.163
-0.161
-0.1615
-0.166
-0.165
-0.1655
-0.1645
-0.1665
-0.1645
-0.1605
-0.166
-0.1685
-0.1655
-0.1675
-0.1695
-0.172
-0.1785
-0.181
-0.18
-0.1805
-0.1805
-0.181
-0.181
-0.182
-0.181
-0.1795
-0.18
-0.1795
-0.178
-0.1745
-0.178
-0.1855
-0.1915
-0.1925
-0.196
-0.201
-0.2
-0.202
-0.2075
-0.2065
-0.206
-0.2115
-0.213
-0.214
-0.2165
-0.2165
-0.218
-0.2215
-0.223
-0.2255
-0.234
-0.2375
-0.237
-0.241
-0.241
-0.244
-0.2515
-0.2565
-0.2595
-0.2605
-0.262
-0.2635
-0.2695
-0.2735
-0.274
-0.279
-0.2805
-0.278
-0.2785
-0.2745
-0.2775
-0.283
-0.285
-0.289
-0.287
-0.2815
-0.285
-0.292
-0.286
-0.2865
-0.2905
-0.2955
-0.299
-0.2965
-0.298
-0.295
-0.298
-0.3055
-0.308
-0.3045
-0.305
-0.3045
-0.2985
-0.2995
-0.2985
-0.3005
-0.3025
-0.305
-0.306
-0.3085
-0.314
-0.313
-0.3105
-0.31
-0.3135
-0.313
-0.3135
-0.3165
-0.3135
-0.3145
-0.312
-0.301
-0.3005
-0.3015
-0.302
-0.3015
-0.301
-0.3
-0.299
-0.304
-0.302
-0.2985
-0.2965
-0.297
-0.2975
-0.2975
-0.3005
-0.3
-0.2995
-0.297
-0.294
-0.2935
-0.2985
-0.299
-0.295
-0.2975
-0.2965
-0.295
-0.294
-0.293
-0.293
-0.2965
-0.302
-0.3035
-0.306
-0.302
-0.2955
-0.297
-0.3
-0.2985
-0.2955
-0.294
-0.295
-0.2965
-0.299
-0.303
-0.3
-0.2965
-0.2965
-0.2965
-0.2945
-0.295
-0.2995
-0.2985
-0.298
-0.296
-0.299
-0.3035
-0.2945
-0.2955
-0.2975
-0.2935
-0.2955
-0.296
-0.2915
-0.2865
-0.2885
-0.291
-0.2885
-0.287
-0.2915
-0.292
-0.292
-0.2935
-0.2935
-0.291
-0.2905
-0.289
-0.2855
-0.2885
-0.2885
-0.2905
-0.298
-0.2985
-0.296
-0.2975
-0.2955
-0.291
-0.288
-0.289
-0.2885
-0.2825
-0.279
-0.275
-0.278
-0.287
-0.2835
-0.2855
-0.274
-0.2985
-0.272
-0.303
-0.2605
-0.3065
-0.269
-0.298
-0.2865
-0.259
-0.358
-0.1635
-0.5625
0.584
0.5855
-0.5635
-0.165
-0.362
-0.267
-0.298
-0.3115
-0.2825
-0.326
-0.281
-0.3205
-0.284
-0.313
-0.3
-0.3165
-0.311
-0.311
-0.3075
-0.3055
-0.307
-0.306
-0.3045
-0.3105
-0.3145
-0.3105
-0.306
-0.3045
-0.3045
-0.305
-0.3085
-0.31
-0.308
-0.308
-0.312
-0.312
-0.3135
-0.3155
-0.3175
-0.3185
-0.314
-0.313
-0.3145
-0.3185
-0.3195
-0.3195
-0.3175
-0.309
-0.3065
-0.3115
-0.3115
-0.3095
-0.3115
-0.307
-0.3065
-0.303
-0.3005
-0.3075
-0.307
-0.305
-0.304
-0.309
-0.308
-0.305
-0.3115
-0.306
-0.302
-0.3065
-0.307
-0.303
-0.3005
-0.3005
-0.3
-0.3005
-0.301
-0.303
-0.2975
-0.296
-0.301
-0.3005
-0.304
-0.3035
-0.2995
-0.3015
-0.3
-0.3015
-0.303
-0.2965
-0.293
-0.2965
-0.298
-0.301
-0.3025
-0.307
-0.31
-0.3035
-0.304
-0.3045
-0.3015
-0.303
-0.3045
-0.3055
-0.3025
-0.3005
-0.3045
-0.308
-0.3075
-0.3065
-0.309
-0.305
-0.3065
-0.3125
-0.3115
-0.307
-0.3065
-0.3085
-0.309
-0.308
-0.311
-0.3165
-0.315
-0.3125
-0.3115
-0.314
-0.3135
-0.3075
-0.309
-0.312
-0.3095
-0.313
-0.32
-0.318
-0.316
-0.318
-0.3195
-0.32
-0.322
-0.3205
-0.3205
-0.3215
-0.3195
-0.322
-0.318
-0.3145
-0.3195
-0.325
-0.3265
-0.326
-0.327
-0.3275
-0.3265
-0.3275
-0.327
-0.3275
-0.326
-0.3225
-0.326
-0.328
-0.3225
-0.32
-0.324
-0.3255
-0.323
-0.3275
-0.329
-0.328
-0.3325
-0.3295
-0.325
-0.3215
-0.319
-0.3215
-0.3195
-0.32
-0.319
-0.314
-0.306
-0.3035
-0.3085
-0.3065
-0.307
-0.3095
-0.3105
-0.305
-0.3145
-0.3175
-0.3095
-0.323
-0.3005
-0.334
-0.2885
-0.3495
-0.28
-0.355
-0.2775
-0.3275
-0.307
-0.252
-0.493
0.8165
0.272
-0.5595
-0.1475
-0.407
-0.246
-0.3395
-0.288
-0.3035
-0.3065
-0.287
-0.3015
-0.273
-0.294
-0.272
-0.284
-0.2795
-0.286
-0.2865
-0.292
-0.2875
-0.2845
-0.2795
-0.2795
-0.278
-0.28
-0.282
-0.279
-0.276
-0.272
-0.272
-0.269
-0.2595
-0.2525
-0.2515
-0.2465
-0.244
-0.244
-0.24
-0.242
-0.2485
-0.25
-0.249
-0.2575
-0.2715
-0.275
-0.28
-0.2835
-0.2815
-0.2885
-0.2935
-0.295
-0.307
-0.315
-0.316
-0.3105
-0.306
-0.308
-0.3075
-0.3035
-0.304
-0.309
-0.3105
-0.3145
-0.317
-0.318
-0.318
-0.316
-0.3155
-0.3155
-0.3165
-0.315
-0.3165
-0.322
-0.3205
-0.319
-0.3225
-0.32
-0.3115
-0.308
-0.3145
-0.319
-0.319
-0.318
-0.3185
-0.3225
-0.321
-0.3155
-0.319
-0.3235
-0.32
-0.321
-0.3255
-0.328
-0.331
-0.3315
-0.333
-0.337
-0.342
-0.3435
-0.3385
-0.335
-0.337
-0.339
-0.342
-0.345
-0.346
-0.3435
-0.341
-0.337
-0.34
-0.3455
-0.342
-0.3435
-0.3465
-0.346
-0.3435
-0.343
-0.349
-0.3495
-0.3475
-0.347
-0.3485
-0.3465
-0.3455
-0.3475
-0.3505
-0.359
-0.3585
-0.354
-0.355
-0.3565
-0.354
-0.349
-0.347
-0.342
-0.3385
-0.3365
-0.329
-0.3185
-0.305
-0.294
-0.278
-0.2565
-0.2445
-0.22
-0.1955
-0.1865
-0.178
-0.1655
-0.1445
-0.131
-0.11
-0.08
-0.054
-0.0335
-0.015
0.0105
0.0315
0.052
0.0675
0.0825
0.104
0.103
0.097
0.0975
0.082
0.067
0.03
-0.011
-0.0275
-0.0475
-0.0585
-0.0865
-0.129
-0.1615
-0.1905
-0.222
-0.2515
-0.272
-0.2935
-0.311
-0.3355
-0.363
-0.3715
-0.3685
-0.3735
-0.379
-0.375
-0.37
-0.3625
-0.352
-0.3375
-0.3235
-0.31
-0.297
-0.282
-0.27
-0.2615
-0.2595
-0.258
-0.249
-0.2505
-0.2515
-0.2465
-0.2495
-0.259
-0.263
-0.268
-0.277
-0.2775
-0.281
-0.2845
-0.285
-0.291
-0.2945
-0.296
-0.2995
-0.3025
-0.3015
-0.298
-0.296
-0.2945
-0.2965
-0.2985
-0.2965
-0.299
-0.303
-0.3005
-0.2955
-0.2905
-0.2915
-0.295
-0.299
-0.302
-0.302
-0.297
-0.2975
-0.301
-0.2995
-0.3025
-0.3015
-0.3005
-0.3015
-0.3015
-0.302
-0.3005
-0.303
-0.3015
-0.3005
-0.3015
-0.2955
-0.2895
-0.2925
-0.2925
-0.29
-0.295
-0.293
-0.2915
-0.295
-0.293
-0.2905
-0.2885
-0.2845
-0.28
-0.2775
-0.2745
-0.2715
-0.2685
-0.268
-0.2675
-0.274
-0.2725
-0.2665
-0.275
-0.2745
-0.2745
-0.2715
-0.266
-0.268
-0.2695
-0.2735
-0.272
-0.272
-0.2745
-0.2745
-0.2725
-0.272
-0.2755
-0.2745
-0.273
-0.271
-0.2725
-0.2765
-0.272
-0.264
-0.266
-0.272
-0.2685
-0.2695
-0.274
-0.2705
-0.268
-0.265
-0.2615
-0.263
-0.2615
-0.2575
-0.2565
-0.256
-0.256
-0.254
-0.257
-0.262
-0.259
-0.2545
-0.2545
-0.255
-0.253
-0.252
-0.2385
-0.2385
-0.2495
-0.242
-0.2325
-0.23
-0.232
-0.23
-0.224
-0.22
-0.2165
-0.2195
-0.2305
-0.232
-0.2225
-0.217
-0.2145
-0.2135
-0.2125
-0.214
-0.213
-0.208
-0.209
-0.205
-0.1985
-0.1945
-0.1875
-0.1785
-0.178
-0.1845
-0.1825
-0.1795
-0.179
-0.178
-0.1715
-0.17
-0.1705
-0.166
-0.1705
-0.1725
-0.165
-0.1665
-0.1665
-0.1595
-0.1545
-0.1565
-0.1615
-0.164
-0.1625
-0.159
-0.17
-0.172
-0.1685
-0.1735
-0.1695
-0.1705
-0.169
-0.169
-0.1725
-0.1735
-0.173
-0.175
-0.1795
-0.174
-0.1705
-0.173
-0.176
-0.1785
-0.181
-0.182
-0.182
-0.1865
-0.1825
-0.1835
-0.1865
-0.181
-0.186
-0.195
-0.1955
-0.196
-0.202
-0.204
-0.203
-0.203
-0.2015
-0.207
-0.208
-0.2055
-0.2085
-0.2155
-0.2215
-0.223
-0.228
-0.2345
-0.238
-0.2405
-0.2415
-0.2415
-0.248
-0.251
-0.2515
-0.2575
-0.268
-0.276
-0.275
-0.2755
-0.273
-0.278
-0.2855
-0.284
-0.285
-0.288
-0.288
-0.285
-0.281
-0.2805
-0.284
-0.2875
-0.2955
-0.2975
-0.305
-0.3135
-0.311
-0.3115
-0.313
-0.314
-0.3135
-0.3135
-0.307
-0.3045
-0.313
-0.315
-0.315
-0.315
-0.319
-0.316
-0.309
-0.3095
-0.313
-0.3195
-0.315
-0.315
-0.32
-0.3215
-0.318
-0.3115
-0.318
-0.315
-0.3115
-0.3135
-0.31
-0.319
-0.32
-0.3155
-0.322
-0.3225
-0.319
-0.3125
-0.308
-0.3045
-0.307
-0.3165
-0.3205
-0.322
-0.323
-0.322
-0.32
-0.3145
-0.311
-0.316
-0.32
-0.321
-0.3205
-0.321
-0.321
-0.3205
-0.3185
-0.323
-0.325
-0.314
-0.3115
-0.316
-0.3105
-0.3025
-0.302
-0.309
-0.3115
-0.307
-0.3115
-0.316
-0.3155
-0.311
-0.313
-0.32
-0.3145
-0.308
-0.308
-0.3105
-0.313
-0.312
-0.3115
-0.3145
-0.3125
-0.3135
-0.3095
-0.3055
-0.304
-0.303
-0.3065
-0.3085
-0.3155
-0.322
-0.3185
-0.312
-0.3095
-0.3085
-0.314
-0.317
-0.3085
-0.3065
-0.3115
-0.3135
-0.3135
-0.309
-0.3115
-0.313
-0.3105
-0.3125
-0.3095
-0.318
-0.3225
-0.3215
-0.324
-0.32
-0.3195
-0.318
-0.3195
-0.3205
-0.3225
-0.324
-0.3245
-0.326
-0.3215
-0.326
-0.328
-0.324
-0.3235
-0.3275
-0.3285
-0.323
-0.3195
-0.3175
-0.3155
-0.316
-0.321
-0.3215
-0.3215
-0.32
-0.321
-0.3255
-0.325
-0.3245
-0.325
-0.3225
-0.3225
-0.3215
-0.318
-0.322
-0.3265
-0.324
-0.3205
-0.318
-0.319
-0.3165
-0.3215
-0.33
-0.321
-0.317
-0.3195
-0.3195
-0.323
-0.3205
-0.32
-0.3235
-0.327
-0.3295
-0.3265
-0.3275
-0.3265
-0.328
-0.333
-0.3265
-0.3275
-0.3225
-0.3195
-0.3315
-0.3265
-0.322
-0.325
-0.3315
-0.3325
-0.325
-0.323
-0.324
-0.325
-0.324
-0.3245
-0.323
-0.3285
-0.327
-0.3225
-0.3285
-0.33
-0.3355
-0.3315
-0.3275
-0.327
-0.318
-0.3235
-0.321
-0.3145
-0.32
-0.3205
-0.32
-0.3225
-0.3265
-0.3285
-0.328
-0.332
-0.3335
-0.336
-0.338
-0.3305
-0.3345
-0.3385
-0.335
-0.337
-0.3335
-0.3425
-0.342
-0.33
-0.332
-0.3325
-0.335
-0.336
-0.336
-0.336
-0.3395
-0.344
-0.3415
-0.343
-0.34
-0.343
-0.3465
-0.3445
-0.3445
-0.343
-0.342
-0.34
-0.342
-0.348
-0.3445
-0.3415
-0.339
-0.3375
-0.3475
-0.35
-0.342
-0.342
-0.345
-0.339
-0.344
-0.354
-0.3555
-0.3495
-0.346
-0.3435
-0.3515
-0.352
-0.342
-0.348
-0.345
-0.3495
-0.3505
-0.343
-0.3435
-0.3465
-0.3515
-0.345
-0.353
-0.355
-0.3465
-0.3555
-0.3525
-0.3535
-0.3515
-0.3485
-0.36
-0.3615
-0.364
-0.3645
-0.36
-0.361
-0.365
-0.3575
-0.3525
-0.3575
-0.3575
-0.3555
-0.351
-0.355
-0.3565
-0.3515
-0.3505
-0.35
-0.358
-0.362
-0.3575
-0.354
-0.356
-0.36
-0.357
-0.3585
-0.3645
-0.369
-0.365
-0.3595
-0.3595
-0.353
-0.351
-0.365
-0.3655
-0.3535
-0.3525
-0.352
-0.3535
-0.3505
-0.337
-0.337
-0.337
-0.338
-0.346
-0.3505
-0.3475
-0.3485
-0.3575
-0.3575
-0.3625
-0.3595
-0.356
-0.3615
-0.3605
-0.355
-0.3515
-0.3575
-0.356
-0.358
-0.362
-0.359
-0.357
-0.353
-0.3485
-0.3455
-0.3425
-0.3325
-0.333
-0.332
-0.327
-0.328
-0.324
-0.3265
-0.33
-0.3205
-0.321
-0.329
-0.326
-0.328
-0.3265
-0.3205
-0.319
-0.32
-0.3245
-0.3205
-0.328
-0.3335
-0.322
-0.3225
-0.324
-0.319
-0.312
-0.303
-0.2995
-0.2995
-0.296
-0.298
-0.3085
-0.311
-0.31
-0.31
-0.3165
-0.3235
-0.3195
-0.322
-0.3275
-0.3305
-0.3355
-0.3385
-0.346
-0.355
-0.362
-0.368
-0.368
-0.362
-0.3625
-0.366
-0.368
-0.371
-0.375
-0.378
-0.372
-0.372
-0.379
-0.3815
-0.3815
-0.381
-0.375
-0.3685
-0.3725
-0.3715
-0.369
-0.3735
-0.3675
-0.37
-0.381
-0.377
-0.3775
-0.376
-0.367
-0.3635
-0.368
-0.375
-0.3695
-0.3645
-0.3645
-0.3675
-0.371
-0.3665
-0.3755
-0.376
-0.363
-0.368
-0.3775
-0.3775
-0.377
-0.382
-0.378
-0.372
-0.3735
-0.376
-0.377
-0.3775
-0.3775
-0.376
-0.3785
-0.3755
-0.3815
-0.389
-0.3835
-0.3775
-0.374
-0.3825
-0.3865
-0.3785
-0.375
-0.377
-0.383
-0.3855
-0.38
-0.3775
-0.3775
-0.387
-0.393
-0.3935
-0.394
-0.392
-0.402
-0.4105
-0.4075
-0.4
-0.3915
-0.3855
-0.3805
-0.374
-0.373
-0.374
-0.357
-0.3395
-0.33
-0.3085
-0.2875
-0.265
-0.2505
-0.2395
-0.221
-0.2105
-0.2
-0.175
-0.1475
-0.1385
-0.1175
-0.0885
-0.0635
-0.046
-0.0335
-0.009
0.0
0.0075
0.028
0.034
0.027
0.0175
0.0095
-0.0015
-0.0295
-0.0735
-0.114
-0.1305
-0.15
-0.185
-0.211
-0.2475
-0.2695
-0.291
-0.32
-0.332
-0.3535
-0.374
-0.389
-0.405
-0.416
-0.409
-0.407
-0.4155
-0.4155
-0.421
-0.4185
-0.4145
-0.4065
-0.3845
-0.3665
-0.3435
-0.334
-0.3335
-0.3245
-0.314
-0.3045
-0.2975
-0.294
-0.304
-0.3055
-0.2975
-0.2995
-0.3045
-0.306
-0.311
-0.312
-0.3175
-0.3245
-0.3275
-0.336
-0.3305
-0.33
-0.3365
-0.332
-0.3325
-0.3295
-0.329
-0.337
-0.336
-0.3235
-0.3265
-0.3375
-0.333
-0.3325
-0.3355
-0.3365
-0.3355
-0.3375
-0.3345
-0.329
-0.333
-0.332
-0.337
-0.3415
-0.341
-0.342
-0.34
-0.3485
-0.35
-0.348
-0.346
-0.3335
-0.3275
-0.331
-0.335
-0.337
-0.3445
-0.341
-0.337
-0.342
-0.339
-0.342
-0.3465
-0.34
-0.338
-0.336
-0.3285
-0.3265
-0.3255
-0.333
-0.3335
-0.333
-0.333
-0.324
-0.332
-0.332
-0.329
-0.332
-0.3315
-0.341
-0.338
-0.3315
-0.331
-0.3385
-0.3405
-0.334
-0.3325
-0.3315
-0.3365
-0.331
-0.327
-0.3265
-0.3255
-0.3235
-0.317
-0.3115
-0.3095
-0.312
-0.3185
-0.3225
-0.3115
-0.3085
-0.319
-0.3215
-0.313
-0.315
-0.322
-0.316
-0.3065
-0.3135
-0.3125
-0.2995
-0.296
-0.306
-0.3055
-0.292
-0.2985
-0.296
-0.302
-0.311
-0.3055
-0.306
-0.301
-0.2955
-0.2895
-0.2915
-0.2905
-0.288
-0.291
-0.2855
-0.282
-0.28
-0.278
-0.279
-0.2805
-0.2705
-0.2715
-0.274
-0.265
-0.258
-0.254
-0.2605
-0.2595
-0.2535
-0.2515
-0.2465
-0.242
-0.2455
-0.243
-0.24
-0.2365
-0.236
-0.238
-0.2325
-0.234
-0.2325
-0.226
-0.2225
-0.218
-0.214
-0.2085
-0.207
-0.207
-0.204
-0.208
-0.207
-0.205
-0.2105
-0.2065
-0.1975
-0.1975
-0.2065
-0.21
-0.203
-0.1995
-0.2025
-0.2005
-0.1965
-0.2015
-0.204
-0.2005
-0.2
-0.2075
-0.2135
-0.2025
-0.1975
-0.2
-0.1985
-0.205
-0.206
-0.2025
-0.208
-0.207
-0.207
-0.2055
-0.202
-0.208
-0.2095
-0.2105
-0.2095
-0.2095
-0.2175
-0.2145
-0.2145
-0.217
-0.2135
-0.2115
-0.221
-0.2335
-0.2355
-0.2375
-0.2365
-0.244
-0.2455
-0.243
-0.252
-0.25
-0.2505
-0.2595
-0.263
-0.267
-0.2745
-0.276
-0.2725
-0.276
-0.2795
-0.281
-0.2875
-0.283
-0.2895
-0.299
-0.296
-0.2985
-0.308
-0.318
-0.3175
-0.3155
-0.3125
-0.3275
-0.326
-0.3195
-0.328
-0.314
-0.3205
-0.3285
-0.325
-0.324
-0.321
-0.3265
-0.328
-0.3305
-0.336
-0.3375
-0.3385
-0.34
-0.337
-0.332
-0.3365
-0.331
-0.3345
-0.348
-0.3475
-0.3505
-0.349
-0.3465
-0.3475
-0.3455
-0.3495
-0.3545
-0.35
-0.348
-0.3505
-0.355
-0.3635
-0.357
-0.3505
-0.3545
-0.356
-0.3545
-0.359
-0.3685
-0.3685
-0.3615
-0.3595
-0.3605
-0.357
-0.348
-0.343
-0.3495
-0.3525
-0.3505
-0.36
-0.36
-0.3505
-0.3555
-0.362
-0.3675
-0.368
-0.3615
-0.357
-0.3525
-0.349
-0.3545
-0.355
-0.354
-0.361
-0.3565
-0.353
-0.3555
-0.356
-0.3575
-0.3595
-0.355
-0.352
-0.3465
-0.345
-0.349
-0.3495
-0.352
-0.348
-0.349
-0.3515
-0.352
-0.3525
-0.3495
-0.348
-0.352
-0.352
-0.349
-0.345
-0.3345
-0.332
-0.3395
-0.3475
-0.343
-0.342
-0.344
-0.3385
-0.337
-0.337
-0.3415
-0.336
-0.327
-0.343
-0.3455
-0.3335
-0.3375
-0.34
-0.3365
-0.336
-0.337
-0.3325
-0.3325
-0.335
-0.331
-0.33
-0.3245
-0.3185
-0.324
-0.3325
-0.3315
-0.318
-0.3195
-0.3195
-0.319
-0.325
-0.321
-0.3145
-0.3165
-0.3245
-0.3215
-0.32
-0.3225
-0.3165
-0.3175
-0.326
-0.3365
-0.3405
-0.3315
-0.334
-0.334
-0.3285
-0.334
-0.3325
-0.3285
-0.325
-0.3195
-0.3145
-0.3145
-0.32
-0.317
-0.305
-0.3075
-0.315
-0.3185
-0.323
-0.322
-0.319
-0.3155
-0.321
-0.319
-0.3175
-0.316
-0.3145
-0.312
-0.307
-0.3135
-0.3105
-0.316
-0.3135
-0.305
-0.314
-0.308
-0.299
-0.309
-0.3175
-0.3165
-0.316
-0.3135
-0.3125
-0.313
-0.313
-0.3175
-0.329
-0.33
-0.3225
-0.3225
-0.327
-0.321
-0.3155
-0.322
-0.3185
-0.3195
-0.3215
-0.322
-0.3185
-0.311
-0.315
-0.319
-0.3235
-0.3215
-0.321
-0.3235
-0.3225
-0.322
-0.3155
-0.318
-0.3245
-0.3225
-0.3265
-0.332
-0.3265
-0.325
-0.328
-0.3255
-0.3255
-0.3255
-0.3285
-0.3335
-0.326
-0.3175
-0.325
-0.328
-0.327
-0.3275
-0.3255
-0.327
-0.332
-0.334
-0.3285
-0.327
-0.332
-0.3375
-0.343
-0.3385
-0.333
-0.331
-0.3315
-0.3345
-0.3335
-0.3305
-0.3315
-0.3275
-0.3215
-0.333
-0.326
-0.3205
-0.3305
-0.3255
-0.3285
-0.33
-0.3265
-0.322
-0.3295
-0.3355
-0.3305
-0.327
-0.3285
-0.331
-0.3195
-0.3255
-0.329
-0.322
-0.322
-0.3145
-0.3115
-0.3135
-0.3185
-0.3205
-0.314
-0.314
-0.317
-0.3115
-0.305
-0.3095
-0.3135
-0.3085
-0.3095
-0.3065
-0.303
-0.3085
-0.313
-0.314
-0.3075
-0.3085
-0.3135
-0.315
-0.3105
-0.3105
-0.312
-0.3125
-0.3125
-0.304
-0.314
-0.3055
-0.297
-0.3105
-0.3125
-0.3165
-0.3135
-0.3095
-0.3055
-0.31
-0.319
-0.3185
-0.3115
-0.3055
-0.3065
-0.3005
-0.302
-0.2975
-0.2875
-0.291
-0.293
-0.3025
-0.3005
-0.292
-0.2965
-0.2985
-0.2955
-0.2915
-0.294
-0.2955
-0.2935
-0.2935
-0.2865
-0.2805
-0.2795
-0.2735
-0.2735
-0.271
-0.256
-0.249
-0.2465
-0.2605
-0.2505
-0.2625
-0.2515
-0.265
-0.257
-0.269
-0.277
-0.261
-0.2925
-0.226
-0.3355
-0.2045
-0.3935
-0.164
-0.4705
-0.0425
0.972
-0.329
-0.3055
-0.287
-0.3005
-0.325
-0.2505
-0.3805
-0.2295
0.9785
-0.215
-0.427
-0.208
-0.402
-0.231
-0.367
-0.26
-0.334
-0.289
-0.315
-0.3075
-0.314
-0.3145
-0.3045
-0.3145
-0.306
-0.3085
-0.3015
-0.299
-0.296
-0.2955
-0.295
-0.298
-0.3015
-0.299
-0.304
-0.311
-0.311
-0.3055
-0.3065
-0.311
-0.3085
-0.308
-0.307
-0.307
-0.306
-0.3055
-0.304
-0.3035
-0.3075
-0.299
-0.3
-0.3145
-0.306
-0.2975
-0.2975
-0.298
-0.307
-0.3085
-0.306
-0.309
-0.312
-0.308
-0.31
-0.309
-0.305
-0.3035
-0.3
-0.307
-0.3085
-0.316
-0.322
-0.315
-0.3155
-0.3185
-0.3205
-0.3265
-0.3245
-0.3145
-0.3135
-0.313
-0.3095
-0.3035
-0.298
-0.2965
-0.29
-0.2745
-0.257
-0.2405
-0.2215
-0.2015
-0.1885
-0.1845
-0.1675
-0.156
-0.1475
-0.1245
-0.109
-0.0955
-0.08
-0.063
-0.0355
-0.0135
0.0
0.0125
0.018
0.034
0.0515
0.0595
0.0515
0.0325
0.021
0.0035
-0.0225
-0.0615
-0.0985
-0.118
-0.143
-0.167
-0.1975
-0.2325
-0.2485
-0.2685
-0.2915
-0.305
-0.325
-0.344
-0.36
-0.3775
-0.3825
-0.376
-0.3755
-0.38
-0.379
-0.379
-0.3805
-0.3785
-0.3725
-0.35
-0.329
-0.315
-0.303
-0.301
-0.294
-0.2915
-0.29
-0.2835
-0.28
-0.283
-0.284
-0.2785
-0.278
-0.2865
-0.2935
-0.2915
-0.2905
-0.293
-0.2905
-0.2975
-0.3045
-0.3035
-0.2995
-0.299
-0.304
-0.3025
-0.3065
-0.3085
-0.314
-0.3125
-0.308
-0.314
-0.31
-0.3125
-0.3175
-0.3185
-0.3155
-0.3125
-0.3175
-0.3145
-0.318
-0.3265
-0.3225
-0.32
-0.3155
-0.31
-0.301
-0.3
-0.3075
-0.309
-0.3095
-0.3095
-0.3095
-0.309
-0.3055
-0.3005
-0.302
-0.3025
-0.3055
-0.309
-0.3075
-0.306
-0.307
-0.3065
-0.3035
-0.3085
-0.3165
-0.3145
-0.3095
-0.302
-0.3015
-0.3045
-0.3
-0.2925
-0.2935
-0.298
-0.298
-0.302
-0.303
-0.302
-0.3035
-0.301
-0.302
-0.3035
-0.2995
-0.2965
-0.2945
-0.2935
-0.2965
-0.296
-0.3025
-0.307
-0.3035
-0.3015
-0.299
-0.3005
-0.301
-0.3035
-0.307
-0.3105
-0.3065
-0.3035
-0.3045
-0.3005
-0.3
-0.295
-0.2925
-0.2905
-0.2885
-0.2895
-0.2845
-0.283
-0.287
-0.2845
-0.286
-0.2925
-0.283
-0.2795
-0.2855
-0.283
-0.2785
-0.2835
-0.286
-0.279
-0.282
-0.28
-0.2725
-0.271
-0.272
-0.2685
-0.2635
-0.259
-0.26
-0.26
-0.255
-0.2535
-0.25
-0.2445
-0.2375
-0.2375
-0.2435
-0.243
-0.2365
-0.234
-0.2295
-0.226
-0.2265
-0.2245
-0.2255
-0.224
-0.219
-0.2175
-0.2175
-0.217
-0.2215
-0.218
-0.212
-0.213
-0.206
-0.203
-0.204
-0.2005
-0.2015
-0.2025
-0.202
-0.2025
-0.2005
-0.193
-0.186
-0.1885
-0.187
-0.1835
-0.1885
-0.195
-0.195
-0.192
-0.19
-0.1905
-0.189
-0.1875
-0.1895
-0.1915
-0.194
-0.1935
-0.19
-0.1845
-0.188
-0.1905
-0.1835
-0.185
-0.1945
-0.196
-0.1885
-0.185
-0.1885
-0.196
-0.1985
-0.1985
-0.203
-0.202
-0.205
-0.211
-0.2045
-0.2035
-0.2065
-0.2075
-0.208
-0.206
-0.214
-0.22
-0.219
-0.221
-0.224
-0.2285
-0.2335
-0.233
-0.2315
-0.2405
-0.242
-0.2395
-0.2495
-0.251
-0.2545
-0.258
-0.2575
-0.2625
-0.2585
-0.2645
-0.2665
-0.264
-0.2725
-0.2695
-0.267
-0.2695
-0.2705
-0.2715
-0.2775
-0.2845
-0.287
-0.289
-0.2815
-0.2875
-0.295
-0.2925
-0.298
-0.2935
-0.2935
-0.299
-0.2965
-0.2945
-0.2965
-0.2985
-0.304
-0.3045
-0.2965
-0.3045
-0.3075
-0.3075
-0.313
-0.307
-0.303
-0.3055
-0.3065
-0.309
-0.3145
-0.312
-0.3105
-0.3165
-0.3175
-0.319
-0.3225
-0.321
-0.325
-0.3225
-0.3175
-0.3245
-0.331
-0.329
-0.3255
-0.3255
-0.321
-0.3235
-0.3245
-0.3315
-0.3365
-0.3195
-0.3135
-0.3245
-0.3285
-0.3275
-0.332
-0.33
-0.328
-0.329
-0.331
-0.332
-0.3295
-0.3305
-0.331
-0.333
-0.3355
-0.331
-0.328
-0.3275
-0.329
-0.3295
-0.3255
-0.323
-0.3225
-0.328
-0.335
-0.3355
-0.335
-0.3325
-0.329
-0.329
-0.336
-0.337
-0.33
-0.331
-0.336
-0.333
-0.3335
-0.3365
-0.3285
-0.331
-0.3355
-0.332
-0.3275
-0.3275
-0.328
-0.327
-0.327
-0.324
-0.325
-0.32
-0.319
-0.3235
-0.321
-0.325
-0.328
-0.325
-0.321
-0.3155
-0.3165
-0.313
-0.314
-0.3165
-0.314
-0.313
-0.3155
-0.319
-0.309
-0.304
-0.31
-0.31
-0.306
-0.304
-0.308
-0.309
-0.3055
-0.3105
-0.311
-0.3115
-0.319
-0.317
-0.315
-0.313
-0.311
-0.311
-0.311
-0.3145
-0.3195
-0.3165
-0.3135
-0.318
-0.323
-0.3215
-0.3175
-0.3175
-0.3195
-0.3215
-0.3175
-0.3195
-0.3225
-0.321
-0.325
-0.32
-0.317
-0.321
-0.328
-0.329
-0.324
-0.322
-0.3225
-0.326
-0.3205
-0.317
-0.3145
-0.3185
-0.325
-0.319
-0.3245
-0.3275
-0.332
-0.3335
-0.327
-0.3275
-0.334
-0.336
-0.325
-0.328
-0.3305
-0.3275
-0.3315
-0.326
-0.3275
-0.331
-0.3345
-0.336
-0.331
-0.333
-0.337
-0.3355
-0.3325
-0.3315
-0.331
-0.334
-0.335
-0.336
-0.34
-0.3435
-0.3475
-0.341
-0.3385
-0.341
-0.3365
-0.3425
-0.346
-0.3435
-0.342
-0.3395
-0.338
-0.339
-0.342
-0.3415
-0.3415
-0.3415
-0.3445
-0.345
-0.3425
-0.341
-0.3425
-0.348
-0.3505
-0.35
-0.3535
-0.3585
-0.3555
-0.349
-0.354
-0.358
-0.3585
-0.3565
-0.349
-0.3485
-0.353
-0.354
-0.353
-0.354
-0.3525
-0.3505
-0.357
-0.3595
-0.3555
-0.3535
-0.3565
-0.363
-0.3575
-0.358
-0.3545
-0.3525
-0.3605
-0.355
-0.3555
-0.357
-0.359
-0.359
-0.356
-0.3525
-0.348
-0.3545
-0.3595
-0.357
-0.353
-0.356
-0.3575
-0.3515
-0.351
-0.349
-0.345
-0.346
-0.3515
-0.356
-0.3485
-0.345
-0.3475
-0.3445
-0.3475
-0.3475
-0.346
-0.347
-0.3445
-0.3465
-0.3515
-0.352
-0.351
-0.3485
-0.347
-0.345
-0.3465
-0.35
-0.3525
-0.354
-0.35
-0.35
-0.352
-0.3535
-0.3545
-0.354
-0.355
-0.3565
-0.3605
-0.361
-0.3595
-0.356
-0.353
-0.3465
-0.341
-0.341
-0.3375
-0.3335
-0.332
-0.3335
-0.3355
-0.3355
-0.329
-0.331
-0.34
-0.3415
-0.3355
-0.3335
-0.335
-0.337
-0.334
-0.331
-0.334
-0.3315
-0.3345
-0.3385
-0.337
-0.3305
-0.3255
-0.319
-0.3045
-0.303
-0.3065
-0.3065
-0.3095
-0.3165
-0.321
-0.3115
-0.31
-0.3155
-0.3155
-0.3175
-0.3225
-0.3265
-0.3255
-0.326
-0.3205
-0.323
-0.3285
-0.3275
-0.3345
-0.341
-0.3385
-0.3365
-0.34
-0.3355
-0.339
-0.3485
-0.3515
-0.354
-0.3565
-0.3615
-0.356
-0.3495
-0.3485
-0.3505
-0.353
-0.351
-0.3465
-0.3485
-0.3485
-0.3425
-0.343
-0.352
-0.3565
-0.355
-0.358
-0.3575
-0.3595
-0.3575
-0.3505
-0.35
-0.3475
-0.3465
-0.342
-0.347
-0.3545
-0.3505
-0.351
-0.352
-0.353
-0.3545
-0.353
-0.351
-0.3495
-0.3535
-0.3605
-0.355
-0.3495
-0.351
-0.3495
-0.3495
-0.3475
-0.3495
-0.352
-0.353
-0.3545
-0.3485
-0.345
-0.344
-0.348
-0.3515
-0.347
-0.3505
-0.3515
-0.348
-0.3485
-0.3475
-0.3485
-0.3505
-0.3515
-0.3495
-0.354
-0.359
-0.3565
-0.3665
-0.371
-0.367
-0.3665
-0.3655
-0.361
-0.3595
-0.3555
-0.351
-0.354
-0.3515
-0.341
-0.329
-0.3195
-0.3085
-0.29
-0.2695
-0.2525
-0.229
-0.212
-0.2065
-0.194
-0.1805
-0.17
-0.155
-0.1335
-0.111
-0.092
-0.0665
-0.048
-0.0305
-0.0055
0.01
0.0235
0.037
0.049
0.046
0.0355
0.0275
0.015
-0.0045
-0.0445
-0.0775
-0.1005
-0.1195
-0.1385
-0.1725
-0.205
-0.228
-0.2535
-0.2855
-0.3125
-0.334
-0.347
-0.365
-0.3885
-0.4015
-0.4015
-0.401
-0.407
-0.401
-0.398
-0.3975
-0.389
-0.375
-0.3595
-0.3525
-0.3405
-0.3345
-0.3275
-0.3125
-0.308
-0.31
-0.3095
-0.3025
-0.295
-0.298
-0.3
-0.297
-0.3045
-0.3105
-0.3145
-0.3155
-0.316
-0.3185
-0.322
-0.329
-0.3245
-0.3245
-0.332
-0.329
-0.3245
-0.326
-0.3315
-0.3285
-0.3245
-0.3275
-0.3285
-0.326
-0.328
-0.328
-0.328
-0.3265
-0.3225
-0.32
-0.322
-0.326
-0.322
-0.325
-0.3245
-0.3255
-0.3295
-0.328
-0.326
-0.3245
-0.3245
-0.3225
-0.324
-0.3265
-0.33
-0.3265
-0.319
-0.3255
-0.331
-0.329
-0.332
-0.3325
-0.3335
-0.3335
-0.333
-0.3335
-0.334
-0.341
-0.337
-0.3365
-0.3355
-0.3265
-0.3205
-0.3155
-0.32
-0.3175
-0.3145
-0.32
-0.3225
-0.321
-0.3195
-0.3245
-0.326
-0.3205
-0.3245
-0.3295
-0.3225
-0.3245
-0.326
-0.323
-0.326
-0.3235
-0.3225
-0.326
-0.326
-0.326
-0.324
-0.3205
-0.322
-0.321
-0.3205
-0.3265
-0.3225
-0.319
-0.324
-0.324
-0.3155
-0.3175
-0.316
-0.3105
-0.313
-0.3005
-0.3165
-0.2865
-0.3205
-0.2745
-0.326
-0.269
-0.321
-0.2835
-0.3005
-0.334
-0.193
-0.5295
0.7215
0.4395
-0.562
-0.1385
-0.3765
-0.2375
-0.3055
-0.2805
-0.2725
-0.297
-0.2635
-0.296
-0.262
-0.283
-0.2585
-0.269
-0.2595
-0.257
-0.2455
-0.249
-0.2515
-0.2395
-0.2375
-0.241
-0.2335
-0.224
-0.2175
-0.2235
-0.2225
-0.2195
-0.2225
-0.224
-0.221
-0.22
-0.2195
-0.215
-0.2195
-0.215
-0.2105
-0.2165
-0.2155
-0.2115
-0.2055
-0.205
-0.208
-0.205
-0.207
-0.203
-0.197
-0.2045
-0.206
-0.2045
-0.202
-0.2
-0.202
-0.1995
-0.199
-0.2025
-0.206
-0.204
-0.202
-0.199
-0.1995
-0.2045
-0.206
-0.207
-0.2085
-0.21
-0.2165
-0.2195
-0.218
-0.215
-0.212
-0.213
-0.2165
-0.222
-0.2195
-0.2155
-0.2155
-0.214
-0.2185
-0.2235
-0.227
-0.233
-0.2285
-0.2255
-0.231
-0.2325
-0.238
-0.2445
-0.248
-0.251
-0.2505
-0.2535
-0.2595
-0.264
-0.2695
-0.274
-0.278
-0.28
-0.28
-0.2855
-0.286
-0.2835
-0.29
-0.295
-0.3005
-0.3055
-0.3075
-0.3065
-0.311
-0.3215
-0.324
-0.3245
-0.3265
-0.3235
-0.322
-0.3265
-0.331
-0.333
-0.331
-0.331
-0.3365
-0.34
-0.34
-0.344
-0.352
-0.3495
-0.352
-0.3565
-0.354
-0.3585
-0.358
-0.355
-0.355
-0.352
-0.3495
-0.354
-0.3565
-0.349
-0.3485
-0.3585
-0.363
-0.363
-0.3595
-0.361
-0.361
-0.3515
-0.3495
-0.357
-0.3595
-0.3595
-0.3655
-0.366
-0.3665
-0.3635
-0.3635
-0.365
-0.3645
-0.372
-0.377
-0.3775
-0.3695
-0.3695
-0.3655
-0.358
-0.361
-0.356
-0.3605
-0.367
-0.3635
-0.3655
-0.368
-0.37
-0.3685
-0.368
-0.367
-0.3665
-0.364
-0.36
-0.3645
-0.3625
-0.3625
-0.3645
-0.355
-0.352
-0.3485
-0.3505
-0.353
-0.349
-0.3585
-0.359
-0.3565
-0.3565
-0.3495
-0.3525
-0.3535
-0.3485
-0.3465
-0.345
-0.3415
-0.345
-0.3435
-0.3465
-0.354
-0.348
-0.348
-0.3455
-0.345
-0.345
-0.34
-0.3435
-0.3415
-0.3355
-0.334
-0.3385
-0.341
-0.341
-0.341
-0.338
-0.339
-0.339
-0.3415
-0.344
-0.342
-0.3435
-0.346
-0.345
-0.342
-0.3355
-0.3275
-0.329
-0.3315
-0.334
-0.3405
-0.343
-0.3405
-0.3405
-0.3395
-0.3365
-0.3385
-0.336
-0.3385
-0.337
-0.331
-0.334
-0.3355
-0.337
-0.3345
-0.3345
-0.338
-0.342
-0.341
-0.339
-0.343
-0.339
-0.3345
-0.3355
-0.3405
-0.341
-0.3405
-0.3445
-0.3395
-0.335
-0.34
-0.3415
-0.3395
-0.3385
-0.3405
-0.3415
-0.337
-0.3375
-0.344
-0.342
-0.343
-0.3495
-0.348
-0.3415
-0.34
-0.343
-0.339
-0.341
-0.345
-0.3395
-0.336
-0.3345
-0.336
-0.338
-0.3365
-0.3365
-0.3345
-0.3295
-0.328
-0.3325
-0.3445
-0.3445
-0.337
-0.338
-0.3355
-0.339
-0.3385
-0.338
-0.338
-0.33
-0.332
-0.336
-0.3385
-0.338
-0.3355
-0.3325
-0.3325
-0.331
-0.33
-0.335
-0.3375
-0.339
-0.334
-0.335
-0.3375
-0.337
-0.3375
-0.3335
-0.335
-0.3365
-0.3355
-0.336
-0.339
-0.3395
-0.3395
-0.34
-0.3425
-0.3455
-0.345
-0.3455
-0.341
-0.336
-0.3355
-0.3345
-0.336
-0.339
-0.3425
-0.3425
-0.34
-0.3445
-0.3495
-0.348
-0.347
-0.3455
-0.347
-0.3485
-0.3405
-0.3375
-0.3415
-0.347
-0.3485
-0.3415
-0.3405
-0.3465
-0.344
-0.3395
-0.345
-0.345
-0.3455
-0.3515
-0.3495
-0.3465
-0.3455
-0.349
-0.348
-0.348
-0.3495
-0.348
-0.3485
-0.345
-0.3465
-0.3475
-0.3455
-0.344
-0.345
-0.342
-0.341
-0.3445
-0.352
-0.354
-0.343
-0.344
-0.349
-0.3505
-0.353
-0.363
-0.3685
-0.3685
-0.372
-0.3675
-0.367
-0.3715
-0.3685
-0.363
-0.36
-0.361
-0.3655
-0.363
-0.36
-0.361
-0.3645
-0.366
-0.3655
-0.3645
-0.36
-0.3575
-0.36
-0.3615
-0.3655
-0.3675
-0.3635
-0.3595
-0.3585
-0.3615
-0.365
-0.3645
-0.3595
-0.3575
-0.3585
-0.3595
-0.3615
-0.363
-0.363
-0.364
-0.364
-0.357
-0.3515
-0.3425
-0.341
-0.3435
-0.332
-0.3305
-0.334
-0.3325
-0.334
-0.337
-0.337
-0.3345
-0.336
-0.332
-0.3275
-0.333
-0.3355
-0.3295
-0.327
-0.333
-0.3355
-0.334
-0.333
-0.3295
-0.3255
-0.3245
-0.3225
-0.3165
-0.3115
-0.308
-0.3075
-0.307
-0.306
-0.3055
-0.3045
-0.309
-0.314
-0.3135
-0.3215
-0.3315
-0.3275
-0.3265
-0.33
-0.334
-0.343
-0.347
-0.356
-0.364
-0.3675
-0.3685
-0.3715
-0.376
-0.3745
-0.374
-0.372
-0.3725
-0.3765
-0.3825
-0.382
-0.379
-0.3795
-0.3775
-0.381
-0.3825
-0.3805
-0.382
-0.385
-0.3885
-0.3835
-0.3835
-0.388
-0.3875
-0.389
-0.3875
-0.3915
-0.3925
-0.3885
-0.386
-0.3835
-0.386
-0.3815
-0.3825
-0.382
-0.377
-0.3805
-0.386
-0.388
-0.3855
-0.3875
-0.388
-0.3865
-0.3865
-0.386
-0.384
-0.383
-0.3865
-0.3855
-0.385
-0.383
-0.3755
-0.374
-0.376
-0.3725
-0.3725
-0.3725
-0.369
-0.3735
-0.369
-0.364
-0.3725
-0.3715
-0.3695
-0.3735
-0.367
-0.362
-0.37
-0.3695
-0.371
-0.3735
-0.3725
-0.3775
-0.379
-0.39
-0.3955
-0.392
-0.3855
-0.3815
-0.3835
-0.3775
-0.3785
-0.3725
-0.3625
-0.3575
-0.347
-0.341
-0.331
-0.3125
-0.2965
-0.2815
-0.268
-0.247
-0.227
-0.2135
-0.199
-0.1855
-0.169
-0.156
-0.131
-0.106
-0.084
-0.067
-0.046
-0.017
-0.0005
0.023
0.035
0.0435
0.07
0.081
0.0765
0.076
0.0665
0.0425
0.007
-0.0205
-0.043
-0.07
-0.0875
-0.1205
-0.1575
-0.18
-0.2045
-0.2415
-0.273
-0.294
-0.3165
-0.331
-0.353
-0.376
-0.3865
-0.3905
-0.3885
-0.3875
-0.389
-0.3905
-0.3875
-0.377
-0.357
-0.339
-0.328
-0.3165
-0.3125
-0.304
-0.2955
-0.2975
-0.294
-0.2955
-0.294
-0.295
-0.3035
-0.304
-0.307
-0.3075
-0.2985
-0.302
-0.314
-0.3205
-0.327
-0.332
-0.333
-0.3285
-0.332
-0.3365
-0.339
-0.344
-0.342
-0.34
-0.3445
-0.3435
-0.3415
-0.339
-0.3365
-0.34
-0.343
-0.3485
-0.3455
-0.34
-0.3405
-0.341
-0.3455
-0.347
-0.3475
-0.351
-0.3525
-0.351
-0.3505
-0.3525
-0.351
-0.3495
-0.349
-0.351
-0.351
-0.3495
-0.3495
-0.345
-0.3475
-0.3475
-0.344
-0.344
-0.3415
-0.344
-0.3485
-0.3525
-0.3485
-0.345
-0.346
-0.344
-0.3445
-0.3505
-0.3475
-0.3425
-0.3425
-0.3415
-0.339
-0.34
-0.3455
-0.339
-0.336
-0.342
-0.3395
-0.3385
-0.3405
-0.3385
-0.3395
-0.3375
-0.3365
-0.3385
-0.3425
-0.3415
-0.332
-0.3335
-0.3355
-0.33
-0.3255
-0.327
-0.331
-0.3285
-0.326
-0.3225
-0.3245
-0.3305
-0.329
-0.331
-0.3275
-0.323
-0.3255
-0.3225
-0.3205
-0.3175
-0.314
-0.3145
-0.313
-0.316
-0.318
-0.3105
-0.304
-0.299
-0.303
-0.3085
-0.3075
-0.3025
-0.296
-0.2975
-0.3
-0.294
-0.287
-0.2875
-0.2875
-0.285
-0.2845
-0.2825
-0.2795
-0.278
-0.271
-0.2685
-0.272
-0.2655
-0.261
-0.2555
-0.2525
-0.252
-0.243
-0.24
-0.239
-0.2355
-0.236
-0.236
-0.2335
-0.229
-0.226
-0.2215
-0.2195
-0.2265
-0.229
-0.2245
-0.2205
-0.221
-0.2155
-0.2105
-0.214
-0.2145
-0.2165
-0.2135
-0.208
-0.207
-0.206
-0.207
-0.207
-0.2005
-0.1955
-0.196
-0.1995
-0.203
-0.1955
-0.19
-0.195
-0.196
-0.193
-0.1925
-0.193
-0.1895
-0.188
-0.188
-0.184
-0.1835
-0.1855
-0.187
-0.191
-0.1935
-0.194
-0.1985
-0.202
-0.2005
-0.2045
-0.2065
-0.207
-0.2085
-0.205
-0.2035
-0.2055
-0.21
-0.2165
-0.2155
-0.214
-0.224
-0.2285
-0.232
-0.234
-0.2325
-0.236
-0.238
-0.241
-0.24
-0.241
-0.245
-0.25
-0.2545
-0.2585
-0.2605
-0.265
-0.271
-0.269
-0.276
-0.284
-0.284
-0.2825
-0.289
-0.2925
-0.2955
-0.3025
-0.305
-0.309
-0.312
-0.319
-0.3205
-0.317
-0.319
-0.327
-0.328
-0.3195
-0.32
-0.3255
-0.3285
-0.3265
-0.325
-0.3255
-0.324
-0.3255
-0.327
-0.3255
-0.326
-0.3285
-0.33
-0.3265
-0.3255
-0.3305
-0.3325
-0.3345
-0.335
-0.3325
-0.3335
-0.33
-0.3295
-0.3335
-0.339
-0.342
-0.3435
-0.3445
-0.3415
-0.3425
-0.3435
-0.341
-0.3415
-0.3415
-0.3375
-0.3375
-0.3365
-0.334
-0.334
-0.334
-0.337
-0.3395
-0.3395
-0.342
-0.344
-0.343
-0.342
-0.341
-0.342
-0.3455
-0.3465
-0.3435
-0.3405
-0.341
-0.345
-0.3425
-0.3415
-0.343
-0.3425
-0.3465
-0.345
-0.346
-0.3455
-0.339
-0.3385
-0.341
-0.3435
-0.3445
-0.3385
-0.338
-0.343
-0.3425
-0.3445
-0.3435
-0.3445
-0.345
-0.346
-0.343
-0.338
-0.343
-0.341
-0.34
-0.3455
-0.3465
-0.3435
-0.3445
-0.348
-0.344
-0.34
-0.3335
-0.3305
-0.334
-0.333
-0.3295
-0.3285
-0.327
-0.327
-0.331
-0.329
-0.3265
-0.3305
-0.3295
-0.3235
-0.321
-0.314
-0.3085
-0.315
-0.3155
-0.3165
-0.315
-0.3155
-0.3215
-0.323
-0.3245
-0.32
-0.319
-0.319
-0.3165
-0.316
-0.3165
-0.3115
-0.304
-0.311
-0.316
-0.3135
-0.318
-0.317
-0.3095
-0.3115
-0.314
-0.3145
-0.316
-0.318
-0.316
-0.3135
-0.3155
-0.32
-0.3215
-0.3205
-0.3225
-0.322
-0.323
-0.3235
-0.3255
-0.329
-0.3295
-0.3335
-0.3365
-0.336
-0.335
-0.325
-0.318
-0.328
-0.333
-0.3335
-0.3335
-0.3325
-0.335
-0.3335
-0.3325
-0.333
-0.333
-0.3335
-0.3345
-0.334
-0.332
-0.3275
-0.323
-0.32
-0.3215
-0.3285
-0.3295
-0.3265
-0.3255
-0.328
-0.3305
-0.3305
-0.328
-0.3305
-0.3315
-0.3285
-0.327
-0.3285
-0.332
-0.33
-0.327
-0.331
-0.337
-0.335
-0.336
-0.344
-0.345
-0.344
-0.3415
-0.341
-0.3455
-0.349
-0.348
-0.345
-0.348
-0.3455
-0.341
-0.3425
-0.346
-0.35
-0.3495
-0.3465
-0.352
-0.3535
-0.352
-0.36
-0.358
-0.35
-0.3485
-0.3525
-0.355
-0.3525
-0.3495
-0.349
-0.3475
-0.3445
-0.346
-0.348
-0.3465
-0.344
-0.344
-0.3435
-0.3445
-0.3485
-0.345
-0.342
-0.3465
-0.3525
-0.3545
-0.354
-0.358
-0.3565
-0.355
-0.356
-0.3555
-0.3575
-0.357
-0.3595
-0.3615
-0.368
-0.3705
-0.363
-0.3655
-0.3695
-0.372
-0.363
-0.356
-0.358
-0.3525
-0.351
-0.3505
-0.354
-0.3515
-0.349
-0.355
-0.356
-0.357
-0.3575
-0.36
-0.3595
-0.3595
-0.361
-0.3545
-0.351
-0.352
-0.353
-0.35
-0.3495
-0.345
-0.349
-0.3535
-0.346
-0.3505
-0.3545
-0.3505
-0.35
-0.351
-0.3475
-0.3525
-0.357
-0.357
-0.359
-0.3565
-0.361
-0.364
-0.361
-0.3575
-0.36
-0.365
-0.3645
-0.359
-0.3565
-0.3575
-0.3515
-0.355
-0.355
-0.3535
-0.349
-0.348
-0.3565
-0.3535
-0.3555
-0.357
-0.357
-0.353
-0.3425
-0.34
-0.3375
-0.3435
-0.3425
-0.3375
-0.338
-0.333
-0.3335
-0.332
-0.3345
-0.33
-0.3275
-0.336
-0.333
-0.335
-0.337
-0.3435
-0.3425
-0.341
-0.3475
-0.3395
-0.336
-0.338
-0.3385
-0.337
-0.333
-0.3365
-0.339
-0.3405
-0.3375
-0.331
-0.3265
-0.3195
-0.323
-0.328
-0.3215
-0.319
-0.317
-0.313
-0.3155
-0.32
-0.321
-0.321
-0.322
-0.3225
-0.322
-0.315
-0.3145
-0.3175
-0.318
-0.321
-0.3225
-0.3225
-0.318
-0.3145
-0.3095
-0.3035
-0.299
-0.2945
-0.292
-0.2925
-0.294
-0.2965
-0.2995
-0.2975
-0.299
-0.3055
-0.309
-0.312
-0.3125
-0.313
-0.316
-0.3195
-0.3295
-0.337
-0.335
-0.339
-0.3495
-0.3535
-0.3555
-0.3555
-0.3515
-0.354
-0.352
-0.3445
-0.344
-0.348
-0.351
-0.348
-0.3505
-0.3555
-0.352
-0.3535
-0.3515
-0.3545
-0.3615
-0.356
-0.3555
-0.356
-0.3545
-0.356
-0.3575
-0.3545
-0.352
-0.3565
-0.3535
-0.3545
-0.358
-0.3555
-0.355
-0.352
-0.353
-0.3465
-0.345
-0.3545
-0.355
-0.358
-0.358
-0.36
-0.3585
-0.359
-0.3615
-0.3545
-0.3575
-0.3565
-0.3575
-0.3605
-0.3575
-0.3535
-0.354
-0.3555
-0.355
-0.3575
-0.355
-0.354
-0.356
-0.358
-0.36
-0.3565
-0.359
-0.3645
-0.361
-0.358
-0.3555
-0.3575
-0.357
-0.3555
-0.361
-0.3595
-0.3605
-0.367
-0.367
-0.3675
-0.371
-0.372
-0.374
-0.3715
-0.3665
-0.364
-0.358
-0.3535
-0.3495
-0.3435
-0.337
-0.324
-0.3115
-0.3035
-0.2875
-0.27
-0.251
-0.229
-0.2185
-0.2105
-0.197
-0.184
-0.1725
-0.1565
-0.1355
-0.1075
-0.083
-0.06
-0.031
-0.007
0.019
0.0375
0.0465
0.065
0.0755
0.0705
0.068
0.0595
0.044
0.016
-0.024
-0.0505
-0.073
-0.0905
-0.118
-0.1555
-0.1895
-0.223
-0.2425
-0.267
-0.295
-0.322
-0.343
-0.3595
-0.3835
-0.3955
-0.398
-0.4025
-0.405
-0.4045
-0.4
-0.3945
-0.3855
-0.374
-0.357
-0.336
-0.3185
-0.3085
-0.3015
-0.2945
-0.289
-0.2845
-0.284
-0.2815
-0.2795
-0.281
-0.287
-0.29
-0.293
-0.2975
-0.2975
-0.299
-0.3055
-0.3125
-0.3145
-0.318
-0.3205
-0.317
-0.3115
-0.312
-0.3185
-0.32
-0.325
-0.3225
-0.3135
-0.319
-0.3215
-0.319
-0.3205
-0.319
-0.317
-0.3145
-0.316
-0.319
-0.319
-0.316
-0.3155
-0.319
-0.319
-0.322
-0.322
-0.318
-0.3195
-0.315
-0.318
-0.324
-0.3185
-0.316
-0.314
-0.315
-0.3145
-0.3085
-0.312
-0.313
-0.307
-0.3055
-0.301
-0.296
-0.293
-0.2935
-0.2965
-0.3015
-0.3035
-0.2965
-0.2925
-0.2965
-0.3025
-0.3025
-0.2985
-0.3045
-0.3115
-0.3075
-0.3025
-0.3055
-0.305
-0.315
-0.308
-0.304
-0.297
-0.313
-0.304
-0.299
-0.3105
-0.2875
-0.3295
-0.2555
-0.354
-0.221
-0.388
-0.192
-0.4075
-0.174
0.9795
-0.171
-0.4055
-0.1855
-0.379
-0.2175
-0.3505
-0.249
-0.321
-0.2705
-0.2895
-0.2805
-0.276
-0.277
-0.273
-0.2865
-0.279
-0.283
-0.274
-0.279
-0.28
-0.266
-0.255
-0.2575
-0.265
-0.2615
-0.263
-0.259
-0.2535
-0.2525
-0.257
-0.2575
-0.2485
-0.2425
-0.238
-0.2395
-0.2405
-0.243
-0.241
-0.242
-0.2455
-0.2365
-0.2325
-0.235
-0.234
-0.2265
-0.2235
-0.2215
-0.214
-0.2165
-0.2175
-0.2035
-0.203
-0.2095
-0.205
-0.2045
-0.205
-0.204
-0.1975
-0.187
-0.1895
-0.1895
-0.1845
-0.1875
-0.1865
-0.1865
-0.178
-0.171
-0.177
-0.1685
-0.167
-0.1695
-0.163
-0.1625
-0.161
-0.156
-0.148
-0.147
-0.15
-0.151
-0.1465
-0.1445
-0.149
-0.1475
-0.148
-0.148
-0.1475
-0.1495
-0.1535
-0.1535
-0.15
-0.149
-0.1505
-0.151
-0.149
-0.147
-0.15
-0.1535
-0.1495
-0.145
-0.145
-0.151
-0.1525
-0.148
-0.1545
-0.1625
-0.159
-0.1635
-0.163
-0.1595
-0.1665
-0.1655
-0.1675
-0.1675
-0.166
-0.1785
-0.187
-0.191
-0.1935
-0.192
-0.195
-0.1975
-0.191
-0.192
-0.196
-0.2005
-0.2015
-0.2035
-0.209
-0.2115
-0.2185
-0.224
-0.225
-0.2295
-0.235
-0.234
-0.2365
-0.2415
-0.2445
-0.2475
-0.248
-0.2535
-0.257
-0.2605
-0.258
-0.2555
-0.2635
-0.2625
-0.261
-0.2585
-0.263
-0.269
-0.269
-0.269
-0.2675
-0.266
-0.2655
-0.2705
-0.2685
-0.2675
-0.273
-0.2795
-0.2855
-0.2875
-0.2865
-0.287
-0.287
-0.2875
-0.285
-0.2865
-0.2895
-0.286
-0.287
-0.292
-0.289
-0.2865
-0.293
-0.2955
-0.2955
-0.2935
-0.2955
-0.2975
-0.2965
-0.2955
-0.2925
-0.2965
-0.2975
-0.295
-0.2985
-0.2995
-0.297
-0.2965
-0.294
-0.2935
-0.2925
-0.296
-0.3015
-0.3005
-0.3005
-0.2965
-0.299
-0.3
-0.3105
-0.3195
-0.309
-0.307
-0.2965
-0.3165
-0.292
-0.328
-0.2865
-0.3385
-0.283
-0.341
-0.296
-0.308
-0.3455
-0.21
-0.55
0.7025
0.42
-0.584
-0.1565
-0.3925
-0.257
-0.3285
-0.3085
-0.3015
-0.3295
-0.2945
-0.3225
-0.2915
-0.3225
-0.306
-0.3115
-0.3005
-0.3105
-0.315
-0.3125
-0.3105
-0.316
-0.314
-0.3145
-0.314
-0.3025
-0.3
-0.302
-0.3055
-0.31
-0.3105
-0.31
-0.3135
-0.315
-0.314
-0.314
-0.309
-0.3105
-0.314
-0.319
-0.3155
-0.3065
-0.3095
-0.308
-0.3105
-0.3095
-0.3095
-0.314
-0.308
-0.308
-0.309
-0.3075
-0.3105
-0.31
-0.3035
-0.2965
-0.292
-0.2995
-0.305
-0.295
-0.302
-0.3055
-0.294
-0.2915
-0.2955
-0.2975
-0.298
-0.296
-0.2915
-0.292
-0.298
-0.295
-0.2905
-0.2955
-0.2935
-0.2945
-0.299
-0.297
-0.3015
-0.3025
-0.297
-0.2945
-0.2935
-0.2945
-0.299
-0.3015
-0.3025
-0.3005
-0.2945
-0.293
-0.294
-0.2905
-0.29
-0.293
-0.2955
-0.297
-0.301
-0.297
-0.294
-0.2905
-0.286
-0.294
-0.2935
-0.292
-0.2885
-0.2865
-0.2935
-0.2935
-0.2905
-0.2935
-0.2975
-0.292
-0.292
-0.2925
-0.287
-0.2895
-0.29
-0.2945
-0.286
-0.302
-0.291
-0.301
-0.2755
-0.2985
-0.2795
-0.3045
-0.299
-0.275
-0.3265
-0.2355
-0.395
-0.1345
-0.5555
0.2785
0.8305
-0.4875
-0.251
-0.3125
-0.339
-0.28
-0.3505
-0.275
-0.344
-0.2875
-0.335
-0.2975
-0.324
-0.3105
-0.3055
-0.3115
-0.3095
-0.3075
-0.305
-0.31
-0.312
-0.31
-0.3245
-0.3045
-0.3325
-0.2875
-0.346
-0.274
-0.3525
-0.281
-0.341
-0.3165
-0.2545
-0.4965
0.8125
0.2715
-0.556
-0.151
-0.409
-0.241
-0.3395
-0.292
-0.3135
-0.314
-0.293
-0.319
-0.295
-0.317
-0.3
-0.314
-0.3045
-0.3105
-0.304
-0.3065
-0.306
-0.31
-0.3105
-0.312
-0.311
-0.306
-0.304
-0.2985
-0.304
-0.3045
-0.3085
-0.3165
-0.309
-0.3105
-0.3095
-0.313
-0.315
-0.309
-0.3115
-0.3055
-0.305
-0.3135
-0.32
-0.314
-0.3085
-0.3175
-0.3145
-0.307
-0.311
-0.313
-0.3095
-0.309
-0.3145
-0.32
-0.3155
-0.3105
-0.3135
-0.3115
-0.311
-0.32
-0.3155
-0.3105
-0.3135
-0.3135
-0.3165
-0.314
-0.31
-0.315
-0.318
-0.3135
-0.3185
-0.322
-0.3145
-0.322
-0.3265
-0.315
-0.3125
-0.309
-0.313
-0.321
-0.3205
-0.3245
-0.3285
-0.3235
-0.3285
-0.327
-0.323
-0.3095
-0.32
-0.3145
-0.329
-0.3115
-0.3175
-0.3115
-0.299
-0.333
-0.273
-0.361
-0.2265
-0.401
-0.1695
-0.4775
-0.0415
0.9565
-0.304
-0.3625
-0.24
-0.3805
-0.2385
-0.358
-0.2555
-0.327
-0.269
-0.3105
-0.2975
-0.3065
-0.312
-0.3065
-0.3065
-0.2975
-0.296
-0.2835
-0.2815
-0.2795
-0.2745
-0.272
-0.2675
-0.274
-0.2765
-0.269
-0.2745
-0.2815
-0.2795
-0.2795
-0.2845
-0.286
-0.29
-0.2955
-0.297
-0.3035
-0.313
-0.316
-0.3175
-0.3135
-0.3135
-0.315
-0.3145
-0.318
-0.3185
-0.322
-0.325
-0.33
-0.3375
-0.3375
-0.3375
-0.341
-0.338
-0.3285
-0.3245
-0.3305
-0.3305
-0.3285
-0.3295
-0.3315
-0.328
-0.321
-0.323
-0.323
-0.3215
-0.323
-0.325
-0.324
-0.3245
-0.3235
-0.32
-0.325
-0.3215
-0.321
-0.3195
-0.3195
-0.3225
-0.319
-0.3165
-0.3195
-0.325
-0.319
-0.32
-0.3215
-0.32
-0.3235
-0.3255
-0.3285
-0.3265
-0.3245
-0.324
-0.323
-0.3195
-0.319
-0.3185
-0.312
-0.3155
-0.325
-0.329
-0.3255
-0.321
-0.3215
-0.3235
-0.325
-0.3245
-0.325
-0.326
-0.324
-0.3235
-0.334
-0.3405
-0.3365
-0.3375
-0.3365
-0.335
-0.336
-0.328
-0.3255
-0.335
-0.3285
-0.317
-0.3185
-0.316
-0.3095
-0.2965
-0.278
-0.2555
-0.2425
-0.23
-0.2015
-0.185
-0.173
-0.157
-0.146
-0.135
-0.122
-0.101
-0.074
-0.051
-0.0355
-0.0115
0.0085
0.0255
0.0475
0.06
0.0715
0.092
0.095
0.0875
0.075
0.0545
0.043
0.0115
-0.0295
-0.06
-0.076
-0.097
-0.131
-0.168
-0.1965
-0.2125
-0.244
-0.271
-0.287
-0.302
-0.3195
-0.3385
-0.3605
-0.366
-0.366
-0.3695
-0.3585
-0.3555
-0.362
-0.356
-0.339
-0.327
-0.3085
-0.29
-0.278
-0.27
-0.2605
-0.245
-0.243
-0.2375
-0.231
-0.2315
-0.234
-0.2385
-0.232
-0.236
-0.2415
-0.2375
-0.2425
-0.2465
-0.2495
-0.2555
-0.2605
-0.2655
-0.2655
-0.2625
-0.2655
-0.2685
-0.271
-0.2685
-0.263
-0.2725
-0.2815
-0.2805
