ECG
0.0405
0.027
0.024
0.0485
0.078
0.11
0.145
0.174
0.211
0.2665
0.3345
0.3775
0.42
0.4705
0.5015
0.545
0.5895
0.634
0.6905
0.732
0.764
0.7605
0.717
0.6985
0.6895
0.663
0.644
0.6105
0.5815
0.5655
0.5575
0.553
0.497
0.44
0.4045
0.3645
0.3135
0.236
0.1565
0.1005
0.0815
0.0575
0.0045
-0.0255
-0.0265
-0.0435
-0.044
-0.0255
-0.02
-0.003
0.0185
0.034
0.0455
0.061
0.0735
0.0735
0.074
0.076
0.082
0.074
0.0665
0.0665
0.072
0.0855
0.09
0.084
0.0905
0.099
0.0845
0.0755
0.078
0.0705
0.065
0.0745
0.08
0.0775
0.076
0.093
0.107
0.1045
0.098
0.0955
0.098
0.0885
0.081
0.0805
0.085
0.0855
0.0785
0.0815
0.0895
0.086
0.0915
0.0975
0.088
0.0815
0.0785
0.084
0.0835
0.08
0.0905
0.107
0.1085
0.1075
0.1055
0.1005
0.1165
0.1175
0.103
0.094
0.0915
0.09
0.0825
0.0915
0.0895
0.092
0.092
0.075
0.09
0.095
0.0805
0.0835
0.09
0.09
0.0915
0.0955
0.092
0.0875
0.091
0.0935
0.0935
0.1015
0.1065
0.109
0.105
0.0965
0.095
0.092
0.0955
0.097
0.095
0.0935
0.0895
0.094
0.1035
0.107
0.108
0.1165
0.1245
0.121
0.11
0.0985
0.0975
0.1025
0.105
0.099
0.1
0.1045
0.1025
0.1075
0.1025
0.0995
0.1055
0.111
0.1115
0.11
0.112
0.1145
0.114
0.115
0.115
0.112
0.1195
0.1215
0.116
0.1165
0.1155
0.117
0.1125
0.1055
0.1055
0.1025
0.1
0.089
0.0895
0.0995
0.099
0.0955
0.0995
0.107
0.1015
0.0975
0.107
0.111
0.102
0.105
0.1025
0.1075
0.118
0.112
0.1085
0.1175
0.129
0.119
0.1085
0.1105
0.1165
0.114
0.1115
0.114
0.1145
0.1165
0.1145
0.112
0.105
0.104
0.1185
0.1235
0.1165
0.106
0.1
0.097
0.096
0.108
0.111
0.1095
0.1175
0.11
0.0905
0.1005
0.112
0.108
0.1115
0.094
0.088
0.103
0.1075
0.103
0.097
0.098
0.103
0.112
0.1135
0.1075
0.1025
0.0955
0.09
0.0925
0.088
0.0825
0.081
0.076
0.079
0.08
0.0855
0.0815
0.076
0.0825
0.0725
0.0615
0.0625
0.063
0.0655
0.0675
0.084
0.096
0.076
0.067
0.0735
0.073
0.0695
0.07
0.0745
0.0745
0.0555
0.037
0.0255
0.0385
0.059
0.0615
0.0685
0.075
0.082
0.0615
0.045
0.0485
0.049
0.0595
0.0655
0.06
0.061
0.066
0.0645
0.0625
0.0635
0.0695
0.0685
0.0625
0.069
0.073
0.069
0.07
0.062
0.048
0.047
0.0435
0.046
0.0595
0.0675
0.0525
0.04
0.047
0.0445
0.056
0.072
0.08
0.079
0.07
0.0655
0.0635
0.0745
0.0755
0.0675
0.07
0.071
0.071
0.072
0.069
0.0665
0.0705
0.0705
0.063
0.067
0.0815
0.077
0.076
0.0785
0.067
0.0725
0.0795
0.077
0.075
0.081
0.089
0.102
0.1145
0.1075
0.097
0.0835
0.078
0.0905
0.105
0.0955
0.0785
0.08
0.0845
0.0895
0.0945
0.0915
0.0855
0.0945
0.1
0.0815
0.0795
0.0895
0.084
0.089
0.097
0.0995
0.103
0.1045
0.104
0.098
0.0805
0.0855
0.1035
0.099
0.0955
0.0925
0.1035
0.1105
0.098
0.098
0.1035
0.107
0.106
0.105
0.108
0.103
0.094
0.0925
0.098
0.103
0.1065
0.106
0.0985
0.1075
0.1165
0.107
0.1025
0.094
0.093
0.0965
0.0905
0.084
0.089
0.095
0.0925
0.103
0.108
0.1075
0.1105
0.11
0.1065
0.1025
0.1145
0.1235
0.126
0.136
0.122
0.0985
0.099
0.098
0.107
0.107
0.092
0.0895
0.091
0.0945
0.0865
0.0855
0.091
0.0895
0.091
0.0885
0.091
0.091
0.086
0.094
0.1005
0.1015
0.1035
0.102
0.101
0.1065
0.104
0.0945
0.0875
0.088
0.0945
0.0945
0.093
0.091
0.091
0.0875
0.0875
0.0945
0.0915
0.084
0.089
0.1
0.095
0.0955
0.093
0.081
0.082
0.097
0.101
0.0845
0.082
0.08
0.068
0.074
0.083
0.075
0.068
0.072
0.087
0.0905
0.0825
0.0905
0.09
0.067
0.062
0.0815
0.0755
0.066
0.068
0.06
0.051
0.058
0.0695
0.0745
0.0885
0.089
0.088
0.0835
0.0825
0.0815
0.0735
0.0745
0.073
0.077
0.0775
0.0725
0.073
0.0815
0.0765
0.0655
0.066
0.055
0.0525
0.0645
0.08
0.073
0.056
0.059
0.0635
0.068
0.07
0.069
0.069
0.0755
0.0805
0.0755
0.0645
0.0535
0.0735
0.097
0.0875
0.083
0.0855
0.081
0.0695
0.0655
0.073
0.0655
0.06
0.07
0.085
0.08
0.0645
0.061
0.0615
0.071
0.0705
0.0715
0.0785
0.071
0.074
0.0655
0.0545
0.067
0.0735
0.067
0.0735
0.089
0.0815
0.0675
0.078
0.0825
0.0715
0.0615
0.0545
0.0575
0.064
0.071
0.0685
0.063
0.0715
0.07
0.0685
0.071
0.0655
0.064
0.0645
0.0635
0.0635
0.068
0.071
0.0745
0.0725
0.0715
0.0815
0.0825
0.078
0.081
0.0865
0.084
0.079
0.0775
0.082
0.0835
0.079
0.0685
0.0655
0.0755
0.0795
0.0905
0.082
0.055
0.051
0.06
0.0615
0.054
0.0515
0.064
0.0625
0.045
0.053
0.0695
0.073
0.086
0.085
0.077
0.0795
0.0635
0.0495
0.0535
0.06
0.061
0.059
0.0615
0.07
0.077
0.09
0.1025
0.0975
0.0895
0.0805
0.066
0.0525
0.065
0.0735
0.0725
0.0705
0.0725
0.092
0.0905
0.0835
0.075
0.079
0.0885
0.088
0.0875
0.0865
0.084
0.0815
0.0865
0.0835
0.0665
0.0565
0.062
0.0705
0.075
0.0645
0.0545
0.054
0.052
0.056
0.065
0.0745
0.068
0.06
0.074
0.0765
0.081
0.082
0.068
0.0675
0.0665
0.064
0.0675
0.0875
0.0995
0.0995
0.0955
0.083
0.092
0.1
0.091
0.092
0.107
0.0995
0.0925
0.103
0.102
0.13
0.1535
0.1245
0.117
0.135
0.1385
0.1315
0.121
0.1345
0.151
0.141
0.136
0.143
0.1425
0.1395
0.127
0.117
0.1205
0.1145
0.1055
0.12
0.1415
0.139
0.1305
0.137
0.156
0.1575
0.154
0.1715
0.1785
0.162
0.1525
0.1625
0.149
0.144
0.151
0.147
0.151
0.1315
0.123
0.131
0.122
0.1155
0.1215
0.129
0.1355
0.14
0.1365
0.1475
0.152
0.1275
0.111
0.0975
0.088
0.0895
0.089
0.0795
0.0765
0.0805
0.0795
0.0855
0.0815
0.0715
0.0685
0.062
0.0525
0.0505
0.062
0.0635
0.0525
0.0455
0.048
0.0485
0.046
0.048
0.0475
0.058
0.051
0.0395
0.0485
0.05
0.041
0.0465
0.0615
0.0605
0.0625
0.069
0.0755
0.077
0.068
0.049
0.0345
0.028
0.044
0.0625
0.0595
0.0545
0.049
0.0665
0.079
0.064
0.057
0.063
0.067
0.0655
0.071
0.0685
0.0525
0.0425
0.039
0.0375
0.0425
0.038
0.0285
0.0365
0.046
0.0535
0.056
0.054
0.052
0.0455
0.0315
0.011
0.0015
0.005
0.008
0.004
-0.007
-0.017
-0.0155
-0.01
0.004
0.02
0.0265
0.05
0.096
0.136
0.161
0.1845
0.2305
0.2845
0.3285
0.3945
0.447
0.472
0.5145
0.56
0.6005
0.6525
0.691
0.7065
0.6855
0.6565
0.6495
0.6205
0.61
0.6045
0.562
0.544
0.5245
0.507
0.477
0.428
0.391
0.3305
0.273
0.213
0.1405
0.0845
0.056
0.0435
0.025
-0.0145
-0.0605
-0.08
-0.0795
-0.0705
-0.0525
-0.0425
-0.0375
-0.034
-0.0335
-0.022
0.0025
0.0285
0.0445
0.05
0.0455
0.044
0.0405
0.048
0.061
0.0515
0.0415
0.038
0.041
0.0425
0.038
0.047
0.048
0.0495
0.062
0.0505
0.042
0.047
0.0455
0.0455
0.038
0.033
0.0405
0.053
0.0635
0.0645
0.0585
0.0645
0.0585
0.043
0.0445
0.054
0.056
0.0585
0.0715
0.0625
0.0515
0.054
0.053
0.058
0.056
0.049
0.0495
0.0515
0.0495
0.0635
0.082
0.0655
0.0545
0.0615
0.0655
0.0875
0.0885
0.072
0.0635
0.055
0.043
0.03
0.042
0.06
0.0685
0.0655
0.049
0.044
0.045
0.0465
0.0735
0.0815
0.0535
0.0465
0.0535
0.057
0.059
0.067
0.074
0.08
0.077
0.0575
0.0575
0.053
0.0595
0.072
0.065
0.0705
0.0705
0.0695
0.0635
0.0535
0.053
0.0545
0.0615
0.0625
0.061
0.063
0.07
0.067
0.061
0.062
0.074
0.0905
0.0805
0.076
0.0815
0.079
0.0795
0.0795
0.0735
0.0665
0.067
0.0645
0.0605
0.0685
0.094
0.106
0.098
0.099
0.094
0.077
0.07
0.069
0.0635
0.0585
0.057
0.061
0.073
0.0765
0.077
0.0775
0.067
0.073
0.083
0.072
0.065
0.0775
0.084
0.067
0.073
0.0885
0.0845
0.0795
0.0825
0.086
0.071
0.061
0.071
0.072
0.065
0.065
0.0535
0.055
0.0605
0.072
0.0765
0.072
0.0895
0.0925
0.0895
0.0935
0.087
0.0795
0.0865
0.083
0.0825
0.081
0.0825
0.1045
0.097
0.0915
0.0795
0.068
0.084
0.093
0.09
0.0645
0.0555
0.0675
0.078
0.0845
0.0685
0.05
0.0445
0.06
0.061
0.055
0.0635
0.0655
0.0575
0.051
0.0595
0.057
0.054
0.06
0.06
0.058
0.0595
0.06
0.057
0.0505
0.042
0.0435
0.059
0.061
0.0505
0.0455
0.0395
0.0435
0.048
0.04
0.041
0.0375
0.0295
0.038
0.04
0.0305
0.021
0.018
0.017
0.0105
0.015
0.0265
0.031
0.0375
0.0425
0.036
0.0305
0.034
0.026
0.0175
0.0095
-0.001
0.012
0.028
0.0185
0.0255
0.0445
0.0395
0.032
0.0265
0.0275
0.0265
0.02
0.024
0.02
0.0125
0.0255
0.036
0.034
0.023
0.013
0.0205
0.023
0.0235
0.025
0.0295
0.0335
0.0285
0.019
0.016
0.026
0.0405
0.0535
0.033
0.0175
0.036
0.043
0.0435
0.0415
0.036
0.041
0.054
0.0485
0.0305
0.0325
0.033
0.0385
0.048
0.0455
0.059
0.0685
0.057
0.0455
0.0355
0.036
0.047
0.0435
0.051
0.0745
0.073
0.063
0.0505
0.0365
0.03
0.035
0.0485
0.051
0.0535
0.0585
0.057
0.047
0.0365
0.0395
0.0485
0.058
0.0655
0.0595
0.041
0.046
0.069
0.07
0.064
0.059
0.06
0.063
0.063
0.0595
0.056
0.0575
0.054
0.059
0.0575
0.0555
0.057
0.0635
0.0755
0.068
0.065
0.0675
0.066
0.0615
0.06
0.063
0.061
0.061
0.0615
0.0645
0.0585
0.057
0.07
0.066
0.0585
0.054
0.0515
0.0515
0.052
0.0615
0.0605
0.0605
0.064
0.0565
0.054
0.052
0.054
0.0495
0.0455
0.0405
0.051
0.0755
0.087
0.0885
0.0725
0.0585
0.0625
0.065
0.065
0.0685
0.062
0.0525
0.042
0.0465
0.0615
0.074
0.072
0.0645
0.0625
0.054
0.0615
0.0555
0.053
0.0685
0.062
0.0625
0.073
0.072
0.071
0.0725
0.055
0.0395
0.047
0.0505
0.053
0.0585
0.0535
0.053
0.0535
0.048
0.0425
0.0435
0.044
0.0395
0.044
0.0475
0.0565
0.067
0.054
0.046
0.049
0.041
0.049
0.0465
0.039
0.0525
0.0585
0.0645
0.0665
0.0565
0.0415
0.0485
0.0605
0.0585
0.0575
0.047
0.0425
0.044
0.031
0.042
0.0455
0.0285
0.0205
0.029
0.046
0.0355
0.0415
0.0575
0.052
0.045
0.0525
0.05
0.0385
0.04
0.039
0.0345
0.0205
0.026
0.0295
0.0335
0.0465
0.034
0.033
0.0345
0.032
0.041
0.048
0.0495
0.047
0.048
0.033
0.025
0.022
0.0165
0.032
0.034
0.0195
0.0205
0.0345
0.043
0.053
0.044
0.0345
0.048
0.0485
0.036
0.0335
0.0385
0.0345
0.0265
0.027
0.0305
0.0295
0.0235
0.021
0.0315
0.0375
0.0345
0.022
0.007
0.0115
0.0225
0.0155
0.0135
0.032
0.053
0.066
0.0745
0.0785
0.07
0.055
0.047
0.0455
0.04
0.0295
0.028
0.0265
0.0315
0.033
0.0275
0.0295
0.028
0.037
0.0355
0.0295
0.0425
0.0415
0.0375
0.038
0.032
0.0285
0.018
0.017
0.0195
0.0155
0.022
0.0275
0.0345
0.04
0.041
0.037
0.037
0.03
0.034
0.0645
0.0675
0.059
0.058
0.0395
0.0255
0.029
0.0305
0.0345
0.0405
0.032
0.0235
0.0295
0.0255
0.02
0.0295
0.027
0.0325
0.053
0.052
0.0425
0.0445
0.047
0.0495
0.0535
0.0605
0.062
0.053
0.052
0.054
0.0425
0.034
0.033
0.0415
0.0545
0.043
0.038
0.0445
0.0425
0.0405
0.036
0.0325
0.0435
0.059
0.0525
0.039
0.0455
0.0565
0.054
0.046
0.037
0.028
0.021
0.0295
0.0445
0.0425
0.0345
0.0365
0.037
0.0425
0.0565
0.0675
0.0645
0.0555
0.0515
0.0495
0.0555
0.05
0.042
0.038
0.043
0.05
0.0415
0.047
0.063
0.069
0.0675
0.0605
0.048
0.0505
0.059
0.062
0.0625
0.065
0.068
0.079
0.0915
0.0955
0.103
0.0875
0.082
0.098
0.094
0.0925
0.095
0.0965
0.103
0.102
0.0975
0.0865
0.084
0.0895
0.0885
0.094
0.098
0.098
0.0935
0.0985
0.1065
0.106
0.104
0.0995
0.102
0.107
0.103
0.103
0.1085
0.1075
0.1015
0.0985
0.1055
0.111
0.116
0.119
0.1155
0.101
0.1065
0.1225
0.1135
0.1095
0.112
0.1175
0.1365
0.1495
0.142
0.1305
0.1135
0.1015
0.088
0.073
0.0695
0.065
0.074
0.088
0.082
0.072
0.067
0.065
0.069
0.0605
0.058
0.0525
0.037
0.031
0.0225
0.0195
0.018
0.0245
0.0295
0.047
0.047
0.0175
0.0185
0.0255
0.0275
0.0355
0.04
0.039
0.046
0.0525
0.043
0.0355
0.025
0.013
0.005
0.0125
0.0325
0.029
0.0275
0.025
0.0255
0.0325
0.0315
0.039
0.0325
0.028
0.0275
0.0355
0.0485
0.045
0.032
0.0255
0.018
0.0005
0.0095
0.0195
0.0205
0.026
0.0205
0.0235
0.0425
0.0585
0.0545
0.03
0.0285
0.0305
0.018
0.0155
0.01
0.0
-0.0115
-0.014
-0.0165
-0.004
0.002
-0.008
-0.013
-0.022
-0.022
-0.015
0.0015
0.0085
0.0205
0.053
0.085
0.108
0.15
0.2065
0.2425
0.2785
0.3335
0.392
0.422
0.462
0.507
0.5495
0.601
0.6265
0.661
0.6625
0.6275
0.603
0.5675
0.5495
0.5475
0.5305
0.512
0.4945
0.474
0.461
0.4245
0.376
0.3175
0.26
0.1985
0.12
0.0665
0.026
0.0065
-0.008
-0.0585
-0.0975
-0.085
-0.075
-0.071
-0.0665
-0.0805
-0.0725
-0.053
-0.039
-0.0145
-0.003
0.0135
0.0415
0.034
0.0165
0.01
0.006
0.0005
0.006
0.0265
0.028
0.023
0.0295
0.034
0.0305
0.0315
0.034
0.0365
0.0355
0.0345
0.033
0.0235
0.0295
0.038
0.039
0.0485
0.0455
0.029
0.0285
0.0395
0.0405
0.0335
0.0365
0.0365
0.0315
0.0285
0.0265
0.0275
0.014
0.015
0.025
0.023
0.026
0.026
0.0295
0.035
0.035
0.0385
0.0475
0.042
0.035
0.035
0.0295
0.033
0.039
0.05
0.059
0.0545
0.0575
0.0485
0.0445
0.058
0.043
0.0355
0.0535
0.051
0.045
0.043
0.0335
0.045
0.0625
0.0645
0.0545
0.0415
0.022
0.0135
0.019
0.0205
0.036
0.0465
0.0445
0.04
0.0285
0.028
0.046
0.0575
0.064
0.054
0.0475
0.048
0.042
0.0445
0.042
0.0415
0.0455
0.048
0.044
0.0395
0.0445
0.041
0.0355
0.0465
0.051
0.0505
0.053
0.0535
0.051
0.038
0.036
0.0415
0.0405
0.039
0.0355
0.0205
0.016
0.026
0.038
0.0535
0.044
0.0285
0.0225
0.0245
0.033
0.0335
0.036
0.039
0.04
0.046
0.056
0.065
0.059
0.054
0.0535
0.05
0.055
0.057
0.0545
0.0465
0.0535
0.0685
0.0635
0.0645
0.0685
0.0675
0.069
0.065
0.049
0.0385
0.0425
0.0435
0.038
0.046
0.059
0.0605
0.063
0.0685
0.0715
0.071
0.063
0.0615
0.061
0.0535
0.0535
0.047
0.041
0.0505
0.0515
0.0365
0.0275
0.0435
0.068
0.069
0.0735
0.0655
0.0535
0.073
0.071
0.0615
0.051
0.0395
0.0285
0.026
0.034
0.0315
0.043
0.0435
0.028
0.0255
0.022
0.0185
0.0375
0.049
0.037
0.029
0.022
0.0175
0.023
0.0255
0.025
0.0305
0.031
0.023
0.0305
0.0365
0.0355
0.0335
0.025
0.025
0.0375
0.039
0.0275
0.0305
0.019
-0.0015
-0.0075
0.0045
0.0205
0.0105
0.003
0.0055
0.0075
0.0105
0.006
0.0055
0.0155
0.0145
0.014
0.0165
0.0105
0.0155
0.0185
0.017
0.0045
-0.0115
-0.007
0.0
-0.004
-0.0055
0.0015
0.0005
0.0015
0.0045
0.0045
0.0065
0.0085
0.009
0.008
-0.002
-0.0085
-0.002
-0.0065
-0.016
-0.0245
-0.0205
0.0005
0.018
0.0185
0.001
-0.0075
0.006
0.0195
0.0175
0.0185
0.023
0.0315
0.044
0.031
0.0215
0.0245
0.0135
0.0065
-0.0025
0.008
0.0265
0.0145
-0.003
-0.006
-0.002
0.0
0.007
0.011
0.0035
0.0065
0.023
0.0135
0.0145
0.0315
0.0285
0.0275
0.0225
0.02
0.038
0.045
0.039
0.0475
0.049
0.05
0.064
0.0485
0.025
0.0225
0.0275
0.0355
0.036
0.036
0.037
0.037
0.0435
0.0525
0.0495
0.041
0.046
0.043
0.0255
0.036
0.0605
0.056
0.0465
0.038
0.0345
0.0455
0.0495
0.0535
0.0475
0.0395
0.0265
0.0095
0.0165
0.0245
0.026
0.035
0.033
0.035
0.0405
0.036
0.0455
0.05
0.053
0.06
0.0635
0.059
0.058
0.0605
0.0475
0.0475
0.0495
0.046
0.061
0.0635
0.0575
0.048
0.044
0.05
0.0455
0.041
0.0535
0.07
0.065
0.048
0.046
0.051
0.032
0.0275
0.03
0.031
0.0465
0.055
0.058
0.051
0.0405
0.0405
0.0445
0.0425
0.044
0.041
0.0285
0.034
0.048
0.043
0.0485
0.0515
0.052
0.063
0.057
0.049
0.036
0.031
0.0385
0.041
0.041
0.0335
0.034
0.0415
0.045
0.0525
0.0575
0.042
0.028
0.026
0.0185
0.0085
0.0105
0.0275
0.0255
0.0305
0.0435
0.043
0.049
0.048
0.0365
0.038
0.054
0.05
0.0435
0.044
0.0365
0.0425
0.034
0.0275
0.047
0.054
0.0465
0.0375
0.034
0.027
0.0265
0.0335
0.033
0.036
0.031
0.021
0.0215
0.0245
0.0385
0.045
0.046
0.0535
0.0415
0.0275
0.021
0.009
0.0155
0.029
0.016
0.01
0.026
0.0345
0.0445
0.046
0.0475
0.048
0.0335
0.0255
0.021
0.023
0.0285
0.0285
0.031
0.0275
0.018
0.0205
0.031
0.028
0.0225
0.0285
0.0325
0.033
0.0135
0.0
0.006
0.0125
0.0145
0.0155
0.028
0.027
0.0285
0.0335
0.014
-0.001
0.001
0.0165
0.041
0.0405
0.028
0.0315
0.042
0.0545
0.0515
0.0355
0.028
0.023
0.018
0.013
0.0085
0.0165
0.023
0.0255
0.0305
0.0385
0.0405
0.0405
0.0465
0.0375
0.034
0.0425
0.041
0.0345
0.034
0.03
0.0305
0.0395
0.0435
0.035
0.021
0.0195
0.0145
0.0065
0.002
0.005
0.0215
0.026
0.0255
0.0225
0.0135
0.013
0.004
0.001
0.033
0.049
0.0485
0.0625
0.052
0.0305
0.0235
0.027
0.0385
0.0475
0.041
0.0265
0.0175
0.03
0.0445
0.046
0.039
0.028
0.026
0.025
0.0255
0.0245
0.0215
0.021
0.031
0.038
0.035
0.0325
0.036
0.0425
0.0365
0.037
0.0405
0.0305
0.031
0.0255
0.023
0.0275
0.0315
0.044
0.0445
0.0465
0.038
0.0245
0.025
0.0275
0.0215
0.0175
0.0305
0.046
0.056
0.051
0.046
0.05
0.0425
0.029
0.023
0.031
0.0395
0.0335
0.026
0.0265
0.0235
0.024
0.0305
0.028
0.028
0.0345
0.0465
0.0505
0.0435
0.0435
0.048
0.0485
0.046
0.0465
0.038
0.033
0.043
0.04
0.036
0.04
0.0445
0.0375
0.0285
0.0295
0.022
0.033
0.0595
0.069
0.0545
0.043
0.0465
0.042
0.038
0.04
0.0505
0.052
0.051
0.0505
0.0425
0.0575
0.0655
0.07
0.0735
0.06
0.0535
0.056
0.0645
0.0665
0.0805
0.0845
0.0785
0.0945
0.1015
0.0995
0.0995
0.105
0.119
0.117
0.1185
0.124
0.117
0.118
0.11
0.103
0.1015
0.096
0.09
0.088
0.082
0.0765
0.0785
0.075
0.0825
0.084
0.0785
0.081
0.086
0.0945
0.09
0.0915
0.107
0.117
0.1275
0.1305
0.121
0.118
0.1235
0.1275
0.1245
0.122
0.12
0.108
0.108
0.1145
0.0995
0.085
0.0865
0.0975
0.1015
0.109
0.121
0.1075
0.085
0.0695
0.065
0.0685
0.067
0.055
0.044
0.0535
0.0675
0.0675
0.0585
0.048
0.0455
0.041
0.0295
0.0195
0.007
0.008
0.0265
0.034
0.0315
0.0325
0.037
0.0395
0.0285
0.0285
0.039
0.0425
0.029
0.015
0.017
0.0235
0.027
0.0205
0.016
0.0215
0.0235
0.012
0.0085
0.0065
0.0135
0.0335
0.029
0.035
0.0325
0.0205
0.0285
0.0295
0.04
0.041
0.0305
0.033
0.0345
0.03
0.0235
0.02
0.019
0.0165
0.0245
0.028
0.0235
0.0235
0.0125
0.006
0.0105
0.0115
0.0145
0.0195
0.027
0.024
0.0085
-0.0005
-0.007
-0.0205
-0.031
-0.025
-0.022
-0.0305
-0.0375
-0.0355
-0.0255
-0.006
0.006
0.027
0.0485
0.056
0.101
0.1585
0.2135
0.263
0.303
0.3515
0.4065
0.4505
0.483
0.5155
0.555
0.6065
0.6415
0.683
0.693
0.663
0.6365
0.605
0.5925
0.5765
0.5425
0.52
0.509
0.4935
0.465
0.4065
0.35
0.305
0.249
0.189
0.1145
0.043
-0.0005
-0.007
-0.014
-0.0535
-0.0715
-0.0645
-0.0635
-0.0605
-0.063
-0.0535
-0.043
-0.036
-0.022
-0.0155
-0.0115
-0.008
0.008
0.0225
0.0165
0.011
0.012
0.0155
0.0185
0.022
0.018
0.0085
0.013
0.015
0.0205
0.022
0.0145
0.0235
0.0215
0.0085
0.0015
-0.003
-0.012
-0.0155
-0.0155
-0.007
0.012
0.0135
0.013
0.027
0.0355
0.0425
0.049
0.0395
0.0455
0.0555
0.046
0.0375
0.0285
0.0185
0.0095
0.006
0.01
0.023
0.031
0.0255
0.0255
0.041
0.0465
0.0455
0.0435
0.035
0.038
0.037
0.028
0.0325
0.032
0.028
0.022
0.0125
0.014
0.0145
0.0225
0.029
0.0345
0.04
0.0415
0.0465
0.0395
0.0385
0.0455
0.035
0.031
0.0335
0.0215
0.0205
0.0135
0.036
0.0715
0.0565
0.044
0.046
0.048
0.0425
0.037
0.041
0.045
0.049
0.047
0.042
0.038
0.0335
0.0285
0.033
0.0455
0.049
0.0475
0.038
0.0315
0.045
0.051
0.049
0.0435
0.0385
0.0445
0.0415
0.033
0.031
0.0385
0.041
0.0365
0.0355
0.032
0.036
0.0455
0.046
0.038
0.0395
0.0515
0.0615
0.063
0.059
0.0545
0.0505
0.058
0.0465
0.033
0.041
0.0315
0.0205
0.0325
0.032
0.0195
0.027
0.026
0.0275
0.0305
0.0295
0.056
0.0765
0.0715
0.064
0.0495
0.037
0.051
0.061
0.0515
0.042
0.04
0.0425
0.05
0.0525
0.0455
0.0325
0.034
0.052
0.059
0.0625
0.0565
0.0525
0.0495
0.0525
0.066
0.066
0.0645
0.0645
0.0675
0.0605
0.042
0.0295
0.029
0.0345
0.0355
0.034
0.021
0.0205
0.0265
0.0235
0.0305
0.0315
0.0335
0.041
0.031
0.032
0.0395
0.0485
0.0585
0.0535
0.0545
0.06
0.0485
0.0355
0.0295
0.034
0.037
0.026
0.0235
0.0255
0.024
0.019
0.013
0.01
0.008
0.005
0.0085
0.0165
0.016
0.01
0.004
0.0165
0.0235
0.0235
0.0255
0.0195
0.0185
0.007
-0.007
0.0005
0.001
-0.0055
0.0045
0.0005
-0.001
0.002
0.005
0.0135
0.0025
-0.006
0.0015
-0.0105
-0.0305
-0.028
-0.0335
-0.021
-0.002
0.018
0.0385
0.024
0.012
0.0065
-0.008
-0.0175
-0.015
-0.0105
-0.0125
-0.016
-0.0115
-0.0045
0.001
-0.002
-0.0065
-0.005
-0.014
-0.0135
-0.0205
-0.0295
-0.03
-0.0415
-0.03
-0.006
0.0005
-0.0055
-0.0025
0.015
0.0205
0.0245
0.0265
0.018
0.0255
0.0275
0.013
0.0105
0.018
0.012
0.0005
0.0005
-0.004
0.0045
0.0085
-0.001
-0.0115
0.0
0.029
0.027
0.0205
0.0205
0.0255
0.0305
0.0275
0.0225
0.0235
0.034
0.039
0.04
0.029
0.0205
0.018
0.012
0.01
0.01
0.0255
0.036
0.03
0.0275
0.0235
0.0275
0.032
0.026
0.018
0.013
0.022
0.031
0.031
0.0335
0.035
0.0385
0.03
0.0235
0.0265
0.036
0.0475
0.04
0.0325
0.0255
0.025
0.0295
0.0285
0.0305
0.0225
0.0105
-0.003
-0.006
0.007
0.0255
0.0415
0.04
0.0315
0.041
0.057
0.0635
0.0685
0.0465
0.03
0.031
0.029
0.033
0.0325
0.0385
0.037
0.0425
0.055
0.048
0.0395
0.0395
0.0485
0.045
0.039
0.0425
0.0405
0.0455
0.044
0.0455
0.047
0.0445
0.0425
0.028
0.026
0.0395
0.039
0.0365
0.0425
0.036
0.031
0.025
0.017
0.035
0.05
0.044
0.0295
0.02
0.026
0.031
0.0405
0.0445
0.0465
0.047
0.0475
0.048
0.038
0.03
0.0185
0.0125
0.0175
0.023
0.024
0.023
0.018
0.0235
0.035
0.036
0.044
0.047
0.038
0.025
0.0315
0.0495
0.0475
0.0305
0.0235
0.0185
0.014
0.021
0.031
0.043
0.0335
0.0285
0.03
0.029
0.029
0.015
0.0035
-0.002
0.0065
0.0125
0.0175
0.0255
0.0275
0.0355
0.044
0.0515
0.0525
0.03
0.0105
0.015
0.0285
0.032
0.0225
0.026
0.019
0.004
0.006
0.0115
0.0185
0.0265
0.0325
0.0315
0.0255
0.016
0.0085
0.0015
0.0025
0.0095
0.012
0.013
0.009
0.001
-0.0035
0.011
0.021
0.015
0.018
0.02
0.0055
-0.0035
0.0025
0.007
0.0205
0.0255
0.008
0.0015
0.0045
0.0095
0.0125
0.0135
0.0165
0.0255
0.028
0.0165
0.0165
0.0335
0.034
0.0245
0.027
0.0225
0.014
0.019
0.0205
0.0115
0.007
0.0115
0.017
0.0095
0.002
-0.001
-0.0095
-0.002
0.0165
0.0175
0.01
-0.0015
0.0015
0.0195
0.028
0.03
0.0265
0.026
0.025
0.0255
0.0285
0.02
0.0235
0.0335
0.032
0.024
0.0215
0.0345
0.0365
0.029
0.0225
0.0215
0.016
0.001
0.0
0.0105
0.0165
0.016
0.012
0.0215
0.0305
0.0195
0.0185
0.03
0.0415
0.0365
0.031
0.04
0.0515
0.034
-0.0075
-0.005
0.0165
0.0225
0.022
0.028
0.0375
0.03
0.0245
0.023
0.01
0.002
0.002
0.016
0.029
0.029
0.0305
0.0235
0.015
0.022
0.0345
0.036
0.0325
0.033
0.0305
0.0265
0.0245
0.0155
0.017
0.028
0.026
0.03
0.0335
0.027
0.0175
0.0065
0.015
0.022
0.025
0.0305
0.022
0.0275
0.034
0.036
0.0425
0.048
0.0455
0.0345
0.0375
0.0395
0.031
0.0225
0.02
0.0115
0.0055
0.0155
0.019
0.02
0.023
0.0275
0.0335
0.027
0.021
0.026
0.024
0.023
0.023
0.026
0.036
0.0345
0.0225
0.0125
0.0165
0.024
0.0265
0.0295
0.042
0.0475
0.033
0.0225
0.0165
0.013
0.001
0.0035
0.026
0.0355
0.0485
0.0525
0.045
0.043
0.043
0.048
0.049
0.044
0.042
0.0475
0.0595
0.068
0.0675
0.0655
0.0615
0.0615
0.0585
0.0605
0.072
0.0685
0.0675
0.0625
0.056
0.07
0.0795
0.084
0.0855
0.084
0.0945
0.105
0.109
0.1065
0.0935
0.084
0.0855
0.087
0.0815
0.0815
0.085
0.087
0.083
0.088
0.1025
0.0975
0.0955
0.1055
0.112
0.0955
0.0865
0.0985
0.1085
0.111
0.1035
0.108
0.1085
0.1125
0.1195
0.119
0.1135
0.104
0.107
0.1085
0.1075
0.102
0.0975
0.104
0.1095
0.098
0.0895
0.0875
0.0775
0.0575
0.0465
0.0595
0.054
0.0325
0.022
0.038
0.0605
0.0465
0.035
0.051
0.0595
0.0625
0.0595
0.039
0.022
0.0215
0.028
0.017
0.0145
0.0285
0.0235
0.011
0.009
0.018
0.013
0.003
0.0115
0.0215
0.0255
0.018
0.0085
-0.003
-0.018
-0.0135
-0.0045
-0.003
0.0025
0.008
0.012
0.0085
0.0145
0.0225
0.0145
0.004
0.0095
0.0225
0.0195
0.0165
0.024
0.0125
-0.0025
-0.004
-0.0045
-0.0055
0.004
0.0195
0.007
-0.006
-0.007
-0.001
0.0155
0.0195
0.0155
0.005
-0.01
-0.0095
0.0015
0.0145
0.017
0.01
-0.004
-0.0255
-0.034
-0.039
-0.0335
-0.0305
-0.0435
-0.057
-0.058
-0.048
-0.0345
-0.01
0.008
0.036
0.074
0.1055
0.138
0.181
0.2355
0.2865
0.3335
0.383
0.4275
0.4605
0.498
0.5425
0.5865
0.618
0.653
0.6835
0.6725
0.639
0.6225
0.601
0.5755
0.555
0.5105
0.4925
0.49
0.4855
0.4645
0.3965
0.3535
0.311
0.2455
0.175
0.112
0.0635
0.02
0.0
-0.04
-0.0955
-0.109
-0.108
-0.111
-0.103
-0.0875
-0.0725
-0.0715
-0.0505
-0.0295
-0.024
-0.0055
-0.001
-0.005
0.001
0.0065
0.0075
0.0055
-0.0005
0.002
0.0075
0.006
0.0085
0.0105
0.01
0.01
0.01
0.0175
0.0235
0.0205
0.0165
0.006
0.001
0.0115
0.015
0.0055
-0.004
-0.01
-0.008
-0.008
-0.008
0.005
0.0045
-0.01
-0.0025
0.011
0.0255
0.034
0.022
0.017
0.02
0.0135
0.0105
0.0125
0.031
0.0365
0.016
0.0055
-0.0085
-0.002
0.015
0.0215
0.017
0.0
0.001
0.0135
0.018
0.006
-0.01
-0.013
-0.0045
0.008
0.016
0.028
0.036
0.033
0.0175
0.0075
0.012
0.018
0.0245
0.0295
0.0275
0.025
0.0265
0.0215
0.0235
0.0235
0.0185
0.0125
0.0165
0.0305
0.024
0.0115
-0.002
-0.005
0.006
0.008
0.0105
0.015
0.0185
0.0245
0.026
0.017
0.0155
0.017
0.0095
0.0155
0.0195
0.009
0.0195
0.0315
0.02
0.014
0.018
0.034
0.0405
0.0385
0.034
0.029
0.04
0.0385
0.025
0.02
0.0265
0.035
0.0395
0.035
0.0305
0.032
0.0275
0.02
0.0215
0.019
0.01
0.0185
0.0205
0.0185
0.023
0.016
0.0095
0.0215
0.034
0.034
0.0335
0.037
0.029
0.0095
0.0155
0.029
0.032
0.0335
0.055
0.0745
0.0585
0.033
0.0115
0.0135
0.0255
0.0365
0.0415
0.035
0.036
0.0355
0.039
0.042
0.0385
0.0325
0.0295
0.0345
0.0335
0.034
0.033
0.029
0.033
0.0385
0.0405
0.0435
0.035
0.021
0.033
0.042
0.0395
0.034
0.033
0.031
0.019
0.02
0.018
0.009
0.007
0.0115
0.0175
0.027
0.0265
0.0225
0.016
0.0045
0.0065
0.018
0.0215
0.0095
0.0095
0.016
0.021
0.024
0.017
0.0075
0.005
0.009
0.0075
0.0025
0.009
0.015
0.0045
0.01
0.007
-0.0025
0.005
0.0125
0.025
0.021
0.0005
-0.007
-0.0055
-0.0215
-0.0245
-0.0195
-0.02
-0.0175
-0.0135
0.0015
0.005
-0.008
-0.0225
-0.023
-0.019
-0.0185
-0.01
-0.0025
-0.0085
-0.02
-0.019
-0.0155
-0.02
-0.025
-0.019
-0.0215
-0.0305
-0.0255
-0.0255
-0.028
-0.03
-0.032
-0.027
-0.026
-0.0315
-0.031
-0.0215
-0.018
-0.02
-0.0215
-0.0245
-0.0235
-0.0205
-0.0185
-0.0125
-0.0145
-0.0145
-0.006
-0.001
-0.0005
-0.008
-0.0075
-0.013
-0.0245
-0.0295
-0.0195
-0.001
-0.0015
-0.0015
0.0005
0.015
0.0215
0.0055
-0.0045
0.0115
0.027
0.0035
-0.0065
-0.0045
-0.01
-0.0075
-0.001
0.0105
0.016
0.009
0.007
0.0085
0.0045
0.001
0.0025
0.006
0.0035
0.01
0.013
0.012
0.018
0.018
0.0315
0.031
0.013
0.0165
0.009
0.01
0.0255
0.0285
0.0385
0.034
0.0335
0.044
0.042
0.0285
0.017
0.0195
0.0145
0.006
0.016
0.0245
0.027
0.04
0.0465
0.043
0.024
0.001
-0.007
0.0035
0.021
0.027
0.0275
0.018
0.011
0.0185
0.03
0.0265
0.0155
0.0245
0.0345
0.0315
0.0255
0.017
0.0145
0.018
0.0235
0.024
0.023
0.0275
0.034
0.0335
0.032
0.0295
0.022
0.024
0.0265
0.025
0.035
0.0455
0.0415
0.0405
0.03
0.015
0.017
0.0175
0.02
0.019
0.0165
0.0205
0.0245
0.021
0.0285
0.036
0.039
0.0515
0.0485
0.0465
0.054
0.0555
0.0485
0.037
0.0395
0.0325
0.0325
0.0425
0.037
0.0375
0.019
0.014
0.031
0.0355
0.04
0.029
0.019
0.014
0.013
0.019
0.0255
0.0275
0.0185
0.02
0.0195
0.017
0.0205
0.0155
0.013
0.016
0.0135
0.015
0.017
0.0145
0.016
0.0155
0.016
0.015
0.013
0.02
0.027
0.029
0.0245
0.0185
0.017
0.0165
0.0165
0.0165
0.0095
0.0015
0.008
0.015
0.0145
0.0115
0.021
0.04
0.0295
0.0175
0.0195
0.02
0.021
0.0115
0.0215
0.0305
0.02
0.016
0.0165
0.014
0.0155
0.0155
0.009
0.0065
-0.0065
-0.0135
-0.0025
0.0075
0.0045
-0.0035
-0.0045
0.003
0.0075
0.003
0.002
-0.003
0.0015
0.01
0.0055
0.003
0.0075
0.005
-0.0025
-0.0025
-0.0025
-0.005
-0.0065
-0.0065
-0.0115
-0.0115
-0.004
-0.0045
-0.003
0.0045
-0.002
-0.01
0.0
-0.001
-0.008
-0.0125
0.004
0.021
0.024
0.021
0.0025
0.014
0.033
0.026
0.0155
0.006
0.0005
0.005
0.01
0.008
0.012
0.0315
0.039
0.031
0.025
0.024
0.028
0.0235
0.001
-0.0035
0.0005
-0.005
0.001
0.003
0.001
-0.0035
0.004
0.01
0.006
0.005
0.002
0.0075
0.006
-0.0005
0.001
0.0085
0.0215
0.0215
0.01
0.0025
0.003
0.004
0.0035
-0.0005
-0.0045
-0.003
-0.0005
0.007
0.0095
0.011
0.0055
-0.007
0.005
0.0155
0.009
-0.0005
-0.0025
0.008
0.0105
0.0075
0.005
0.0095
0.016
0.0075
0.0
-0.005
-0.0055
-0.002
-0.0105
-0.0185
-0.0185
-0.013
-0.005
0.0085
0.032
0.029
0.017
0.0225
0.024
0.0195
0.0095
0.007
0.012
0.012
0.0065
0.0075
0.0135
0.0145
0.015
0.014
0.0105
0.0065
0.008
0.0145
0.016
0.008
-0.003
-0.0005
0.0105
0.0165
0.0105
0.008
0.0125
0.01
0.009
0.001
-0.003
0.0045
0.0135
0.019
0.0205
0.0155
-0.006
-0.0115
0.002
0.009
0.009
0.004
0.011
0.019
0.021
0.0185
0.014
0.003
-0.005
0.003
0.008
0.017
0.0215
0.0145
0.005
0.0065
0.013
0.0075
0.0105
0.032
0.0445
0.04
0.034
0.021
0.014
0.0145
0.016
0.0205
0.023
0.035
0.0265
0.0055
0.0085
0.0255
0.0425
0.0445
0.0395
0.0425
0.0505
0.0595
0.056
0.035
0.029
0.0375
0.056
0.0645
0.052
0.049
0.052
0.049
0.055
0.071
0.072
0.0655
0.0665
0.0715
0.0765
0.073
0.0725
0.0885
0.095
0.0845
0.0805
0.0755
0.0695
0.0685
0.0645
0.056
0.046
0.041
0.0475
0.0575
0.062
0.073
0.083
0.086
0.105
0.1195
0.113
0.1
0.098
0.1075
0.122
0.1265
0.1165
0.1135
0.115
0.1025
0.0985
0.0995
0.0855
0.0835
0.085
0.089
0.0995
0.098
0.097
0.094
0.079
0.0685
0.061
0.0535
0.051
0.0525
0.04
0.0285
0.027
0.02
0.0185
0.025
0.021
0.004
-0.009
-0.019
-0.013
-0.004
-0.0035
0.0005
-0.006
-0.0085
0.0015
0.0085
0.0005
-0.009
-0.007
0.0045
0.0115
0.002
0.0065
0.005
-0.0015
-0.0005
-0.0015
0.008
0.0045
-0.0015
0.009
0.011
0.0065
0.0035
-0.001
-0.005
-0.0065
-0.0015
-0.0015
0.002
0.001
-0.0035
0.0015
-0.0065
-0.026
-0.0285
-0.032
-0.0415
-0.0395
-0.0375
-0.0235
-0.0025
-0.003
-0.008
-0.004
0.003
0.0115
0.0005
0.0005
0.0075
-0.006
-0.015
-0.0175
-0.023
-0.0195
-0.009
-0.012
-0.0205
-0.0285
-0.0425
-0.0645
-0.073
-0.0575
-0.048
-0.036
-0.02
0.0015
0.0435
0.0705
0.088
0.1205
0.1605
0.2025
0.2515
0.3165
0.3735
0.4235
0.4735
0.516
0.5595
0.611
0.6505
0.6875
0.7015
0.665
0.631
0.613
0.5915
0.57
0.544
0.5165
0.5065
0.496
0.4745
0.4195
0.3585
0.3165
0.2605
0.205
0.135
0.057
0.006
-0.0265
-0.045
-0.0695
-0.1125
-0.131
-0.134
-0.1335
-0.1205
-0.118
-0.1145
-0.0915
-0.0785
-0.083
-0.0765
-0.0535
-0.0285
-0.0145
-0.0195
-0.0295
-0.0235
-0.0165
-0.0135
-0.016
-0.018
-0.0085
-0.0025
0.0015
0.002
-0.007
-0.007
-0.0085
-0.0105
-0.0025
-0.0075
-0.0035
0.0065
0.0035
0.009
0.008
0.0025
-0.007
-0.0055
-0.0035
-0.0065
-0.0035
-0.009
-0.006
-0.0075
-0.009
-0.0025
-0.0055
-0.012
-0.015
-0.017
-0.0065
-0.001
-0.0095
-0.0145
-0.0205
-0.0205
-0.027
-0.0175
-0.012
-0.0245
-0.016
-0.007
-0.0055
-0.0085
-0.01
-0.003
0.0
0.0
0.011
0.0155
0.0075
0.009
0.016
0.009
0.011
0.023
0.01
0.008
0.014
0.001
0.0005
0.01
0.0065
0.01
0.018
0.012
0.013
0.0155
0.0055
-0.0015
0.002
0.009
0.0105
0.0115
0.02
0.019
0.0205
0.025
0.0145
0.002
0.0
0.012
0.009
0.006
0.005
-0.001
0.0065
0.0075
0.0115
0.011
-0.0055
-0.01
-0.0065
-0.001
0.007
0.0115
0.015
0.014
0.0065
0.0055
0.0045
0.006
0.0135
0.009
0.0115
0.0165
0.01
-0.003
-0.005
0.0125
0.0235
0.015
-0.004
0.0095
0.0305
0.019
0.018
0.018
0.009
0.008
0.007
0.0165
0.012
0.0075
0.017
0.0115
0.0105
0.0155
0.0075
0.001
0.0155
0.0305
0.034
0.034
0.0345
0.036
0.032
0.0265
0.024
0.027
0.033
0.0255
0.015
0.0125
0.009
0.0155
0.0115
0.015
0.027
0.016
0.017
0.027
0.0215
0.019
0.0205
0.0215
0.012
-0.0085
-0.0055
0.005
-0.0015
-0.011
-0.0065
0.0055
0.0115
0.017
0.0215
0.0095
0.0035
0.0065
0.004
0.007
0.0165
0.0255
0.0105
0.0065
0.012
0.0065
0.011
0.0125
0.0085
0.008
0.014
0.012
0.012
0.0175
0.0155
0.007
-0.0005
0.006
0.011
0.0105
0.006
-0.0055
-0.015
-0.0255
-0.0295
-0.025
-0.029
-0.038
-0.0335
-0.025
-0.0295
-0.028
-0.0195
-0.0145
-0.023
-0.034
-0.0335
-0.033
-0.0325
-0.029
-0.036
-0.0455
-0.048
-0.0525
-0.0375
-0.0345
-0.036
-0.027
-0.0325
-0.0295
-0.034
-0.035
-0.0325
-0.031
-0.032
-0.035
-0.0325
-0.0465
-0.049
-0.0375
-0.0375
-0.039
-0.0365
-0.032
-0.0305
-0.0325
-0.022
-0.02
-0.03
-0.025
-0.017
-0.009
-0.01
-0.0245
-0.0295
-0.025
-0.016
-0.01
-0.021
-0.0365
-0.0395
-0.035
-0.0355
-0.041
-0.0285
-0.024
-0.028
-0.0275
-0.0345
-0.025
-0.0175
-0.024
-0.019
-0.016
-0.0205
-0.0255
-0.031
-0.0245
-0.0225
-0.024
-0.024
-0.0285
-0.021
-0.0135
-0.0155
-0.017
-0.0225
-0.022
-0.0145
-0.005
-0.004
-0.004
-0.011
-0.002
0.016
0.0075
-0.004
-0.023
-0.0315
-0.0275
-0.0285
-0.03
-0.011
0.0085
0.007
0.01
0.0005
-0.0155
-0.011
-0.001
0.0035
0.003
-0.01
-0.01
0.0145
0.032
0.034
0.018
0.0015
-0.004
0.0
0.0065
-0.0005
0.0015
0.002
-0.004
0.0055
0.019
0.0255
0.022
0.0195
0.014
0.0085
0.0105
0.0105
0.013
0.0055
0.0025
0.0015
0.002
0.0005
-0.007
-0.0005
-0.003
-0.006
-0.0015
-0.008
-0.009
-0.0015
-0.0025
-0.0035
-0.001
0.0
0.0065
0.0055
-0.0055
-0.0165
-0.016
-0.012
-0.0045
0.0005
0.005
0.0125
0.0035
-0.0005
0.0005
0.002
0.005
0.002
0.004
0.0055
-0.0045
-0.01
-0.0015
0.0
-0.0025
-0.001
-0.0065
-0.009
-0.016
-0.0175
-0.0065
0.007
0.0165
0.002
-0.0055
0.0
-0.0075
-0.002
0.0075
0.001
0.0065
0.0085
-0.001
0.006
0.0045
0.0025
0.002
-0.0105
-0.0135
-0.0075
0.006
0.004
0.0015
-0.004
-0.02
-0.006
0.001
-0.013
-0.0215
-0.0175
-0.0145
-0.024
-0.0265
-0.0275
-0.024
-0.018
-0.0155
-0.017
-0.016
-0.006
-0.003
-0.0055
-0.008
-0.0085
-0.01
-0.0135
-0.018
-0.019
-0.017
-0.0255
-0.031
-0.0265
-0.0185
-0.01
-0.0185
-0.0315
-0.029
-0.014
-0.0085
-0.021
-0.0215
-0.0115
-0.0135
-0.0165
-0.0155
-0.0215
-0.0225
-0.016
-0.0185
-0.0205
-0.018
-0.026
-0.042
-0.0385
-0.02
-0.0245
-0.023
-0.013
-0.017
-0.0285
-0.0415
-0.0365
-0.031
-0.0305
-0.0265
-0.0235
-0.0245
-0.036
-0.0325
-0.0195
-0.015
-0.0155
-0.0255
-0.0375
-0.038
-0.037
-0.042
-0.045
-0.0405
-0.0355
-0.029
-0.0255
-0.027
-0.025
-0.022
-0.018
-0.0135
-0.0175
-0.028
-0.035
-0.043
-0.041
-0.0365
-0.0445
-0.06
-0.05
-0.0255
-0.013
-0.0025
0.005
0.0015
-0.014
-0.023
-0.0145
-0.0035
0.005
0.014
-0.0035
-0.027
-0.0345
-0.037
-0.0275
-0.0145
-0.012
-0.017
-0.026
-0.026
-0.023
-0.031
-0.0265
-0.029
-0.041
-0.0195
0.002
0.0005
-0.004
-0.005
-0.0105
-0.0245
-0.025
-0.027
-0.031
-0.0275
-0.0255
-0.0225
-0.021
-0.0145
-0.01
-0.0135
-0.017
-0.022
-0.0215
-0.0135
-0.0115
-0.0085
-0.008
-0.02
-0.0325
-0.0455
-0.048
-0.043
-0.0405
-0.051
-0.066
-0.067
-0.0455
-0.017
-0.016
-0.022
-0.033
-0.0375
-0.0275
-0.02
-0.004
0.0095
-0.0005
-0.018
-0.0305
-0.032
-0.0175
-0.013
-0.0065
-0.0055
-0.018
-0.021
-0.0205
-0.0155
-0.015
-0.012
-0.0095
-0.013
-0.0175
-0.017
-0.0115
-0.022
-0.0355
-0.03
-0.0225
-0.0255
-0.0305
-0.0295
-0.034
-0.033
-0.024
-0.02
-0.0205
-0.023
-0.0165
-0.022
-0.0405
-0.033
-0.024
-0.023
-0.022
-0.0255
-0.0225
-0.022
-0.0185
-0.0125
-0.022
-0.0225
-0.0115
-0.0125
-0.0085
-0.0105
-0.0105
0.0045
0.0205
0.0285
0.0265
0.0245
0.0225
0.0305
0.035
0.032
0.0295
0.016
0.0025
0.0055
0.0115
0.0145
0.0245
0.033
0.039
0.0425
0.0385
0.024
0.001
-0.0345
-0.045
-0.0255
-0.005
0.0215
0.037
0.0495
0.0585
0.0695
0.077
0.065
0.0515
0.042
0.046
0.0465
0.05
0.063
0.0655
0.075
0.074
0.078
0.088
0.079
0.0645
0.0505
0.061
0.071
0.07
0.072
0.059
0.0575
0.057
0.044
0.048
0.051
0.058
0.0585
0.051
0.045
0.0335
0.029
0.0115
-0.001
-0.001
-0.004
-0.009
-0.0195
-0.0305
-0.0465
-0.058
-0.057
-0.0225
-0.0025
-0.0175
-0.026
-0.0225
-0.0175
-0.0275
-0.028
-0.0175
-0.0105
-0.0265
-0.0485
-0.041
-0.022
-0.01
-0.019
-0.034
-0.0465
-0.038
-0.0215
-0.025
-0.0335
-0.0335
-0.0155
-0.0125
-0.0295
-0.0445
-0.048
-0.0415
-0.036
-0.035
-0.0275
-0.0235
-0.0305
-0.031
-0.0285
-0.0155
-0.011
-0.0135
-0.0245
-0.037
-0.046
-0.0485
-0.032
-0.031
-0.038
-0.043
-0.04
-0.0305
-0.0295
-0.0315
-0.0315
-0.0275
-0.0295
-0.034
-0.039
-0.057
-0.0605
-0.056
-0.0665
-0.077
-0.0775
-0.0725
-0.0815
-0.089
-0.097
-0.101
-0.0845
-0.0775
-0.0715
-0.066
-0.0465
-0.0185
-0.0075
0.0295
0.0875
0.1545
0.2035
0.235
0.2905
0.3485
0.401
0.442
0.479
0.545
0.602
0.63
0.6385
0.6145
0.5955
0.5805
0.54
0.5175
0.5015
0.4665
0.454
0.4365
0.42
0.394
0.338
0.2865
0.233
0.193
0.134
0.0645
0.004
-0.0505
-0.0735
-0.1085
-0.1605
-0.1815
-0.17
-0.163
-0.152
-0.1355
-0.121
-0.107
-0.1035
-0.092
-0.0645
-0.046
-0.05
-0.052
-0.051
-0.057
-0.061
-0.0615
-0.058
-0.0535
-0.044
-0.0335
-0.0375
-0.04
-0.036
-0.0375
-0.0375
-0.044
-0.0495
-0.04
-0.031
-0.0275
-0.0415
-0.056
-0.049
-0.0395
-0.044
-0.0475
-0.0425
-0.054
-0.0425
-0.0445
-0.0475
-0.031
-0.0285
-0.0145
-0.0215
-0.0305
-0.034
-0.025
-0.0145
-0.0205
-0.0285
-0.0415
-0.0425
-0.043
-0.0395
-0.0435
-0.035
-0.016
-0.021
-0.015
-0.0065
-0.0085
-0.0175
-0.0305
-0.0305
-0.021
-0.022
-0.03
-0.0335
-0.031
-0.0325
-0.035
-0.0325
-0.031
-0.029
-0.038
-0.0475
-0.051
-0.0405
-0.0365
-0.048
-0.0475
-0.043
-0.0275
-0.018
-0.02
-0.0255
-0.0335
-0.0385
-0.0365
-0.024
-0.0205
-0.025
-0.025
-0.026
-0.033
-0.0465
-0.047
-0.0235
-0.0175
-0.029
-0.036
-0.0345
-0.028
-0.0265
-0.021
-0.0305
-0.044
-0.0255
-0.0055
-0.0185
-0.025
-0.029
-0.04
-0.04
-0.032
-0.019
-0.018
-0.0225
-0.0275
-0.038
-0.05
-0.0405
-0.0265
-0.015
-0.0025
-0.004
-0.0115
-0.0165
-0.013
-0.012
-0.0115
-0.0185
-0.023
-0.0165
-0.023
-0.028
-0.036
-0.0365
-0.0185
-0.0205
-0.0225
-0.012
-0.002
0.0035
-0.0025
-0.007
-0.0035
-0.0035
-0.0085
-0.0215
-0.0285
-0.025
-0.033
-0.0325
-0.026
-0.0335
-0.0415
-0.043
-0.0325
-0.0145
-0.0185
-0.03
-0.0055
0.008
0.0145
0.018
0.011
0.005
-0.015
-0.022
-0.024
-0.018
-0.008
-0.0135
-0.024
-0.023
-0.0085
-0.008
-0.007
-0.0095
-0.0225
-0.01
-0.004
-0.001
0.0155
0.0075
-0.018
-0.0135
-0.0055
-0.0295
-0.0425
-0.039
-0.0305
-0.0335
-0.037
-0.029
-0.0415
-0.0465
-0.047
-0.0455
-0.0315
-0.031
-0.0245
-0.02
-0.024
-0.041
-0.0555
-0.042
-0.0265
-0.0355
-0.043
-0.0375
-0.044
-0.042
-0.039
-0.0435
-0.05
-0.0675
-0.071
-0.0715
-0.0755
-0.076
-0.072
-0.057
-0.056
-0.063
-0.062
-0.057
-0.06
-0.06
-0.06
-0.064
-0.0585
-0.0625
-0.056
-0.051
-0.0665
-0.08
-0.077
-0.067
-0.066
-0.0615
-0.061
-0.0675
-0.0785
-0.081
-0.072
-0.057
-0.0575
-0.0645
-0.058
-0.0605
-0.0695
-0.0745
-0.0775
-0.084
-0.079
-0.0715
-0.0785
-0.07
-0.064
-0.0675
-0.062
-0.0595
-0.063
-0.068
-0.069
-0.0725
-0.0735
-0.075
-0.0665
-0.0575
-0.065
-0.0715
-0.076
-0.072
-0.075
-0.0775
-0.0845
-0.09
-0.078
-0.073
-0.067
-0.0585
-0.0485
-0.0485
-0.035
-0.029
-0.0505
-0.043
-0.0375
-0.0365
-0.0355
-0.0435
-0.046
-0.0485
-0.048
-0.0405
-0.0395
-0.0335
-0.0215
-0.033
-0.0375
-0.031
-0.0315
-0.0305
-0.03
-0.0325
-0.0235
-0.0135
-0.017
-0.006
-0.0045
-0.018
-0.0335
-0.0515
-0.0565
-0.0575
-0.048
-0.042
-0.05
-0.045
-0.037
-0.032
-0.0215
-0.0165
-0.0195
-0.0365
-0.043
-0.042
-0.0555
-0.062
-0.051
-0.0465
-0.052
-0.031
-0.0175
-0.0295
-0.0405
-0.044
-0.0485
-0.053
-0.039
-0.018
-0.018
-0.04
-0.04
-0.034
-0.0335
-0.02
-0.0095
-0.0185
-0.029
-0.0305
-0.03
-0.022
-0.0265
-0.028
-0.022
-0.015
-0.006
-0.0065
-0.005
-0.0035
-0.0055
-0.007
-0.0155
-0.0235
-0.0215
-0.023
-0.02
-0.0265
-0.031
-0.027
-0.037
-0.0295
-0.0235
-0.0325
-0.032
-0.029
-0.0245
-0.0245
-0.0335
-0.037
-0.022
-0.0205
-0.0245
-0.025
-0.0305
-0.0265
-0.0265
-0.0225
-0.02
-0.029
-0.03
-0.0245
-0.031
-0.032
-0.0255
-0.023
-0.018
-0.0145
-0.02
-0.0375
-0.0505
-0.0525
-0.043
-0.039
-0.043
-0.046
-0.0465
-0.03
-0.0255
-0.029
-0.016
-0.007
-0.015
-0.019
-0.026
-0.039
-0.0445
-0.0625
-0.0585
-0.055
-0.07
-0.053
-0.025
-0.013
-0.029
-0.044
-0.0405
-0.039
-0.0415
-0.0375
-0.03
-0.029
-0.0325
-0.037
-0.0385
-0.037
-0.042
-0.043
-0.0385
-0.0445
-0.0495
-0.0455
-0.043
-0.0495
-0.0435
-0.0335
-0.0395
-0.041
-0.04
-0.0405
-0.041
-0.041
-0.0365
-0.032
-0.041
-0.0445
-0.05
-0.0515
-0.0405
-0.04
-0.041
-0.045
-0.0435
-0.042
-0.0445
-0.0505
-0.0535
-0.059
-0.073
-0.076
-0.073
-0.065
-0.0465
-0.03
-0.031
-0.0345
-0.054
-0.0745
-0.063
-0.033
-0.0015
0.001
-0.018
-0.0415
-0.0505
-0.0395
-0.046
-0.0415
-0.025
-0.0325
-0.0375
-0.031
-0.033
-0.03
-0.02
-0.0205
-0.023
-0.0285
-0.038
-0.025
-0.038
-0.0745
-0.0785
-0.0665
-0.0425
-0.0315
-0.0285
-0.031
-0.047
-0.046
-0.0485
-0.061
-0.0565
-0.049
-0.051
-0.0435
-0.042
-0.0435
-0.046
-0.052
-0.0505
-0.0545
-0.055
-0.0545
-0.0375
-0.025
-0.038
-0.0315
-0.021
-0.0245
-0.0225
-0.018
-0.025
-0.0345
-0.0435
-0.045
-0.0475
-0.0515
-0.0515
-0.046
-0.026
-0.025
-0.0305
-0.031
-0.0405
-0.039
-0.034
-0.032
-0.031
-0.0435
-0.044
-0.027
-0.0265
-0.0425
-0.048
-0.037
-0.0335
-0.0355
-0.043
-0.0445
-0.0375
-0.0385
-0.035
-0.034
-0.0355
-0.0295
-0.0255
-0.0375
-0.0465
-0.048
-0.0495
-0.039
-0.04
-0.037
-0.0395
-0.0495
-0.053
-0.055
-0.039
-0.0225
-0.0215
-0.0355
-0.035
-0.0315
-0.03
-0.038
-0.0485
-0.028
-0.0225
-0.03
-0.0355
-0.037
-0.033
-0.0365
-0.0365
-0.036
-0.033
-0.0385
-0.045
-0.03
-0.0245
-0.022
-0.024
-0.035
-0.034
-0.03
-0.0295
-0.033
-0.031
-0.026
-0.025
-0.028
-0.033
-0.035
-0.0285
-0.0225
-0.0365
-0.0385
-0.027
-0.0305
-0.033
-0.026
-0.016
-0.0125
-0.012
-0.013
-0.0065
-0.0045
-0.0205
-0.0265
-0.0345
-0.0505
-0.0295
0.0075
0.0125
0.0035
0.018
0.0295
0.024
0.014
0.001
0.0
-0.006
-0.006
0.0065
0.0155
0.0175
0.018
0.0255
0.036
0.0365
0.031
0.0305
0.0285
0.023
0.026
0.0325
0.025
0.0285
0.0345
0.021
0.0275
0.0375
0.031
0.024
0.0245
0.023
0.0275
0.0335
0.026
0.031
0.049
0.0595
0.057
0.0445
0.0385
0.0425
0.0435
0.0485
0.0535
0.0485
0.0485
0.058
0.059
0.05
0.0435
0.03
0.0245
0.035
0.03
0.0175
0.0165
0.0065
-0.003
0.001
0.003
-0.0035
-0.014
-0.011
-0.0135
-0.026
-0.032
-0.0365
-0.038
-0.0355
-0.034
-0.0375
-0.0395
-0.047
-0.0605
-0.0645
-0.0615
-0.0665
-0.069
-0.0575
-0.0455
-0.038
-0.0445
-0.048
-0.044
-0.0505
-0.0485
-0.052
-0.0565
-0.0465
-0.04
-0.03
-0.029
-0.0345
-0.0445
-0.055
-0.0575
-0.0565
-0.049
-0.044
-0.0405
-0.0255
-0.0075
-0.013
-0.019
-0.016
-0.024
-0.0365
-0.045
-0.0525
-0.0635
-0.062
-0.0435
-0.041
-0.048
-0.0495
-0.053
-0.051
-0.0445
-0.041
-0.0415
-0.041
-0.041
-0.0455
-0.049
-0.0445
-0.056
-0.0735
-0.0745
-0.0695
-0.0755
-0.098
-0.102
-0.1075
-0.117
-0.11
-0.098
-0.077
-0.056
-0.032
-0.0075
0.015
0.0545
0.0985
0.138
0.183
0.229
0.28
0.3225
0.366
0.421
0.4555
0.498
0.539
0.557
0.609
0.613
0.5835
0.565
0.524
0.5045
0.479
0.454
0.4365
0.4115
0.3925
0.3725
0.3125
0.246
0.202
0.155
0.1
0.0405
-0.0035
-0.0445
-0.0685
-0.0955
-0.1445
-0.16
-0.1595
-0.1625
-0.163
-0.159
-0.1495
-0.14
-0.125
-0.115
-0.091
-0.068
-0.063
-0.0615
-0.063
-0.071
-0.0745
-0.0745
-0.064
-0.0435
-0.0485
-0.054
-0.069
-0.0665
-0.042
-0.0505
-0.0485
-0.0415
-0.037
-0.0355
-0.048
-0.048
-0.0545
-0.0585
-0.054
-0.0355
-0.021
-0.0345
-0.033
-0.026
-0.0345
-0.039
-0.034
-0.0425
-0.0435
-0.034
-0.042
-0.0395
-0.0365
-0.037
-0.0375
-0.055
-0.065
-0.06
-0.0485
-0.0365
-0.029
-0.035
-0.036
-0.038
-0.0475
-0.047
-0.054
-0.055
-0.0475
-0.0475
-0.05
-0.053
-0.0655
-0.07
-0.0635
-0.0525
-0.041
-0.044
-0.0355
-0.041
-0.0425
-0.0285
-0.0315
-0.037
-0.0405
-0.0345
-0.0365
-0.035
-0.034
-0.0385
-0.041
-0.0415
-0.0425
-0.047
-0.04
-0.045
-0.04
-0.0325
-0.0275
-0.02
-0.0315
-0.0325
-0.018
-0.003
-0.0005
0.0045
0.0
-0.02
-0.0235
-0.0345
-0.047
-0.043
-0.0475
-0.0605
-0.0625
-0.052
-0.0535
-0.0505
-0.053
-0.0565
-0.0365
-0.0335
-0.0445
-0.035
-0.024
-0.0375
-0.0425
-0.044
-0.037
-0.02
-0.021
-0.03
-0.0435
-0.04
-0.027
-0.0215
-0.0235
-0.032
-0.0295
-0.026
-0.0235
-0.0165
-0.026
-0.034
-0.0215
-0.022
-0.0265
-0.0255
-0.0315
-0.0345
-0.033
-0.0355
-0.031
-0.0265
-0.0345
-0.0375
-0.027
-0.018
-0.0085
-0.0035
-0.0035
-0.0055
-0.0165
-0.0165
-0.0095
-0.003
-0.0055
-0.014
-0.018
-0.023
-0.0175
-0.0185
-0.029
-0.0335
-0.037
-0.032
-0.0285
-0.031
-0.0265
-0.025
-0.025
-0.0235
-0.031
-0.0345
-0.0375
-0.039
-0.0345
-0.025
-0.021
-0.0165
-0.014
-0.0205
-0.0235
-0.022
-0.0255
-0.0415
-0.049
-0.0435
-0.03
-0.022
-0.021
-0.025
-0.0435
-0.048
-0.0315
-0.02
-0.032
-0.0345
-0.0205
-0.02
-0.031
-0.045
-0.051
-0.0325
-0.0265
-0.049
-0.0565
-0.063
-0.068
-0.0575
-0.05
-0.0525
-0.046
-0.0435
-0.06
-0.061
-0.059
-0.058
-0.053
-0.0495
-0.0335
-0.027
-0.026
-0.028
-0.038
-0.04
-0.0445
-0.051
-0.053
-0.0525
-0.0595
-0.0715
-0.0705
-0.063
-0.0715
-0.077
-0.0725
-0.0685
-0.0705
-0.08
-0.0745
-0.0635
-0.0695
-0.0775
-0.069
-0.062
-0.057
-0.0595
-0.07
-0.0715
-0.071
-0.0755
-0.074
-0.0675
-0.0635
-0.0635
-0.0635
-0.0545
-0.062
-0.082
-0.079
-0.0645
-0.07
-0.0665
-0.059
-0.055
-0.039
-0.0315
-0.026
-0.035
-0.0415
-0.0395
-0.0525
-0.062
-0.072
-0.0685
-0.0555
-0.0555
-0.0545
-0.058
-0.0585
-0.055
-0.0405
-0.017
-0.0105
-0.0185
-0.038
-0.044
-0.0485
-0.053
-0.046
-0.049
-0.039
-0.028
-0.0355
-0.0375
-0.0385
-0.038
-0.039
-0.0475
-0.0405
-0.022
-0.016
-0.017
-0.017
-0.0125
-0.008
-0.0075
-0.008
-0.0135
-0.0275
-0.034
-0.037
-0.0405
-0.032
-0.024
-0.0145
-0.0305
-0.0445
-0.031
-0.016
-0.0075
-0.017
-0.0105
-0.002
-0.017
-0.0165
-0.0145
-0.0165
-0.021
-0.029
-0.027
-0.033
-0.0255
-0.023
-0.038
-0.0435
-0.0345
-0.0215
-0.017
-0.015
-0.018
-0.018
-0.0165
-0.0075
-0.004
-0.009
-0.0135
-0.021
-0.02
-0.0225
-0.0265
-0.023
-0.018
-0.015
-0.0165
-0.024
-0.028
-0.0255
-0.0175
-0.0025
0.002
-0.006
-0.011
-0.0095
-0.0175
-0.025
-0.0265
-0.0305
-0.019
-0.0145
-0.0245
-0.0245
-0.0235
-0.0215
-0.018
-0.0285
-0.028
-0.0165
-0.0205
-0.0315
-0.032
-0.0245
-0.029
-0.0265
-0.0265
-0.028
-0.0105
-0.003
-0.0005
-0.0025
-0.0175
-0.02
-0.007
-0.0105
-0.0135
-0.013
-0.0305
-0.0275
-0.004
0.0025
-0.0045
-0.0135
-0.02
-0.021
-0.0195
-0.015
-0.0225
-0.031
-0.0325
-0.0435
-0.0455
-0.0405
-0.029
-0.0215
-0.024
-0.003
0.006
-0.015
-0.023
-0.0245
-0.0285
-0.025
-0.0245
-0.034
-0.04
-0.0335
-0.038
-0.0435
-0.0395
-0.0465
-0.038
-0.029
-0.024
-0.0185
-0.0225
-0.016
-0.0095
-0.0225
-0.0395
-0.04
-0.034
-0.034
-0.0325
-0.032
-0.0365
-0.0355
-0.029
-0.025
-0.023
-0.0275
-0.0285
-0.0095
-0.01
-0.0305
-0.0375
-0.0405
-0.0455
-0.0455
-0.0325
-0.0185
-0.023
-0.037
-0.033
-0.023
-0.022
-0.027
-0.049
-0.055
-0.0455
-0.047
-0.0415
-0.0365
-0.0315
-0.0205
-0.022
-0.029
-0.0305
-0.038
-0.0415
-0.0425
-0.052
-0.0585
-0.0625
-0.055
-0.043
-0.0355
-0.0445
-0.058
-0.0385
-0.022
-0.0235
-0.034
-0.039
-0.044
-0.0405
-0.036
-0.042
-0.036
-0.04
-0.0435
-0.047
-0.046
-0.0305
-0.0265
-0.0275
-0.037
-0.0375
-0.0225
-0.0295
-0.0355
-0.029
-0.034
-0.032
-0.029
-0.0395
-0.041
-0.037
-0.033
-0.0345
-0.0325
-0.027
-0.0305
-0.0245
-0.021
-0.0265
-0.0345
-0.0415
-0.0405
-0.0385
-0.03
-0.0225
-0.021
-0.0175
-0.0175
-0.027
-0.0345
-0.0325
-0.034
-0.0425
-0.044
-0.0335
-0.026
-0.034
-0.0455
-0.047
-0.0475
-0.054
-0.045
-0.036
-0.0475
-0.039
-0.0085
-0.001
-0.016
-0.038
-0.0295
-0.0235
-0.035
-0.0245
-0.0255
-0.03
-0.034
-0.035
-0.0275
-0.027
-0.0245
-0.0215
-0.0175
-0.0225
-0.033
-0.0305
-0.034
-0.0315
-0.02
-0.021
-0.025
-0.0345
-0.042
-0.0495
-0.0575
-0.059
-0.048
-0.034
-0.0255
-0.012
-0.015
-0.0285
-0.0315
-0.0305
-0.029
-0.0185
-0.0135
-0.0245
-0.0435
-0.059
-0.055
-0.044
-0.0455
-0.05
-0.0375
-0.023
-0.015
-0.013
-0.029
-0.038
-0.0315
-0.032
-0.0375
-0.0355
-0.0205
-0.01
-0.011
-0.017
-0.0185
-0.021
-0.027
-0.018
-0.0075
-0.0105
-0.017
-0.0185
-0.0145
-0.012
-0.012
-0.011
-0.01
-0.007
-0.0075
-0.0095
-0.013
-0.015
-0.011
-0.003
0.007
0.009
0.014
0.0215
0.0305
0.0385
0.0265
0.012
0.014
0.0125
0.012
0.0345
0.052
0.045
0.0425
0.0495
0.047
0.0415
0.0365
0.0335
0.0345
0.0345
0.037
0.036
0.0255
0.025
0.0385
0.041
0.029
0.022
0.0365
0.037
0.036
0.045
0.045
0.046
0.048
0.0565
0.052
0.0475
0.0555
0.0695
0.074
0.0735
0.0855
0.081
0.072
0.0655
0.05
0.0475
0.0515
0.046
0.0425
0.0415
0.041
0.0375
0.0245
0.017
0.0085
-0.0055
-0.0125
-0.019
-0.021
-0.017
-0.0145
-0.0115
-0.012
-0.021
-0.026
-0.0285
-0.037
-0.0375
-0.0475
-0.05
-0.0385
-0.031
-0.0415
-0.0645
-0.0565
-0.0475
-0.051
-0.0505
-0.039
-0.026
-0.0275
-0.0235
-0.032
-0.042
-0.0455
-0.055
-0.056
-0.053
-0.0375
-0.0365
-0.0525
-0.0505
-0.044
-0.0455
-0.046
-0.036
-0.0305
-0.0375
-0.042
-0.0415
-0.0485
-0.049
-0.045
-0.0435
-0.043
-0.049
-0.06
-0.0565
-0.051
-0.056
-0.0465
-0.047
-0.052
-0.0495
-0.047
-0.0385
-0.033
-0.048
-0.063
-0.0615
-0.0645
-0.057
-0.0485
-0.0435
-0.0405
-0.052
-0.0675
-0.082
-0.0925
-0.096
-0.0985
-0.1055
-0.1245
-0.1265
-0.121
-0.124
-0.1045
-0.08
-0.033
0.0045
0.0295
0.078
0.116
0.165
0.212
0.255
0.315
0.358
0.397
0.4585
0.5135
0.552
0.576
0.5945
0.6125
0.5955
0.575
0.5675
0.537
0.5115
0.489
0.462
0.4485
0.432
0.415
0.369
0.302
0.2505
0.1955
0.1415
0.0915
0.035
-0.017
-0.0435
-0.06
-0.0975
-0.141
-0.1615
-0.168
-0.159
-0.1495
-0.146
-0.1315
-0.1135
-0.1015
-0.1025
-0.094
-0.077
-0.062
-0.057
-0.063
-0.0735
-0.0765
-0.0655
-0.063
-0.0685
-0.0725
-0.066
-0.0585
-0.0585
-0.054
-0.0535
-0.0555
-0.063
-0.0595
-0.0375
-0.0335
-0.0495
-0.0555
-0.05
-0.061
-0.076
-0.0725
-0.058
-0.0445
-0.0475
-0.0465
-0.0435
-0.0515
-0.059
-0.054
-0.0425
-0.036
-0.0345
-0.0355
-0.042
-0.036
-0.024
-0.031
-0.043
-0.0525
-0.0575
-0.0555
-0.0495
-0.0515
-0.0515
-0.0485
-0.053
-0.0565
-0.059
-0.057
-0.0495
-0.0515
-0.0595
-0.05
-0.044
-0.041
-0.04
-0.052
-0.0525
-0.0445
-0.044
-0.0475
-0.0435
-0.041
-0.038
-0.0405
-0.0555
-0.059
-0.0615
-0.0625
-0.0635
-0.063
-0.049
-0.046
-0.054
-0.0555
-0.0505
-0.0465
-0.051
-0.055
-0.0595
-0.058
-0.039
-0.028
-0.0205
-0.027
-0.0475
-0.0575
-0.0545
-0.046
-0.047
-0.0365
-0.0235
-0.036
-0.052
-0.0505
-0.0455
-0.0365
-0.023
-0.0065
-0.009
-0.034
-0.0435
-0.037
-0.0375
-0.044
-0.0445
-0.0475
-0.048
-0.0445
-0.04
-0.0415
-0.0455
-0.043
-0.043
-0.0375
-0.0305
-0.0425
-0.052
-0.038
-0.031
-0.034
-0.0305
-0.0315
-0.0375
-0.037
-0.0335
-0.0405
-0.044
-0.0375
-0.038
-0.045
-0.0475
-0.0435
-0.043
-0.045
-0.0385
-0.036
-0.0385
-0.032
-0.029
-0.0275
-0.034
-0.043
-0.0375
-0.0335
-0.0355
-0.0355
-0.039
-0.0605
-0.063
-0.0525
-0.0595
-0.046
-0.0325
-0.033
-0.0175
-0.006
-0.002
-0.006
-0.026
-0.034
-0.029
-0.0335
-0.038
-0.038
-0.031
-0.0255
-0.029
-0.029
-0.037
-0.047
-0.048
-0.045
-0.046
-0.0435
-0.0315
-0.0315
-0.0325
-0.039
-0.0485
-0.0525
-0.0615
-0.061
-0.0545
-0.0535
-0.052
-0.0525
-0.0545
-0.0625
-0.0475
-0.033
-0.041
-0.038
-0.032
-0.0425
-0.064
-0.0745
-0.0795
-0.0685
-0.061
-0.0685
-0.0685
-0.066
-0.0585
-0.055
-0.0605
-0.0705
-0.074
-0.0685
-0.06
-0.059
-0.0665
-0.075
-0.0845
-0.079
-0.0745
-0.0725
-0.0665
-0.0695
-0.0675
-0.068
-0.0815
-0.1005
-0.104
-0.106
-0.1195
-0.1125
-0.094
-0.083
-0.0795
-0.086
-0.0905
-0.086
-0.088
-0.098
-0.1015
-0.102
-0.093
-0.078
-0.064
-0.0615
-0.069
-0.078
-0.08
-0.081
-0.096
-0.091
-0.0805
-0.084
-0.0875
-0.0835
-0.0765
-0.0765
-0.0785
-0.0795
-0.0725
-0.0615
-0.0695
-0.0745
-0.069
-0.0705
-0.058
-0.051
-0.0565
-0.06
-0.059
-0.054
-0.0535
-0.0535
-0.0575
-0.057
-0.064
-0.071
-0.0625
-0.0505
-0.0455
-0.056
-0.0585
-0.063
-0.0615
-0.049
-0.047
-0.047
-0.055
-0.064
-0.066
-0.0555
-0.0395
-0.0395
-0.05
-0.0565
-0.0545
-0.0455
-0.0345
-0.03
-0.0265
-0.014
-0.017
-0.043
-0.053
-0.044
-0.026
-0.015
-0.0175
-0.0235
-0.026
-0.012
-0.013
-0.0265
-0.023
-0.0255
-0.032
-0.035
-0.044
-0.034
-0.024
-0.023
-0.0225
-0.025
-0.03
-0.041
-0.045
-0.0405
-0.0335
-0.042
-0.047
-0.0415
-0.0455
-0.046
-0.044
-0.0455
-0.0495
-0.0445
-0.04
-0.0365
-0.031
-0.0335
-0.026
-0.021
-0.0235
-0.023
-0.028
-0.0405
-0.0415
-0.0365
-0.0355
-0.0275
-0.024
-0.0295
-0.032
-0.03
-0.027
-0.0205
-0.0215
-0.034
-0.0365
-0.0375
-0.033
-0.027
-0.032
-0.0365
-0.038
-0.0395
-0.0425
-0.0445
-0.042
-0.038
-0.0375
-0.0405
-0.0415
-0.037
-0.039
-0.039
-0.0375
-0.035
-0.0295
-0.023
-0.0205
-0.026
-0.034
-0.0405
-0.033
-0.0325
-0.0435
-0.04
-0.038
-0.037
-0.036
-0.036
-0.0205
-0.0235
-0.0295
-0.036
-0.0555
-0.0605
-0.052
-0.04
-0.036
-0.0405
-0.0445
-0.0365
-0.036
-0.041
-0.035
-0.0355
-0.037
-0.0315
-0.024
-0.0195
-0.025
-0.0265
-0.017
-0.0165
-0.0255
-0.036
-0.0375
-0.0385
-0.044
-0.037
-0.033
-0.0335
-0.034
-0.041
-0.039
-0.0385
-0.0375
-0.037
-0.0425
-0.04
-0.037
-0.0345
-0.039
-0.051
-0.0525
-0.044
-0.041
-0.0385
-0.0385
-0.0415
-0.058
-0.0705
-0.0635
-0.0705
-0.0705
-0.0645
-0.06
-0.056
-0.058
-0.068
-0.072
-0.0635
-0.0575
-0.0435
-0.041
-0.049
-0.044
-0.0375
-0.0405
-0.0455
-0.0515
-0.0575
-0.0585
-0.058
-0.0555
-0.0545
-0.056
-0.0545
-0.06
-0.0545
-0.038
-0.038
-0.043
-0.0475
-0.0475
-0.0505
-0.0555
-0.0535
-0.0545
-0.059
-0.0675
-0.0635
-0.058
-0.0515
-0.0385
-0.052
-0.0685
-0.068
-0.066
-0.0575
-0.047
-0.052
-0.059
-0.057
-0.052
-0.049
-0.047
-0.045
-0.0565
-0.062
-0.054
-0.046
-0.0405
-0.0475
-0.0585
-0.057
-0.047
-0.048
-0.0465
-0.0485
-0.056
-0.0475
-0.058
-0.061
-0.059
-0.076
-0.0715
-0.073
-0.0775
-0.061
-0.0505
-0.0405
-0.039
-0.044
-0.0455
-0.043
-0.039
-0.039
-0.032
-0.0285
-0.026
-0.033
-0.045
-0.0455
-0.052
-0.0645
-0.0605
-0.0455
-0.047
-0.048
-0.0495
-0.039
-0.036
-0.05
-0.052
-0.0535
-0.0445
-0.0385
-0.0445
-0.051
-0.05
-0.045
-0.042
-0.049
-0.0575
-0.0535
-0.0515
-0.0515
-0.049
-0.0515
-0.0475
-0.039
-0.037
-0.0325
-0.039
-0.052
-0.053
-0.056
-0.0595
-0.0495
-0.04
-0.0385
-0.0385
-0.0415
-0.0545
-0.0625
-0.0545
-0.045
-0.0495
-0.0555
-0.0545
-0.05
-0.047
-0.0505
-0.0525
-0.0575
-0.0625
-0.067
-0.0695
-0.0725
-0.0715
-0.0595
-0.049
-0.0505
-0.055
-0.049
-0.058
-0.064
-0.049
-0.0295
-0.023
-0.028
-0.0265
-0.0295
-0.034
-0.0435
-0.0515
-0.0565
-0.0665
-0.0525
-0.0365
-0.044
-0.047
-0.0345
-0.0295
-0.048
-0.0545
-0.041
-0.0305
-0.025
-0.0305
-0.027
-0.0245
-0.0345
-0.0355
-0.0365
-0.036
-0.026
-0.0235
-0.018
-0.0105
-0.011
-0.0055
-0.0015
-0.011
-0.0135
-0.0065
-0.003
-0.005
-0.005
-0.0045
-0.003
0.001
-0.0035
-0.011
-0.016
-0.009
0.001
0.0055
0.0065
0.014
0.019
0.0155
0.013
0.0055
0.0145
0.0395
0.033
0.0015
-0.0075
-0.008
-0.0075
0.0055
0.0195
0.017
0.0085
0.0075
0.0075
0.0155
0.024
0.0265
0.0335
0.043
0.0525
0.0585
0.062
0.0605
0.048
0.039
0.033
0.033
0.038
0.032
0.0255
0.0225
0.0225
0.031
0.0295
0.029
0.035
0.0335
0.033
0.021
0.0095
-0.0095
-0.027
-0.0305
-0.032
-0.0325
-0.0405
-0.04
-0.0405
-0.0565
-0.047
-0.041
-0.0485
-0.041
-0.055
-0.068
-0.0625
-0.055
-0.07
-0.08
-0.072
-0.0705
-0.056
-0.052
-0.0575
-0.066
-0.055
-0.026
-0.028
-0.0435
-0.0505
-0.0485
-0.0435
-0.041
-0.041
-0.056
-0.0695
-0.067
-0.0635
-0.06
-0.055
-0.054
-0.057
-0.057
-0.062
-0.0585
-0.0525
-0.063
-0.0625
-0.0575
-0.0595
-0.0675
-0.072
-0.075
-0.076
-0.068
-0.065
-0.0635
-0.0625
-0.057
-0.044
-0.0365
-0.0405
-0.0515
-0.0635
-0.063
-0.0595
-0.0655
-0.061
-0.078
-0.1015
-0.1005
-0.094
-0.0845
-0.0865
-0.101
-0.112
-0.1115
-0.112
-0.105
-0.0965
-0.092
-0.072
-0.0425
-0.01
0.0275
0.0685
0.103
0.146
0.184
0.2275
0.298
0.3595
0.413
0.456
0.491
0.5545
0.6075
0.629
0.646
0.624
0.584
0.538
0.4945
0.494
0.486
0.474
0.479
0.467
0.445
0.4005
0.3345
0.2735
0.214
0.1615
0.0965
0.033
-0.025
-0.071
-0.0855
-0.1085
-0.149
-0.1755
-0.181
-0.181
-0.176
-0.168
-0.1555
-0.1415
-0.1195
-0.1045
-0.0925
-0.074
-0.072
-0.0695
-0.0745
-0.0845
-0.083
-0.082
-0.086
-0.099
-0.096
-0.0735
-0.057
-0.049
-0.0525
-0.0575
-0.055
-0.0515
-0.0545
-0.059
-0.057
-0.056
-0.06
-0.0585
-0.0505
-0.0455
-0.044
-0.052
-0.0515
-0.0465
-0.0545
-0.0565
-0.063
-0.0655
-0.0595
-0.056
-0.06
-0.0595
-0.0585
-0.067
-0.063
-0.059
-0.0645
-0.0645
-0.061
-0.0565
-0.052
-0.05
-0.0455
-0.052
-0.0605
-0.061
-0.0615
-0.0615
-0.063
-0.061
-0.0515
-0.036
-0.039
-0.054
-0.052
-0.0415
-0.0405
-0.033
-0.0255
-0.032
-0.05
-0.0595
-0.0625
-0.0685
-0.0615
-0.0575
-0.0485
-0.0435
-0.037
-0.0265
-0.0275
-0.0315
-0.044
-0.048
-0.045
-0.0495
-0.049
-0.044
-0.04
-0.038
-0.0285
-0.019
-0.022
-0.017
-0.022
-0.037
-0.038
-0.05
-0.0605
-0.0685
-0.075
-0.0625
-0.0515
-0.054
-0.0525
-0.037
-0.04
-0.0385
-0.0275
-0.0375
-0.042
-0.041
-0.0375
-0.0345
-0.03
-0.029
-0.027
-0.024
-0.0325
-0.0325
-0.025
-0.0205
-0.019
-0.023
-0.03
-0.029
-0.035
-0.0405
-0.0405
-0.044
-0.0355
-0.033
-0.032
-0.021
-0.0235
-0.0275
-0.026
-0.0165
-0.0135
-0.016
-0.019
-0.03
-0.0345
-0.031
-0.029
-0.0295
-0.0185
-0.019
-0.027
-0.025
-0.024
-0.031
-0.038
-0.04
-0.036
-0.04
-0.0455
-0.037
-0.038
-0.039
-0.033
-0.027
-0.027
-0.033
-0.038
-0.044
-0.0365
-0.035
-0.036
-0.0245
-0.0295
-0.0375
-0.0335
-0.035
-0.0395
-0.0465
-0.0525
-0.0515
-0.048
-0.039
-0.0345
-0.0285
-0.017
-0.0265
-0.0375
-0.033
-0.028
-0.023
-0.032
-0.047
-0.0515
-0.0585
-0.0605
-0.0455
-0.038
-0.042
-0.047
-0.048
-0.061
-0.0575
-0.0315
-0.026
-0.035
-0.062
-0.07
-0.056
-0.0485
-0.052
-0.0645
-0.0705
-0.057
-0.042
-0.045
-0.0565
-0.069
-0.0625
-0.059
-0.0635
-0.067
-0.076
-0.0765
-0.0715
-0.0695
-0.072
-0.0735
-0.073
-0.071
-0.075
-0.079
-0.069
-0.064
-0.0775
-0.0895
-0.088
-0.0955
-0.095
-0.078
-0.0755
-0.075
-0.0775
-0.081
-0.079
-0.0815
-0.0845
-0.0855
-0.0835
-0.085
-0.0815
-0.0855
-0.09
-0.0825
-0.082
-0.086
-0.087
-0.0825
-0.075
-0.0715
-0.076
-0.076
-0.0785
-0.0745
-0.0625
-0.069
-0.0715
-0.07
-0.077
-0.0815
-0.082
-0.084
-0.083
-0.079
-0.0665
-0.056
-0.055
-0.0565
-0.066
-0.0785
-0.0855
-0.0665
-0.0595
-0.0595
-0.0535
-0.072
-0.0865
-0.094
-0.081
-0.0725
-0.0735
-0.066
-0.0625
-0.0565
-0.0585
-0.057
-0.054
-0.0575
-0.0625
-0.063
-0.062
-0.0645
-0.0645
-0.0615
-0.054
-0.057
-0.0585
-0.0535
-0.046
-0.0395
-0.049
-0.0565
-0.0525
-0.0475
-0.0435
-0.04
-0.026
-0.0315
-0.0535
-0.0535
-0.042
-0.039
-0.039
-0.037
-0.042
-0.0495
-0.033
-0.003
-0.005
-0.017
-0.033
-0.0415
-0.028
-0.0245
-0.036
-0.049
-0.0485
-0.047
-0.0425
-0.0335
-0.027
-0.0215
-0.0235
-0.026
-0.0215
-0.026
-0.0455
-0.0495
-0.0495
-0.0545
-0.0425
-0.0355
-0.0365
-0.034
-0.0475
-0.0625
-0.068
-0.059
-0.048
-0.05
-0.05
-0.0455
-0.0415
-0.0385
-0.0335
-0.033
-0.034
-0.028
-0.0355
-0.04
-0.0325
-0.034
-0.043
-0.044
-0.0375
-0.0325
-0.0385
-0.0485
-0.0435
-0.047
-0.0465
-0.045
-0.0515
-0.0485
-0.045
-0.039
-0.045
-0.0505
-0.045
-0.0465
-0.051
-0.053
-0.0615
-0.0655
-0.046
-0.0375
-0.044
-0.043
-0.0505
-0.0565
-0.0585
-0.057
-0.055
-0.0555
-0.0595
-0.0735
-0.061
-0.0385
-0.0465
-0.045
-0.044
-0.052
-0.042
-0.026
-0.017
-0.028
-0.033
-0.031
-0.042
-0.0565
-0.0505
-0.0255
-0.0215
-0.0345
-0.0475
-0.0525
-0.0505
-0.0525
-0.059
-0.063
-0.0695
-0.076
-0.065
-0.0485
-0.053
-0.0575
-0.0535
-0.0525
-0.0525
-0.0575
-0.066
-0.0635
-0.0515
-0.044
-0.058
-0.0715
-0.0595
-0.0575
-0.0595
-0.0635
-0.0745
-0.0715
-0.078
-0.09
-0.077
-0.063
-0.063
-0.072
-0.075
-0.0625
-0.06
-0.068
-0.0705
-0.0705
-0.066
-0.063
-0.072
-0.066
-0.063
-0.067
-0.055
-0.0485
-0.0455
-0.044
-0.0455
-0.0555
-0.068
-0.0805
-0.0775
-0.066
-0.067
-0.065
-0.0695
-0.0815
-0.098
-0.1015
-0.078
-0.056
-0.0575
-0.075
-0.0855
-0.078
-0.0625
-0.063
-0.0695
-0.0725
-0.0745
-0.0605
-0.0565
-0.064
-0.0705
-0.0755
-0.0675
-0.0545
-0.0585
-0.067
-0.062
-0.0585
-0.0575
-0.052
-0.068
-0.08
-0.059
-0.06
-0.059
-0.0485
-0.0615
-0.0515
-0.034
-0.0485
-0.062
-0.0585
-0.061
-0.0625
-0.047
-0.042
-0.0565
-0.058
-0.061
-0.063
-0.0495
-0.04
-0.043
-0.053
-0.0575
-0.0595
-0.054
-0.0495
-0.059
-0.0645
-0.073
-0.077
-0.0675
-0.0625
-0.0705
-0.0735
-0.063
-0.0535
-0.049
-0.0445
-0.0445
-0.049
-0.0495
-0.058
-0.0585
-0.052
-0.056
-0.0525
-0.051
-0.0545
-0.052
-0.0475
-0.0445
-0.0415
-0.038
-0.047
-0.0585
-0.0635
-0.0695
-0.0745
-0.0685
-0.0605
-0.0605
-0.0615
-0.073
-0.0795
-0.074
-0.0515
-0.0365
-0.05
-0.0595
-0.0605
-0.059
-0.0545
-0.0605
-0.063
-0.056
-0.0535
-0.0495
-0.0525
-0.0515
-0.044
-0.045
-0.0535
-0.049
-0.0445
-0.055
-0.051
-0.0425
-0.0485
-0.0485
-0.0455
-0.042
-0.025
-0.0255
-0.0395
-0.049
-0.053
-0.047
-0.037
-0.0325
-0.039
-0.0505
-0.054
-0.0485
-0.036
-0.025
-0.021
-0.031
-0.04
-0.0315
-0.0295
-0.028
-0.022
-0.0135
-0.0125
-0.0185
-0.012
-0.009
-0.01
-0.017
-0.0165
-0.0095
0.0005
0.0065
0.014
0.0195
0.0155
0.0305
0.0355
0.018
0.0055
0.005
0.0045
-0.002
-0.011
-0.0015
0.0035
0.004
0.002
-0.0145
-0.012
0.002
0.0175
0.019
0.016
0.0125
0.0045
0.005
0.0115
0.017
0.032
0.0585
0.0605
0.052
0.045
0.0385
0.0365
0.025
0.02
0.0205
0.014
0.01
0.0115
0.0105
0.016
0.0175
0.0055
0.005
0.004
-0.002
0.001
-0.014
-0.0315
-0.0325
-0.0545
-0.054
-0.0445
-0.0595
-0.0595
-0.0465
-0.0315
-0.059
-0.079
-0.0545
-0.0595
-0.077
-0.0795
-0.0685
-0.059
-0.0695
-0.074
-0.0735
-0.0655
-0.0525
-0.058
-0.061
-0.056
-0.0525
-0.0675
-0.072
-0.059
-0.0615
-0.0605
-0.059
-0.0565
-0.061
-0.063
-0.055
-0.058
-0.0615
-0.066
-0.068
-0.073
-0.077
-0.077
-0.069
-0.057
-0.0555
-0.058
-0.063
-0.059
-0.057
-0.0475
-0.045
-0.0635
-0.0695
-0.0735
-0.08
-0.082
-0.0885
-0.098
-0.107
-0.109
-0.1035
-0.091
-0.078
-0.085
-0.09
-0.1
-0.1055
-0.1075
-0.1165
-0.1025
-0.0995
-0.11
-0.1175
-0.1285
-0.1225
-0.115
-0.117
-0.119
-0.099
-0.0555
-0.0385
-0.0065
0.04
0.0875
0.1505
0.2085
0.2655
0.3105
0.3385
0.3605
0.4115
0.479
0.538
0.569
0.591
0.591
0.56
0.5425
0.5165
0.4985
0.492
0.473
0.4655
0.4545
0.4195
0.387
0.328
0.268
0.228
0.1735
0.1225
0.059
-0.0075
-0.0585
-0.0865
-0.101
-0.143
-0.176
-0.179
-0.183
-0.1775
-0.1735
-0.1675
-0.155
-0.14
-0.121
-0.1205
-0.1105
-0.1005
-0.097
-0.094
-0.1055
-0.111
-0.1125
-0.1115
-0.1025
-0.0855
-0.0815
-0.0785
-0.074
-0.0825
-0.073
-0.0685
-0.0745
-0.062
-0.049
-0.0545
-0.073
-0.077
-0.0735
-0.074
-0.0615
-0.0555
-0.0525
-0.0555
-0.0615
-0.059
-0.0565
-0.0545
-0.054
-0.047
-0.053
-0.067
-0.066
-0.059
-0.0645
-0.0745
-0.081
-0.081
-0.0725
-0.0665
-0.0685
-0.076
-0.0685
-0.06
-0.0685
-0.078
-0.079
-0.0805
-0.0775
-0.0655
-0.069
-0.075
-0.067
-0.062
-0.068
-0.0665
-0.0625
-0.057
-0.056
-0.066
-0.0595
-0.065
-0.0745
-0.069
-0.067
-0.063
-0.0665
-0.0715
-0.08
-0.0735
-0.0665
-0.072
-0.066
-0.0665
-0.069
-0.0705
-0.0685
-0.0735
-0.082
-0.082
-0.084
-0.0825
-0.0755
-0.0705
-0.0675
-0.0525
-0.049
-0.049
-0.048
-0.0605
-0.052
-0.045
-0.055
-0.0595
-0.065
-0.0725
-0.0655
-0.064
-0.0585
-0.045
-0.0535
-0.054
-0.0605
-0.069
-0.0685
-0.083
-0.089
-0.0775
-0.0635
-0.055
-0.0615
-0.0625
-0.047
-0.048
-0.0525
-0.0445
-0.039
-0.0445
-0.0475
-0.05
-0.0635
-0.07
-0.065
-0.0695
-0.072
-0.0615
-0.0575
-0.0555
-0.053
-0.052
-0.056
-0.0555
-0.0505
-0.051
-0.047
-0.05
-0.0475
-0.044
-0.048
-0.0545
-0.051
-0.0385
-0.0515
-0.058
-0.052
-0.0605
-0.061
-0.0575
-0.055
-0.0565
-0.0635
-0.0645
-0.062
-0.053
-0.054
-0.05
-0.044
-0.0485
-0.0485
-0.0545
-0.0545
-0.051
-0.049
-0.0555
-0.0545
-0.0385
-0.0415
-0.053
-0.069
-0.0665
-0.065
-0.0705
-0.069
-0.082
-0.0825
-0.0905
-0.0975
-0.0945
-0.0865
-0.082
-0.084
-0.073
-0.0715
-0.068
-0.0655
-0.068
-0.0725
-0.0735
-0.068
-0.07
-0.0745
-0.0795
-0.079
-0.08
-0.082
-0.086
-0.0885
-0.09
-0.094
-0.0895
-0.084
-0.075
-0.0785
-0.09
-0.092
-0.085
-0.0815
-0.0825
-0.087
-0.0995
-0.094
-0.089
-0.0925
-0.0955
-0.1015
-0.097
-0.094
-0.0905
-0.0935
-0.1095
-0.1225
-0.129
-0.129
-0.1215
-0.1125
-0.119
-0.1255
-0.113
-0.1095
-0.112
-0.1115
-0.114
-0.116
-0.1215
-0.116
-0.1105
-0.1125
-0.128
-0.1335
-0.115
-0.1195
-0.1205
-0.1165
-0.118
-0.114
-0.1255
-0.1235
-0.104
-0.109
-0.1055
-0.096
-0.0985
-0.0955
-0.089
-0.0855
-0.095
-0.101
-0.1135
-0.1235
-0.125
-0.1265
-0.1165
-0.112
-0.108
-0.108
-0.1135
-0.111
-0.1115
-0.1155
-0.1085
-0.101
-0.099
-0.093
-0.0895
-0.097
-0.0935
-0.0775
-0.0765
-0.089
-0.0925
-0.0895
-0.097
-0.0935
-0.0835
-0.074
-0.0685
-0.0775
-0.0875
-0.087
-0.084
-0.0925
-0.0905
-0.0805
-0.078
-0.0775
-0.073
-0.067
-0.064
-0.059
-0.0505
-0.0645
-0.0825
-0.085
-0.0915
-0.089
-0.0915
-0.091
-0.081
-0.073
-0.084
-0.0805
-0.0565
-0.0675
-0.083
-0.084
-0.076
-0.0785
-0.0765
-0.078
-0.1015
-0.0885
-0.087
-0.1005
-0.0995
-0.095
-0.075
-0.077
-0.0785
-0.074
-0.0685
-0.064
-0.067
-0.066
-0.0735
-0.0785
-0.0795
-0.0825
-0.092
-0.0955
-0.0805
-0.071
-0.065
-0.058
-0.0635
-0.066
-0.06
-0.059
-0.053
-0.045
-0.0495
-0.066
-0.0825
-0.068
-0.0555
-0.0695
-0.071
-0.0645
-0.079
-0.0955
-0.095
-0.0895
-0.0835
-0.09
-0.082
-0.0735
-0.079
-0.075
-0.078
-0.0815
-0.0895
-0.088
-0.083
-0.09
-0.0865
-0.0775
-0.063
-0.0525
-0.0515
-0.059
-0.0745
-0.0735
-0.0685
-0.0805
-0.0915
-0.091
-0.0945
-0.0905
-0.078
-0.074
-0.076
-0.0785
-0.082
-0.0795
-0.0725
-0.0685
-0.0665
-0.0685
-0.0745
-0.0745
-0.0725
-0.0785
-0.0805
-0.0785
-0.0725
-0.076
-0.08
-0.0715
-0.076
-0.0825
-0.0735
-0.067
-0.064
-0.059
-0.064
-0.0695
-0.0695
-0.059
-0.051
-0.0685
-0.0795
-0.091
-0.1005
-0.0925
-0.0925
-0.098
-0.097
-0.09
-0.0665
-0.049
-0.057
-0.059
-0.0635
-0.0675
-0.0725
-0.0805
-0.078
-0.0775
-0.0795
-0.077
-0.0715
-0.0755
-0.0925
-0.105
-0.092
-0.092
-0.097
-0.093
-0.09
-0.086
-0.0805
-0.0635
-0.061
-0.054
-0.0525
-0.0715
-0.074
-0.088
-0.1075
-0.1125
-0.1055
-0.1005
-0.083
-0.054
-0.073
-0.083
-0.065
-0.071
-0.0755
-0.071
-0.077
-0.077
-0.075
-0.08
-0.0765
-0.077
-0.0695
-0.0575
-0.054
-0.0575
-0.067
-0.073
-0.082
-0.079
-0.079
-0.085
-0.0815
-0.101
-0.1115
-0.0965
-0.0905
-0.093
-0.083
-0.0855
-0.09
-0.0835
-0.0795
-0.071
-0.077
-0.0835
-0.09
-0.0975
-0.098
-0.0905
-0.0875
-0.0935
-0.0905
-0.083
-0.0855
-0.0905
-0.0835
-0.0835
-0.086
-0.083
-0.077
-0.0785
-0.0865
-0.0865
-0.086
-0.091
-0.086
-0.085
-0.096
-0.096
-0.0865
-0.079
-0.083
-0.092
-0.1
-0.0985
-0.0915
-0.086
-0.0765
-0.0695
-0.07
-0.0775
-0.083
-0.0775
-0.076
-0.074
-0.0675
-0.078
-0.083
-0.0665
-0.0625
-0.0735
-0.075
-0.079
-0.094
-0.092
-0.089
-0.0965
-0.0945
-0.09
-0.092
-0.089
-0.062
-0.0625
-0.0785
-0.0735
-0.0795
-0.085
-0.092
-0.085
-0.0655
-0.066
-0.0725
-0.0735
-0.0725
-0.0825
-0.0965
-0.1035
-0.0955
-0.0815
-0.0755
-0.0765
-0.0825
-0.086
-0.089
-0.0935
-0.0985
-0.0855
-0.0795
-0.0735
-0.07
-0.086
-0.0895
-0.085
-0.063
-0.0635
-0.083
-0.0765
-0.0745
-0.0725
-0.0745
-0.08
-0.069
-0.0625
-0.0725
-0.074
-0.0705
-0.0645
-0.0595
-0.058
-0.043
-0.037
-0.045
-0.0485
-0.048
-0.0565
-0.0675
-0.0775
-0.059
-0.0365
-0.0565
-0.0645
-0.055
-0.0535
-0.053
-0.0405
-0.04
-0.047
-0.03
-0.026
-0.0295
-0.028
-0.033
-0.035
-0.0415
-0.0465
-0.047
-0.054
-0.0435
-0.0335
-0.039
-0.041
-0.0425
-0.0385
-0.0465
-0.038
-0.0165
-0.026
-0.0335
-0.0365
-0.026
-0.01
-0.017
-0.0135
-0.004
-0.0035
0.0015
0.0015
-0.0005
0.0005
-0.001
-0.0005
-0.0085
-0.007
-0.0065
-0.016
-0.006
-0.017
-0.029
-0.0185
-0.0245
-0.023
-0.0255
-0.038
-0.0435
-0.0545
-0.052
-0.0465
-0.0495
-0.057
-0.0705
-0.0715
-0.0785
-0.0935
-0.0955
-0.0915
-0.0855
-0.083
-0.089
-0.0955
-0.099
-0.099
-0.102
-0.1055
-0.099
-0.1005
-0.103
-0.0985
-0.097
-0.0995
-0.1035
-0.11
-0.1155
-0.1095
-0.114
-0.125
-0.112
-0.097
-0.097
-0.1
-0.0995
-0.114
-0.1235
-0.106
-0.0995
-0.0975
-0.0985
-0.1005
-0.0975
-0.0935
-0.0885
-0.0875
-0.0815
-0.079
-0.0865
-0.0905
-0.0935
-0.1025
-0.104
-0.1065
-0.104
-0.101
-0.092
-0.078
-0.0775
-0.0805
-0.08
-0.088
-0.1015
-0.1035
-0.116
-0.138
-0.143
-0.138
-0.1445
-0.1485
-0.156
-0.156
-0.148
-0.157
-0.1555
-0.1475
-0.136
-0.135
-0.127
-0.0925
-0.063
-0.0255
0.0125
0.0595
0.1175
0.1595
0.214
0.265
0.2915
0.3325
0.375
0.4115
0.452
0.472
0.489
0.4835
0.47
0.4665
0.4335
0.4145
0.408
0.3795
0.3575
0.336
0.33
0.321
0.267
0.222
0.1725
0.115
0.057
-0.0195
-0.075
-0.106
-0.127
-0.139
-0.165
-0.192
-0.1975
-0.2055
-0.203
-0.199
-0.194
-0.1785
-0.1655
-0.157
-0.146
-0.131
-0.121
-0.1155
-0.1135
-0.1245
-0.1315
-0.1305
-0.1365
-0.127
-0.1185
-0.1125
-0.111
-0.122
-0.124
-0.125
-0.129
-0.129
-0.1255
-0.122
-0.1205
-0.106
-0.088
-0.0925
-0.107
-0.113
-0.108
-0.1125
-0.121
-0.119
-0.1175
-0.1205
-0.1155
-0.1155
-0.119
-0.104
-0.0995
-0.0915
-0.0885
-0.1
-0.0855
-0.0715
-0.07
-0.072
-0.0865
-0.1045
-0.0985
-0.0835
-0.0755
-0.069
-0.0775
-0.0835
-0.087
-0.097
-0.102
-0.1055
-0.1055
-0.114
-0.1205
-0.115
-0.1045
-0.09
-0.0845
-0.088
-0.101
-0.116
-0.109
-0.0945
-0.1025
-0.0955
-0.087
-0.0865
-0.075
-0.087
-0.095
-0.1005
-0.104
-0.094
-0.0905
-0.0965
-0.108
-0.107
-0.107
-0.113
-0.1165
-0.1145
-0.0985
-0.096
-0.0935
-0.091
-0.089
-0.083
-0.0855
-0.0855
-0.088
-0.0965
-0.0995
-0.096
-0.1005
-0.0955
-0.0905
-0.088
-0.0755
-0.081
-0.106
-0.114
-0.098
-0.0905
-0.0885
-0.081
-0.08
-0.0855
-0.0885
-0.0765
-0.0645
-0.0685
-0.066
-0.0725
-0.0745
-0.0705
-0.0715
-0.0685
-0.0715
-0.071
-0.08
-0.091
-0.0925
-0.088
-0.083
-0.084
-0.078
-0.071
-0.074
-0.0755
-0.078
-0.08
-0.0765
-0.0715
-0.0685
-0.073
-0.0765
-0.0805
-0.0825
-0.0855
-0.089
-0.0795
-0.069
-0.064
-0.076
-0.091
-0.092
-0.089
-0.0875
-0.091
-0.086
-0.087
-0.1015
-0.0995
-0.0645
-0.05
-0.063
-0.064
-0.0725
-0.0785
-0.0775
-0.0735
-0.0775
-0.084
-0.0805
-0.0705
-0.06
-0.0625
-0.0725
-0.075
-0.069
-0.066
-0.074
-0.0735
-0.0655
-0.0825
-0.096
-0.094
-0.089
-0.084
-0.0875
-0.096
-0.103
-0.106
-0.108
-0.098
-0.092
-0.1
-0.109
-0.113
-0.1145
-0.107
-0.0975
-0.097
-0.092
-0.0785
-0.083
-0.095
-0.092
-0.093
-0.0935
-0.096
-0.1015
-0.107
-0.104
-0.0995
-0.1085
-0.114
-0.118
-0.1285
-0.138
-0.139
-0.1285
-0.127
-0.1225
-0.109
-0.1025
-0.106
-0.111
-0.115
-0.1345
-0.1465
-0.1335
-0.1175
-0.1195
-0.1105
-0.1205
-0.151
-0.15
-0.1335
-0.118
-0.121
-0.1275
-0.13
-0.1345
-0.132
-0.13
-0.1335
-0.1225
-0.108
-0.112
-0.1185
-0.119
-0.123
-0.134
-0.138
-0.132
-0.117
-0.1145
-0.1185
-0.116
-0.1165
-0.1155
-0.119
-0.1145
-0.1155
-0.1185
-0.1155
-0.119
-0.1145
-0.109
-0.105
-0.109
-0.1115
-0.105
-0.1105
-0.1165
-0.123
-0.122
-0.116
-0.1105
-0.102
-0.096
-0.099
-0.108
-0.103
-0.101
-0.105
-0.1075
-0.097
-0.0945
-0.1185
-0.127
-0.116
-0.1075
-0.1025
-0.0825
-0.0745
-0.0825
-0.0805
-0.0845
-0.0865
-0.067
-0.059
-0.0685
-0.065
-0.081
-0.107
-0.1045
-0.104
-0.1
-0.098
-0.097
-0.0865
-0.0975
-0.0975
-0.081
-0.0775
-0.081
-0.079
-0.071
-0.0585
-0.0535
-0.071
-0.0835
-0.0805
-0.076
-0.0745
-0.072
-0.0715
-0.078
-0.08
-0.077
-0.081
-0.086
-0.0755
-0.0745
-0.078
-0.0735
-0.0705
-0.071
-0.0645
-0.0555
-0.0635
-0.063
-0.0575
-0.0685
-0.0655
-0.054
-0.062
-0.051
-0.0455
-0.0645
-0.087
-0.108
-0.098
-0.0795
-0.0825
-0.104
-0.1045
-0.0895
-0.087
-0.0715
-0.0565
-0.0625
-0.063
-0.062
-0.0705
-0.0755
-0.083
-0.083
-0.0755
-0.0755
-0.0635
-0.0525
-0.0635
-0.068
-0.0645
-0.074
-0.0845
-0.0825
-0.0755
-0.068
-0.0685
-0.076
-0.072
-0.06
-0.059
-0.058
-0.0585
-0.069
-0.076
-0.082
-0.086
-0.083
-0.0825
-0.082
-0.0815
-0.0835
-0.088
-0.0845
-0.0715
-0.066
-0.063
-0.0645
-0.0645
-0.063
-0.073
-0.0805
-0.0765
-0.067
-0.064
-0.0795
-0.09
-0.0755
-0.0755
-0.1005
-0.1065
-0.0985
-0.096
-0.086
-0.078
-0.077
-0.0735
-0.073
-0.0775
-0.088
-0.09
-0.0795
-0.077
-0.08
-0.0845
-0.091
-0.0885
-0.086
-0.0855
-0.087
-0.088
-0.0905
-0.09
-0.08
-0.0755
-0.0815
-0.0885
-0.091
-0.0915
-0.087
-0.0895
-0.0835
-0.079
-0.081
-0.0735
-0.0775
-0.079
-0.078
-0.0805
-0.086
-0.0895
-0.0835
-0.081
-0.091
-0.089
-0.086
-0.0785
-0.066
-0.067
-0.0695
-0.075
-0.0685
-0.06
-0.0595
-0.066
-0.076
-0.0665
-0.0785
-0.097
-0.091
-0.091
-0.1
-0.105
-0.1135
-0.1075
-0.0915
-0.1015
-0.0975
-0.086
-0.0915
-0.0915
-0.081
-0.0715
-0.0745
-0.0805
-0.0815
-0.0845
-0.091
-0.093
-0.0905
-0.0895
-0.09
-0.0875
-0.0935
-0.0915
-0.0835
-0.0855
-0.0955
-0.1065
-0.098
-0.0915
-0.085
-0.0795
-0.089
-0.095
-0.0955
-0.0975
-0.09
-0.075
-0.078
-0.0815
-0.0815
-0.0825
-0.0795
-0.075
-0.0685
-0.064
-0.059
-0.063
-0.072
-0.08
-0.071
-0.0485
-0.0455
-0.057
-0.0745
-0.0895
-0.0885
-0.088
-0.0945
-0.0865
-0.0925
-0.1035
-0.095
-0.093
-0.0885
-0.083
-0.087
-0.089
-0.0865
-0.092
-0.098
-0.1015
-0.092
-0.0815
-0.078
-0.074
-0.081
-0.081
-0.078
-0.0725
-0.066
-0.0685
-0.075
-0.073
-0.07
-0.0765
-0.0755
-0.072
-0.073
-0.078
-0.079
-0.0775
-0.0785
-0.075
-0.071
-0.065
-0.065
-0.0775
-0.079
-0.0605
-0.048
-0.0595
-0.064
-0.06
-0.0655
-0.069
-0.0755
-0.084
-0.083
-0.083
-0.0755
-0.059
-0.0525
-0.0485
-0.046
-0.0485
-0.0515
-0.046
-0.0465
-0.0425
-0.0475
-0.0785
-0.0895
-0.084
-0.081
-0.0745
-0.062
-0.0465
-0.0465
-0.056
-0.053
-0.052
-0.0645
-0.0715
-0.057
-0.043
-0.0335
-0.0225
-0.0275
-0.036
-0.0385
-0.0385
-0.04
-0.042
-0.023
0.0
0.0025
-0.0055
-0.0165
-0.016
-0.007
0.001
0.0015
-0.004
-0.01
-0.0115
-0.006
-0.0075
-0.013
-0.0175
-0.017
-0.0165
-0.014
-0.0105
-0.0155
-0.0145
-0.01
-0.0145
-0.005
0.0125
0.0135
0.022
0.0285
0.017
0.015
0.016
0.017
0.0165
0.0175
0.0265
0.018
0.0105
0.001
-0.0095
-0.0105
-0.0105
-0.002
-0.004
-0.016
-0.024
-0.029
-0.0225
-0.0225
-0.0395
-0.0475
-0.047
-0.0405
-0.04
-0.0505
-0.0515
-0.0585
-0.076
-0.081
-0.073
-0.0595
-0.0595
-0.0625
-0.0605
-0.0675
-0.073
-0.076
-0.07
-0.064
-0.0715
-0.067
-0.0635
-0.074
-0.0845
-0.087
-0.0955
-0.101
-0.091
-0.0815
-0.0635
-0.057
-0.061
-0.0695
-0.0785
-0.075
-0.0795
-0.0775
-0.0685
-0.0685
-0.067
-0.063
-0.0635
-0.078
-0.0905
-0.089
-0.0905
-0.0955
-0.092
-0.0885
-0.1005
-0.107
-0.1055
-0.1095
-0.0995
-0.0865
-0.0885
-0.097
-0.1085
-0.118
-0.118
-0.1045
-0.0815
-0.0845
-0.1
-0.1085
-0.116
-0.1035
-0.098
-0.1055
-0.1015
-0.0955
-0.103
-0.1375
-0.161
-0.1495
-0.139
-0.1385
-0.143
-0.125
-0.085
-0.0495
-0.022
0.005
0.0365
0.0695
0.113
0.1595
0.2085
0.265
0.315
0.349
0.3985
0.4555
0.503
0.543
0.58
0.592
0.545
0.5165
0.5055
0.4745
0.461
0.4505
0.427
0.41
0.381
0.362
0.3335
0.2825
0.2445
0.184
0.1235
0.0635
-0.004
-0.0535
-0.0815
-0.0985
-0.1285
-0.1765
-0.2095
-0.2105
-0.1905
-0.1775
-0.179
-0.177
-0.1695
-0.1605
-0.1645
-0.159
-0.1325
-0.11
-0.104
-0.0925
-0.0925
-0.094
-0.0875
-0.098
-0.098
-0.0865
-0.078
-0.0795
-0.081
-0.0695
-0.056
-0.0585
-0.0705
-0.072
-0.0715
-0.077
-0.083
-0.084
-0.0785
-0.0845
-0.089
-0.0825
-0.0805
-0.0745
-0.071
-0.0725
-0.0695
-0.0635
-0.0575
-0.054
-0.051
-0.0575
-0.0665
-0.0705
-0.077
-0.076
-0.075
-0.074
-0.0745
-0.0845
-0.084
-0.0765
-0.082
-0.089
-0.083
-0.08
-0.086
-0.083
-0.066
-0.0575
-0.061
-0.0575
-0.057
-0.0625
-0.06
-0.057
-0.061
-0.065
-0.0645
-0.0765
-0.082
-0.0715
-0.0735
-0.0765
-0.078
-0.0795
-0.0855
-0.09
-0.0785
-0.0805
-0.088
-0.0735
-0.056
-0.0635
-0.065
-0.061
-0.0715
-0.076
-0.07
-0.0705
-0.081
-0.072
-0.071
-0.069
-0.0545
-0.0505
-0.052
-0.0485
-0.0475
-0.0495
-0.0355
-0.0355
-0.046
-0.0595
-0.066
-0.064
-0.0705
-0.0635
-0.0535
-0.049
-0.0455
-0.048
-0.05
-0.055
-0.0585
-0.0605
-0.061
-0.0695
-0.0735
-0.0665
-0.0665
-0.0575
-0.0525
-0.052
-0.0545
-0.059
-0.062
-0.0635
-0.0505
-0.045
-0.048
-0.0455
-0.0505
-0.0615
-0.062
-0.0625
-0.0695
-0.0655
-0.073
-0.0825
-0.0675
-0.061
-0.0555
-0.061
-0.0795
-0.069
-0.066
-0.0795
-0.083
-0.067
-0.0455
-0.0375
-0.03
-0.04
-0.054
-0.0555
-0.062
-0.063
-0.0505
-0.0375
-0.0385
-0.0455
-0.0525
-0.0565
-0.0555
-0.0605
-0.0505
-0.0385
-0.048
-0.0545
-0.055
-0.051
-0.041
-0.0415
-0.0475
-0.0485
-0.046
-0.04
-0.0475
-0.0565
-0.0525
-0.0595
-0.0675
-0.0615
-0.0545
-0.056
-0.0625
-0.0635
-0.0545
-0.0525
-0.059
-0.06
-0.0515
-0.0445
-0.045
-0.0525
-0.0645
-0.0765
-0.0835
-0.07
-0.0505
-0.0455
-0.0455
-0.054
-0.0615
-0.0645
-0.0655
-0.07
-0.0795
-0.0895
-0.098
-0.087
-0.0835
-0.089
-0.09
-0.0925
-0.097
-0.1035
-0.0965
-0.0925
-0.093
-0.082
-0.064
-0.0715
-0.085
-0.086
-0.0895
-0.0835
-0.0945
-0.0995
-0.0965
-0.0885
-0.0885
-0.104
-0.091
-0.0915
-0.1035
-0.1075
-0.101
-0.0855
-0.09
-0.0915
-0.0845
-0.0835
-0.0825
-0.0925
-0.0985
-0.0965
-0.0945
-0.0865
-0.084
-0.0915
-0.092
-0.087
-0.0925
-0.1005
-0.099
-0.092
-0.097
-0.0975
-0.0885
-0.077
-0.065
-0.0625
-0.078
-0.09
-0.0865
-0.083
-0.0715
-0.06
-0.0645
-0.0795
-0.0865
-0.0835
-0.0795
-0.0785
-0.0805
-0.0795
-0.083
-0.076
-0.0705
-0.079
-0.0735
-0.069
-0.073
-0.07
-0.0675
-0.0695
-0.075
-0.0775
-0.0745
-0.0665
-0.056
-0.0615
-0.067
-0.0595
-0.0495
-0.0425
-0.053
-0.0655
-0.0725
-0.0765
-0.0785
-0.0775
-0.074
-0.062
-0.041
-0.025
-0.0195
-0.027
-0.0365
-0.0445
-0.049
-0.0445
-0.0365
-0.0305
-0.029
-0.036
-0.0355
-0.0345
-0.038
-0.0445
-0.0475
-0.047
-0.057
-0.049
-0.031
-0.0275
-0.0295
-0.031
-0.025
-0.0295
-0.044
-0.0355
-0.0295
-0.044
-0.052
-0.048
-0.0455
-0.051
-0.0525
-0.056
-0.055
-0.051
-0.05
-0.037
-0.038
-0.047
-0.047
-0.052
-0.049
-0.0395
-0.0405
-0.0355
-0.0345
-0.0495
-0.0515
-0.0535
-0.06
-0.0545
-0.0495
-0.05
-0.036
-0.0205
-0.034
-0.0345
-0.0235
-0.032
-0.0355
-0.0335
-0.0305
-0.038
-0.0405
-0.03
-0.03
-0.045
-0.0475
-0.032
-0.021
-0.0165
-0.0255
-0.0245
-0.0155
-0.0155
-0.0125
-0.0085
-0.009
-0.0135
-0.0215
-0.031
-0.04
-0.0475
-0.0465
-0.039
-0.032
-0.029
-0.025
-0.029
-0.0385
-0.045
-0.0485
-0.039
-0.0335
-0.034
-0.0335
-0.0375
-0.0455
-0.0535
-0.0525
-0.0505
-0.042
-0.034
-0.0385
-0.0405
-0.0375
-0.035
-0.0405
-0.0425
-0.04
-0.046
-0.055
-0.0595
-0.055
-0.0475
-0.0415
-0.034
-0.043
-0.065
-0.0535
-0.0415
-0.0395
-0.0355
-0.0445
-0.0545
-0.0675
-0.076
-0.0845
-0.0695
-0.058
-0.0505
-0.034
-0.0375
-0.0305
-0.032
-0.046
-0.051
-0.0415
-0.037
-0.046
-0.0535
-0.057
-0.0525
-0.048
-0.0495
-0.051
-0.0505
-0.0565
-0.056
-0.0485
-0.0465
-0.05
-0.0455
-0.04
-0.0415
-0.0425
-0.047
-0.0545
-0.058
-0.0525
-0.044
-0.0415
-0.045
-0.0415
-0.042
-0.0475
-0.046
-0.043
-0.0455
-0.054
-0.0605
-0.0585
-0.0515
-0.0435
-0.0235
-0.02
-0.0385
-0.053
-0.062
-0.0555
-0.0525
-0.0535
-0.0475
-0.035
-0.031
-0.036
-0.04
-0.053
-0.0605
-0.0735
-0.0735
-0.0565
-0.053
-0.0535
-0.0585
-0.062
-0.0675
-0.0585
-0.0365
-0.0325
-0.037
-0.0405
-0.0455
-0.0455
-0.043
-0.0475
-0.0545
-0.06
-0.053
-0.0395
-0.043
-0.0465
-0.053
-0.0595
-0.0575
-0.062
-0.0555
-0.0435
-0.035
-0.0355
-0.044
-0.0435
-0.0375
-0.025
-0.02
-0.025
-0.0295
-0.0315
-0.0365
-0.0435
-0.046
-0.053
-0.056
-0.0585
-0.0615
-0.048
-0.035
-0.0325
-0.0285
-0.036
-0.044
-0.0455
-0.049
-0.0365
-0.03
-0.0345
-0.041
-0.0535
-0.0475
-0.0375
-0.035
-0.029
-0.0245
-0.025
-0.0335
-0.041
-0.045
-0.047
-0.0415
-0.043
-0.038
-0.028
-0.022
-0.0145
-0.0275
-0.03
-0.0355
-0.049
-0.046
-0.041
-0.0425
-0.0555
-0.0495
-0.0365
-0.0405
-0.04
-0.0295
-0.0315
-0.0465
-0.052
-0.0475
-0.0445
-0.0315
-0.026
-0.036
-0.0345
-0.029
-0.024
-0.0205
-0.0325
-0.0435
-0.0415
-0.0395
-0.0365
-0.0295
-0.024
-0.0225
-0.03
-0.034
-0.0295
-0.0275
-0.0275
-0.0245
-0.0345
-0.0455
-0.038
-0.0305
-0.0235
-0.025
-0.034
-0.028
-0.0175
-0.0095
-0.0035
-0.005
0.004
0.015
0.0145
0.0105
0.011
0.0225
0.036
0.039
0.031
0.0255
0.021
0.022
0.018
0.018
0.033
0.0315
0.0195
0.0205
0.0415
0.053
0.0415
0.043
0.034
0.0235
0.026
0.0285
0.0395
0.034
0.03
0.0365
0.0315
0.0295
0.04
0.0395
0.029
0.0255
0.029
0.0385
0.0485
0.049
0.0425
0.0465
0.0535
0.055
0.0625
0.07
0.081
0.087
0.089
0.091
0.0765
0.054
0.0465
0.044
0.043
0.051
0.0395
0.019
0.0155
0.0305
0.038
0.0225
-0.001
-0.0105
-0.007
-0.012
-0.0085
-0.0025
-0.005
0.004
0.01
-0.003
-0.004
-0.0075
-0.0275
-0.0335
-0.0315
-0.0345
-0.037
-0.044
-0.047
-0.034
-0.0295
-0.032
-0.032
-0.0405
-0.041
-0.035
-0.0375
-0.0375
-0.045
-0.0495
-0.0475
-0.043
-0.039
-0.0455
-0.0455
-0.046
-0.051
-0.048
-0.0475
-0.042
-0.037
-0.04
-0.045
-0.048
-0.045
-0.044
-0.0525
-0.0455
-0.0345
-0.041
-0.039
-0.034
-0.024
-0.0225
-0.025
-0.029
-0.038
-0.0255
-0.025
-0.035
-0.037
-0.0445
-0.0455
-0.042
-0.043
-0.0355
-0.0245
-0.0205
-0.025
-0.0265
-0.034
-0.0595
-0.073
-0.072
-0.0635
-0.067
-0.0805
-0.0885
-0.0955
-0.088
-0.0845
-0.075
-0.0535
-0.0235
0.02
0.0355
0.0625
0.115
0.1645
0.216
0.2575
0.3025
0.3515
0.4035
0.466
0.506
0.5385
0.582
0.6145
0.6505
0.6555
0.6175
0.585
0.554
0.539
0.531
0.4925
0.4735
0.458
0.439
0.4125
0.336
0.282
0.243
0.1925
0.143
0.0695
0.005
-0.0255
-0.04
-0.065
-0.1025
-0.1275
-0.139
-0.1435
-0.1445
-0.143
-0.135
-0.1075
-0.078
-0.069
-0.0555
-0.0445
-0.041
-0.0325
-0.0395
-0.0485
-0.056
-0.056
-0.0415
-0.042
-0.042
-0.0355
-0.032
-0.0275
-0.0285
-0.031
-0.0325
-0.0315
-0.027
-0.032
-0.0335
-0.0285
-0.023
-0.0225
-0.028
-0.0235
-0.026
-0.0325
-0.031
-0.031
-0.0305
-0.0305
-0.0405
-0.057
-0.0555
-0.043
-0.035
-0.03
-0.0295
-0.0305
-0.04
-0.0385
-0.0355
-0.04
-0.0375
-0.036
-0.0345
-0.0455
-0.043
-0.038
-0.0445
-0.033
-0.0315
-0.0375
-0.0295
-0.0095
-0.011
-0.0255
-0.0295
-0.0295
-0.024
-0.025
-0.0265
-0.0085
0.0095
0.0125
0.012
-0.006
-0.015
-0.008
-0.0025
0.0015
-0.007
-0.0165
-0.0225
-0.017
-0.0105
-0.0235
-0.033
-0.0305
-0.0275
-0.0245
-0.02
-0.0215
-0.021
-0.0165
-0.0175
-0.023
-0.028
-0.0235
-0.0175
-0.021
-0.028
-0.0255
-0.0235
-0.029
-0.0315
-0.0285
-0.0145
-0.012
-0.025
-0.0335
-0.0365
-0.028
-0.029
-0.03
-0.0285
-0.0295
-0.0165
-0.011
-0.0005
0.0045
-0.0025
0.0065
0.0055
-0.004
-0.0125
-0.0155
-0.0095
0.0025
0.013
-0.0015
-0.0135
-0.016
-0.014
-0.0085
-0.0175
-0.021
-0.022
-0.0275
-0.0225
0.003
0.016
0.0
0.0055
0.0155
0.0095
0.0125
0.0195
0.0245
0.025
0.015
0.0155
0.0225
0.005
-0.009
-0.012
-0.0175
-0.012
-0.0035
-0.0085
-0.0145
-0.0055
-0.0045
-0.0095
-0.011
-0.012
-0.004
-0.004
-0.0075
-0.007
-0.006
-0.006
-0.005
-0.002
0.002
0.0015
-0.0025
-0.003
-0.009
-0.0105
-0.009
-0.007
-0.002
-0.018
-0.0345
-0.035
-0.034
-0.0415
-0.0425
-0.0285
-0.004
0.024
0.0225
0.0175
0.023
0.017
0.0095
0.001
0.005
0.003
-0.0155
-0.0205
-0.011
-0.0015
-0.0015
-0.009
-0.014
-0.0105
-0.0135
-0.018
-0.023
-0.027
-0.023
-0.03
-0.0395
-0.042
-0.04
-0.033
-0.0405
-0.0525
-0.041
-0.0315
-0.0415
-0.048
-0.0425
-0.034
-0.0345
-0.041
-0.044
-0.0445
-0.039
-0.045
-0.0615
-0.0595
-0.056
-0.0565
-0.0505
-0.054
-0.0495
-0.032
-0.0395
-0.061
-0.066
-0.0615
-0.056
-0.048
-0.0365
-0.04
-0.055
-0.0585
-0.063
-0.065
-0.0645
-0.064
-0.0465
-0.0335
-0.031
-0.0375
-0.047
-0.0535
-0.0545
-0.0465
-0.044
-0.0405
-0.047
-0.0535
-0.048
-0.0375
-0.0425
-0.0525
-0.0415
-0.041
-0.029
-0.0185
-0.0255
-0.022
-0.0245
-0.027
-0.023
-0.018
-0.0215
-0.024
-0.0135
-0.0135
-0.028
-0.0365
-0.038
-0.0395
-0.0425
-0.048
-0.049
-0.0405
-0.0265
-0.0235
-0.028
-0.0295
-0.021
-0.006
-0.0025
-0.0165
-0.03
-0.0345
-0.033
-0.02
-0.017
-0.0245
-0.0345
-0.0405
-0.0285
-0.006
0.003
0.003
0.0115
-0.0005
-0.01
-0.009
-0.001
0.0085
0.0045
0.0085
0.0115
0.0145
0.011
0.0045
0.0085
0.013
0.0055
-0.002
0.0015
0.006
0.009
0.0075
0.011
0.016
0.01
0.005
0.0105
0.015
0.01
0.0025
-0.0005
0.0015
0.006
0.005
0.004
0.011
0.0125
0.0105
0.0095
0.0025
-0.0005
0.0005
0.0
-0.003
-0.001
0.003
0.011
0.022
0.027
0.0185
0.002
0.0055
0.018
0.0175
0.006
0.01
0.0135
0.0065
-0.0005
-0.0025
0.011
0.015
0.0145
0.023
0.0235
0.015
0.0125
0.0145
0.0105
-0.0035
-0.018
-0.0135
0.002
0.0085
0.0015
-0.003
0.002
-0.0035
-0.0045
0.01
0.0125
0.0025
-0.0085
-0.001
0.0155
0.02
0.0185
0.0215
0.03
0.0325
0.024
0.011
0.0035
0.005
0.005
0.0025
0.003
0.0045
0.0125
0.0205
0.005
0.002
0.0095
-0.001
0.0055
0.007
0.0045
0.004
-0.0125
-0.0175
-0.008
-0.002
-0.0055
0.0015
0.0205
0.0095
-0.0095
0.0
0.0035
0.006
0.01
-0.0015
-0.0135
-0.017
-0.009
-0.002
-0.0025
-0.002
0.0
-0.0025
-0.0015
0.002
0.0005
-0.0025
-0.0065
-0.002
0.0
-0.0025
0.005
0.012
0.0035
-0.0035
-0.003
-0.006
-0.0115
-0.023
-0.0255
-0.009
-0.0005
-0.0015
0.004
-0.0075
-0.0185
-0.016
-0.0165
-0.0145
-0.013
-0.0075
-0.014
-0.0185
-0.0095
0.006
0.021
0.0085
-0.009
-0.0115
-0.0075
-0.006
-0.008
-0.0145
-0.0265
-0.033
-0.0285
-0.022
-0.0245
-0.0265
-0.023
-0.014
-0.0115
-0.018
0.0035
0.025
0.015
-0.0005
-0.002
0.003
-0.0055
-0.006
0.002
-0.002
-0.0015
0.003
0.0
-0.008
-0.028
-0.032
-0.007
0.0005
-0.009
-0.0105
-0.0035
0.0125
0.015
0.006
0.0085
0.0005
-0.003
-0.001
0.0085
0.0225
0.004
-0.0085
-0.0055
-0.01
-0.0115
-0.005
0.003
0.0055
0.0065
-0.005
-0.012
-0.0065
-0.0105
-0.0005
0.014
0.0195
0.0175
0.0055
-0.0045
0.002
-0.0035
-0.011
0.002
-0.001
0.0035
0.007
0.0035
0.0015
0.0
-0.008
-0.014
-0.001
-0.002
-0.0115
-0.006
0.0
0.001
0.0035
0.0
0.0
0.0015
0.0015
0.008
-0.001
-0.0045
0.009
0.0165
0.0135
0.0075
0.0095
0.0055
0.005
0.0115
0.0045
-0.003
-0.0075
-0.0095
-0.002
0.001
0.0
-0.0065
-0.0105
-0.0045
-0.001
0.008
0.0085
0.0085
0.0135
0.0025
-0.0075
-0.0275
-0.038
-0.0185
-0.0095
-0.003
0.0115
0.027
0.034
0.023
0.0105
0.021
0.0235
0.0065
0.0125
0.0195
0.014
0.0135
0.024
0.0265
0.0125
0.0165
0.0255
0.0305
0.032
0.0265
0.023
0.019
0.0205
0.02
0.0245
0.032
0.0235
0.017
0.0215
0.032
0.046
0.0455
0.0455
0.062
0.062
0.0425
0.028
0.025
0.031
0.0305
0.0245
0.04
0.07
0.0585
0.0515
0.0675
0.073
0.0845
0.0825
0.07
0.0645
0.069
0.0725
0.074
0.084
0.0795
0.0585
0.05
0.0455
0.0475
0.0615
0.059
0.056
0.0615
0.068
0.081
0.0855
0.087
0.085
0.0845
0.1005
0.1045
0.091
0.0745
0.0745
0.08
0.0725
0.0715
0.0635
0.061
0.0665
0.0625
0.0635
0.062
0.07
0.0705
0.0555
0.0515
0.0465
0.0465
0.0385
0.022
0.0055
-0.001
0.005
0.0095
0.019
0.021
0.0105
0.007
0.0015
-0.0095
-0.0145
-0.016
-0.0275
-0.026
-0.01
0.0
0.003
-0.0135
-0.016
-0.0165
-0.0195
-0.0165
-0.02
-0.017
-0.022
-0.024
-0.02
-0.014
-0.014
-0.0215
-0.0115
-0.0025
-0.0045
-0.012
-0.023
-0.024
-0.0175
-0.01
-0.005
-0.0225
-0.0425
-0.052
-0.043
-0.025
-0.0235
-0.0235
-0.0295
-0.04
-0.032
-0.0075
0.008
0.0115
0.0115
-0.004
-0.009
-0.0105
-0.0205
-0.026
-0.037
-0.0365
-0.0285
-0.025
-0.0235
-0.0245
-0.027
-0.034
-0.0455
-0.052
-0.051
-0.049
-0.0425
-0.053
-0.0715
-0.0885
-0.093
-0.0845
-0.0805
-0.0615
-0.039
-0.0025
0.039
0.065
0.097
0.1405
0.191
0.2305
0.266
0.325
0.383
0.4255
0.4735
0.519
0.5705
0.611
0.6365
0.643
0.6095
0.599
0.5935
0.565
0.547
0.5215
0.5005
0.491
0.468
0.4545
0.4185
0.3665
0.325
0.2745
0.209
0.1185
0.042
-0.0115
-0.0445
-0.057
-0.088
-0.1305
-0.131
-0.1245
-0.1335
-0.1195
-0.0965
-0.0915
-0.092
-0.0725
-0.0605
-0.0555
-0.048
-0.0445
-0.0375
-0.039
-0.044
-0.0395
-0.0285
-0.024
-0.0285
-0.0275
-0.0225
-0.0185
-0.0165
-0.0105
-0.003
-0.005
-0.013
-0.0245
-0.0285
-0.027
-0.032
-0.0225
-0.0095
-0.009
-0.0085
-0.0135
-0.0205
-0.025
-0.0315
-0.043
-0.049
-0.0435
-0.027
-0.0205
-0.028
-0.0275
-0.024
-0.019
-0.0165
-0.019
-0.011
-0.012
-0.0115
-0.01
-0.017
-0.0115
-0.0155
-0.019
-0.0185
-0.02
-0.004
0.007
0.001
-0.0025
-0.006
-0.0005
0.003
-0.003
-0.0125
-0.0205
-0.0255
-0.0315
-0.023
-0.0105
-0.002
-0.0105
-0.0245
-0.033
-0.029
-0.0235
-0.0305
-0.026
-0.014
-0.006
-0.0075
0.005
0.003
-0.0195
-0.0165
-0.011
-0.012
-0.0025
0.0115
0.002
-0.0085
-0.01
-0.012
-0.005
-0.0075
-0.0155
-0.011
0.006
0.0075
-0.008
-0.0215
-0.0145
0.0015
0.0085
0.013
0.0105
0.0065
-0.0025
-0.012
-0.01
-0.0005
0.009
0.0105
0.0065
-0.001
-0.006
-0.0095
-0.014
-0.0035
-0.003
-0.0075
-0.0005
-0.001
0.0
0.006
0.007
0.004
0.005
0.002
0.002
0.0025
-0.007
-0.014
0.001
0.0135
0.015
0.02
0.0155
0.014
-0.003
-0.02
-0.0205
-0.03
-0.022
-0.011
-0.013
-0.001
0.006
0.0
0.0095
0.019
0.0205
0.0105
0.006
0.0115
-0.0055
-0.003
0.007
0.002
-0.0065
-0.002
0.0105
0.0145
0.023
0.0155
0.0045
-0.005
-0.018
-0.021
-0.011
-0.001
0.001
-0.0025
0.0145
0.027
0.014
0.014
0.0145
0.0105
0.0005
-0.0145
-0.0175
-0.0175
-0.0105
-0.009
-0.0125
0.0035
0.0175
0.017
0.0165
0.0135
0.008
-0.0005
-0.0055
0.007
0.0065
-0.015
-0.034
-0.035
-0.027
-0.01
-0.002
-0.023
-0.0345
-0.04
-0.0375
-0.0235
-0.02
-0.021
-0.0225
-0.0285
-0.033
-0.0265
-0.03
-0.0435
-0.047
-0.0455
-0.0455
-0.049
-0.0455
-0.0365
-0.0435
-0.0435
-0.041
-0.041
-0.0405
-0.0475
-0.05
-0.0475
-0.0295
-0.0305
-0.048
-0.054
-0.056
-0.056
-0.0545
-0.0535
-0.057
-0.053
-0.053
-0.0545
-0.046
-0.0435
-0.0415
-0.052
-0.0565
-0.04
-0.0395
-0.0425
-0.042
-0.045
-0.0545
-0.0535
-0.035
-0.031
-0.0335
-0.027
-0.0195
-0.03
-0.0505
-0.0385
-0.02
-0.031
-0.0545
-0.0675
-0.056
-0.048
-0.044
-0.0235
-0.0215
-0.0315
-0.035
-0.039
-0.0345
-0.031
-0.042
-0.037
-0.02
-0.0195
-0.0255
-0.03
-0.035
-0.019
-0.0045
-0.0125
-0.016
-0.016
-0.0155
-0.0245
-0.026
-0.023
-0.022
-0.0205
-0.023
-0.0135
-0.011
-0.01
-0.0105
-0.0095
-0.009
-0.0155
-0.012
-0.0095
-0.012
-0.0225
-0.014
-0.0075
-0.012
0.0125
0.022
0.009
-0.0055
-0.0145
-0.017
-0.0145
-0.003
0.0015
0.003
0.0005
-0.002
-0.0035
-0.004
-0.008
-0.0195
-0.0175
-0.02
-0.021
-0.007
0.0015
0.0105
0.008
0.0025
0.001
-0.0075
-0.007
-0.005
-0.0095
-0.02
-0.0145
-0.0005
-0.004
-0.001
0.002
0.003
0.0115
0.016
0.01
0.007
0.0105
0.0045
0.0035
0.003
-0.007
-0.013
-0.002
0.007
-0.005
-0.004
-0.0075
-0.0235
-0.027
-0.029
-0.0235
-0.0175
-0.005
0.0055
0.0005
0.0
-0.0065
-0.0135
-0.0145
-0.016
-0.022
-0.016
-0.0005
0.0005
0.011
0.0165
0.01
0.003
-0.0055
-0.003
0.004
0.0075
-0.003
-0.0075
0.0085
0.0155
0.011
0.0095
0.007
0.0035
0.0015
0.003
0.009
-0.0025
-0.013
-0.003
-0.003
-0.0095
-0.0075
-0.0065
-0.0055
-0.0015
-0.0055
-0.013
-0.0155
-0.0125
-0.007
-0.0035
-0.0045
-0.0085
-0.0155
-0.0155
-0.013
-0.0105
-0.007
-0.024
-0.0265
0.0015
0.012
0.0015
-0.0015
0.0025
0.0145
0.0155
0.01
-0.0035
-0.0325
-0.029
-0.013
-0.0135
-0.0055
-0.009
-0.0205
-0.0245
-0.035
-0.039
-0.0355
-0.029
-0.021
-0.0235
-0.028
-0.015
-0.0115
-0.02
-0.0095
-0.0085
-0.0215
-0.0275
-0.017
-0.0035
-0.007
-0.0125
-0.0125
-0.0145
-0.0265
-0.0195
-0.0115
-0.022
-0.019
-0.021
-0.024
-0.0165
-0.007
-0.0135
-0.019
-0.015
-0.014
-0.009
-0.0085
-0.016
-0.0235
-0.035
-0.042
-0.038
-0.034
-0.0235
-0.02
-0.0235
-0.0225
-0.0225
-0.016
0.003
0.01
-0.0055
-0.0195
-0.021
-0.022
-0.022
-0.019
-0.032
-0.031
-0.0205
-0.019
-0.015
-0.0185
-0.0195
-0.021
-0.0135
-0.0095
-0.0115
-0.007
-0.01
-0.0105
-0.0065
-0.01
0.0005
0.0105
-0.003
-0.008
-0.02
-0.026
-0.0095
-0.012
-0.0145
-0.021
-0.032
-0.0345
-0.0315
-0.017
-0.0075
0.001
0.009
0.0015
-0.005
0.003
-0.0025
-0.005
0.0005
-0.0005
-0.002
-0.009
-0.005
-0.011
-0.009
0.0085
0.0065
0.009
0.0085
-0.0025
-0.0065
-0.004
-0.0045
-0.009
-0.014
-0.0025
0.0025
-0.0105
-0.0185
-0.033
-0.035
-0.037
-0.0375
-0.022
-0.012
-0.005
-0.01
0.0
0.004
-0.009
-0.013
-0.0295
-0.025
-0.0095
-0.0115
-0.017
-0.023
-0.0235
-0.0235
-0.023
-0.022
-0.0115
-0.0045
0.0015
0.0225
0.029
0.02
-0.0025
-0.0095
-0.0075
-0.019
-0.021
-0.0185
-0.0165
-0.024
-0.029
-0.024
-0.0175
-0.0145
-0.0075
-0.0185
-0.0245
-0.0035
0.002
0.006
-0.0035
-0.01
-0.011
-0.026
-0.0245
-0.0075
0.006
0.0095
0.013
0.0135
0.0145
0.025
0.027
0.0175
0.0225
0.031
0.0275
0.031
0.0395
0.0415
0.038
0.0355
0.0395
0.038
0.0295
0.036
0.042
0.041
0.051
0.053
0.0455
0.045
0.0465
0.044
0.043
0.0485
0.0555
0.0565
0.053
0.0415
0.041
0.044
0.049
0.0545
0.029
0.015
0.0235
0.029
0.0435
0.069
0.0745
0.073
0.0765
0.0735
0.081
0.086
0.088
0.079
0.0685
0.0715
0.0655
0.063
0.0595
0.062
0.0675
0.062
0.0615
0.062
0.0525
0.049
0.0515
0.0385
0.025
0.0035
-0.001
0.017
0.0155
0.0095
0.0095
0.0135
0.011
0.0045
0.001
0.0005
-0.0055
-0.0065
-0.014
-0.0365
-0.043
-0.0305
-0.013
-0.0055
-0.011
-0.018
-0.015
-0.0175
-0.0315
-0.038
-0.029
-0.028
-0.025
-0.016
-0.0155
-0.0245
-0.0245
-0.0115
-0.012
-0.0075
-0.0035
-0.004
-0.0205
-0.0435
-0.05
-0.0425
-0.027
-0.021
-0.0305
-0.0305
-0.0115
-0.008
-0.0105
-0.0025
-0.0025
-0.0055
-0.0115
-0.007
0.0015
-0.0065
-0.0085
-0.017
-0.0185
-0.0175
-0.0255
-0.027
-0.029
-0.02
-0.016
-0.0225
-0.038
-0.0465
-0.0385
-0.04
-0.0465
-0.037
-0.031
-0.0375
-0.0505
-0.0755
-0.0795
-0.0745
-0.0745
-0.0705
-0.0665
-0.0565
-0.0335
-0.0015
0.03
0.065
0.1095
0.1675
0.2145
0.2525
0.2965
0.3425
0.3765
0.4135
0.46
0.5165
0.5655
0.5955
0.618
0.6005
0.5775
0.5565
0.52
0.4995
0.499
0.4895
0.47
0.434
0.407
0.3825
0.3355
0.2885
0.24
0.194
0.1245
0.0565
-0.0015
-0.0455
-0.053
-0.0635
-0.105
-0.127
-0.1265
-0.1335
-0.1175
-0.117
-0.116
-0.0955
-0.092
-0.083
-0.0655
-0.054
-0.042
-0.0415
-0.042
-0.0335
-0.0345
-0.0555
-0.0575
-0.03
-0.0235
-0.0265
-0.021
-0.0185
-0.0225
-0.0025
0.0095
-0.011
-0.008
-0.004
-0.0085
-0.006
-0.0185
-0.02
-0.0135
-0.019
-0.0125
-0.013
-0.034
-0.0345
-0.013
-0.0095
-0.02
-0.017
-0.0165
-0.0115
0.0035
-0.0055
-0.011
-0.0085
-0.0055
-0.005
-0.0105
-0.015
-0.024
-0.024
-0.0305
-0.0355
-0.036
-0.0315
-0.0025
-0.0005
-0.0225
-0.0225
-0.0135
-0.013
-0.013
-0.0125
-0.008
0.0015
0.0075
-0.0005
-0.0045
0.003
-0.012
-0.02
-0.013
-0.012
-0.0195
-0.041
-0.043
-0.0305
-0.039
-0.056
-0.052
-0.0315
-0.003
0.001
-0.005
-0.001
-0.008
-0.0135
-0.023
-0.0295
-0.04
-0.033
-0.012
-0.016
-0.019
-0.0255
-0.031
-0.016
-0.017
-0.0115
0.0055
0.0005
-0.0125
-0.019
-0.0135
-0.0185
-0.019
-0.009
-0.0005
0.0065
0.001
0.0015
0.0025
-0.0055
-0.009
0.0005
0.0125
0.022
0.0255
0.0175
0.0105
0.0155
0.012
-0.0045
-0.0195
-0.026
-0.014
-0.0045
-0.014
-0.019
-0.0145
-0.015
-0.0155
0.0
0.0135
-0.0095
-0.0285
-0.037
-0.045
-0.039
-0.0335
-0.011
0.013
0.011
-0.0005
-0.0085
-0.0135
-0.0045
0.0115
0.013
0.0145
0.0045
-0.016
-0.015
-0.011
-0.0055
0.0
0.0045
0.0045
-0.0055
-0.0115
-0.013
0.0
0.0065
0.007
0.019
0.015
0.006
0.003
0.0055
0.0085
0.0135
0.019
0.011
0.011
0.0155
0.0205
0.0175
0.002
0.0005
-0.001
-0.0095
-0.003
0.0015
0.0
0.0005
-0.005
-0.012
-0.0075
0.001
-0.0005
-0.001
0.001
0.0
-0.003
-0.0075
-0.01
-0.01
-0.015
-0.0245
-0.034
-0.039
-0.0365
-0.034
-0.0335
-0.0515
-0.051
-0.0055
0.0
-0.017
-0.023
-0.022
-0.023
-0.032
-0.023
-0.031
-0.041
-0.0485
-0.048
-0.036
-0.04
-0.0375
-0.039
-0.0425
-0.04
-0.042
-0.0365
-0.0305
-0.036
-0.043
-0.04
-0.034
-0.0365
-0.043
-0.0415
-0.035
-0.0355
-0.0415
-0.039
-0.0435
-0.0545
-0.049
-0.051
-0.062
-0.068
-0.08
-0.0785
-0.069
-0.0595
-0.0575
-0.0655
-0.0625
-0.065
-0.062
-0.0535
-0.053
-0.0545
-0.0625
-0.0605
-0.055
-0.0515
-0.0305
-0.0205
-0.02
-0.0185
-0.0285
-0.0545
-0.072
-0.06
-0.0525
-0.051
-0.0545
-0.0525
-0.05
-0.0575
-0.0565
-0.054
-0.0455
-0.049
-0.052
-0.0575
-0.0655
-0.043
-0.0235
-0.0195
-0.0165
-0.0305
-0.044
-0.026
-0.0075
-0.015
-0.027
-0.0275
-0.027
-0.024
-0.026
-0.032
-0.02
-0.0125
-0.019
-0.0105
0.0
-0.013
-0.0325
-0.0225
-0.0195
-0.023
-0.012
-0.011
-0.006
-0.0095
-0.0105
-0.0075
-0.0115
-0.0045
0.0035
0.0015
-0.0115
-0.0165
-0.0135
-0.015
-0.0195
-0.0185
-0.013
-0.017
-0.02
-0.0225
-0.025
-0.0165
-0.0095
-0.0145
-0.0155
-0.0145
-0.0085
-0.0055
-0.012
-0.0155
-0.0255
-0.014
-0.0075
-0.024
-0.024
-0.0205
-0.0155
-0.01
-0.0005
0.0165
0.0075
-0.0095
-0.0105
-0.0065
-0.007
-0.005
0.002
-0.008
-0.0035
0.0035
-0.0115
-0.018
-0.014
-0.0105
-0.0115
-0.0035
-0.003
-0.0155
-0.0185
-0.0095
0.002
-0.0065
-0.017
-0.0145
-0.019
-0.012
0.0055
0.0
-0.0115
-0.011
-0.008
-0.0035
-0.0025
-0.012
-0.02
-0.007
0.004
-0.0165
-0.021
-0.0185
-0.0235
-0.014
-0.011
0.0045
0.0205
0.0185
0.005
-0.004
-0.0065
-0.013
-0.017
-0.023
-0.0235
-0.023
-0.02
0.0015
0.0195
0.012
-0.0065
-0.007
0.0095
0.0225
0.02
-0.0005
-0.0015
0.006
-0.002
-0.007
-0.0015
-0.013
-0.039
-0.0335
-0.0195
-0.004
0.0005
-0.0085
-0.009
-0.0105
-0.0065
-0.01
-0.0195
-0.028
-0.0215
-0.013
-0.01
-0.006
-0.008
-0.0125
-0.0165
-0.008
-0.005
-0.006
-0.0075
-0.0145
-0.0225
-0.0155
-0.0125
-0.021
-0.0245
-0.034
-0.026
-0.02
-0.0195
-0.0145
-0.022
-0.028
-0.0265
-0.0165
-0.0065
-0.0055
-0.012
-0.012
-0.0195
-0.025
-0.017
-0.026
-0.0255
-0.021
-0.026
-0.016
-0.0075
0.0025
-0.005
-0.0175
-0.0125
-0.011
-0.009
-0.015
-0.02
-0.017
-0.0245
-0.033
-0.026
-0.0275
-0.038
-0.039
-0.041
-0.0355
-0.017
-0.009
-0.008
-0.0045
-0.004
-0.008
-0.012
-0.0065
0.007
0.0115
-0.0045
-0.024
-0.027
-0.0335
-0.0425
-0.0205
-0.002
-0.013
-0.0325
-0.0325
-0.0235
-0.0215
-0.0295
-0.032
-0.0235
-0.0265
-0.037
-0.039
-0.0295
-0.0195
-0.0165
-0.011
-0.0055
-0.0095
-0.018
-0.03
-0.026
-0.015
-0.016
-0.005
0.003
0.0075
-0.0005
-0.017
-0.0285
-0.038
-0.0335
-0.029
-0.0185
-0.0145
-0.019
-0.014
-0.0155
-0.0135
-0.017
-0.022
-0.025
-0.0375
-0.043
-0.038
-0.022
-0.018
-0.011
-0.001
-0.0015
-0.004
-0.013
-0.016
-0.016
-0.0185
-0.031
-0.036
-0.021
-0.006
-0.012
-0.021
-0.0125
-0.0045
-0.0005
-0.0045
-0.003
0.002
-0.0065
-0.021
-0.026
-0.0155
-0.0135
-0.021
-0.021
-0.0135
-0.0095
-0.013
-0.0225
-0.0285
-0.0195
-0.0115
-0.003
0.0025
-0.008
-0.0085
-0.0125
-0.025
-0.0215
-0.019
-0.0045
0.002
0.0035
0.0275
0.0295
0.026
0.022
0.036
0.0375
0.013
0.02
0.018
0.027
0.031
0.023
0.028
0.027
0.0275
0.028
0.0315
0.028
0.0415
0.06
0.065
0.0435
0.0175
0.0075
0.0075
0.0235
0.0235
0.03
0.0395
0.0455
0.049
0.035
0.028
0.023
0.0225
0.035
0.045
0.0395
0.0335
0.042
0.055
0.062
0.061
0.0675
0.0685
0.069
0.072
0.0645
0.0615
0.0615
0.0655
0.068
0.0715
0.07
0.0665
0.0705
0.062
0.0615
0.063
0.0545
0.0355
0.0145
0.013
0.013
0.014
0.016
0.0145
-0.0005
-0.0205
-0.0125
0.001
0.0055
0.004
-0.008
-0.0265
-0.029
-0.0325
-0.035
-0.014
-0.0135
-0.0255
-0.0215
-0.0265
-0.0285
-0.0185
-0.024
-0.0375
-0.046
-0.0445
-0.039
-0.017
-0.002
-0.019
-0.02
-0.0125
-0.0195
-0.026
-0.0255
-0.0165
-0.0105
-0.0075
-0.0015
-0.0115
-0.0285
-0.0325
-0.0225
-0.022
-0.0335
-0.0315
-0.036
-0.0415
-0.0395
-0.034
-0.0315
-0.0305
-0.0215
-0.023
-0.023
-0.02
-0.0155
-0.023
-0.0275
-0.01
-0.012
-0.017
-0.017
-0.021
-0.014
-0.014
-0.0195
-0.028
-0.045
-0.0495
-0.057
-0.0565
-0.047
-0.0505
-0.059
-0.0845
-0.0945
-0.0735
-0.0625
-0.049
-0.038
-0.037
-0.0215
0.013
0.063
0.0965
0.133
0.178
0.224
0.2795
0.3325
0.3845
0.424
0.4525
0.485
0.5435
0.59
0.6125
0.608
0.573
0.56
0.539
0.5085
0.4865
0.4535
0.4305
0.418
0.412
0.4015
0.3585
0.3015
0.2575
0.21
0.1475
0.08
0.024
-0.0055
-0.031
-0.0585
-0.0875
-0.104
-0.114
-0.115
-0.1045
-0.114
-0.104
-0.087
-0.082
-0.084
-0.0785
-0.07
-0.061
-0.049
-0.051
-0.0565
-0.0535
-0.0435
-0.0405
-0.037
-0.0425
-0.0325
-0.026
-0.018
-0.006
-0.014
-0.01
-0.009
-0.0105
-0.0175
-0.0155
-0.0165
-0.027
-0.021
-0.018
-0.0085
-0.0025
-0.0145
-0.0125
-0.01
-0.0115
-0.0055
-0.003
-0.007
-0.0135
-0.0135
-0.02
-0.0285
-0.0205
-0.012
-0.001
0.0005
-0.005
0.0005
-0.006
-0.013
-0.009
-0.0075
-0.015
-0.0245
-0.0265
-0.024
-0.0215
-0.0125
0.0
0.0035
-0.005
-0.008
-0.0055
-0.011
-0.023
-0.0265
-0.0185
-0.024
-0.0325
-0.0505
-0.053
-0.027
-0.0175
-0.0205
-0.0065
0.0035
-0.0095
-0.02
-0.0215
-0.0145
-0.006
-0.003
-0.007
-0.015
-0.025
-0.0305
-0.0225
-0.014
0.0015
0.017
0.021
0.0195
0.0125
0.0025
-0.008
-0.017
-0.0305
-0.0455
-0.038
-0.02
-0.0125
-0.01
-0.0125
-0.0225
-0.03
-0.0145
0.0035
-0.002
-0.0065
-0.0105
-0.008
0.012
0.008
-0.005
0.0015
-0.002
-0.005
-0.001
-0.001
-0.0075
-0.008
-0.005
-0.004
-0.0055
-0.002
0.0
-0.008
-0.0055
-0.0015
0.0
-0.009
-0.0225
-0.012
0.0085
0.011
0.007
0.001
-0.012
-0.0165
-0.01
0.0005
0.01
0.006
-0.003
0.005
0.001
-0.007
-0.0095
-0.0105
-0.0065
-0.0115
-0.014
-0.0095
-0.0035
-0.0025
0.005
0.0095
-0.0025
-0.0055
-0.002
0.001
-0.0005
-0.0025
0.003
-0.0005
-0.002
0.0025
-0.0005
0.0035
0.0075
0.008
0.012
0.011
0.005
0.0055
0.008
0.018
0.024
0.016
0.0165
0.005
-0.0105
0.001
0.006
0.005
0.0125
0.0125
0.01
-0.0035
-0.024
-0.033
-0.029
-0.0125
-0.007
-0.017
-0.0165
-0.009
-0.017
-0.0095
0.004
-0.0105
-0.0205
-0.0245
-0.0235
-0.0135
-0.001
-0.0025
-0.0055
0.002
-0.0095
-0.0165
-0.0135
-0.0145
-0.0255
-0.0375
-0.0465
-0.0455
-0.0305
-0.036
-0.0465
-0.046
-0.0425
-0.032
-0.025
-0.016
-0.017
-0.023
-0.022
-0.038
-0.053
-0.047
-0.0405
-0.0485
-0.0595
-0.0585
-0.0485
-0.038
-0.027
-0.024
-0.042
-0.051
-0.048
-0.0515
-0.0595
-0.0705
-0.074
-0.073
-0.0585
-0.038
-0.035
-0.038
-0.0445
-0.0485
-0.052
-0.0545
-0.0425
-0.0345
-0.0305
-0.031
-0.045
-0.0455
-0.039
-0.033
-0.0195
-0.009
-0.009
-0.025
-0.0355
-0.0455
-0.044
-0.0355
-0.0275
-0.0195
-0.0355
-0.042
-0.041
-0.038
-0.024
-0.0235
-0.025
-0.0285
-0.0285
-0.021
-0.021
-0.0155
-0.0065
-0.0065
-0.0065
-0.0065
-0.0025
0.0065
0.0025
-0.014
-0.025
-0.025
-0.0165
-0.004
-0.0005
-0.0035
-0.0125
-0.037
-0.0495
-0.028
-0.0035
0.003
0.0015
-0.0035
-0.008
-0.0105
-0.0135
-0.0145
-0.0185
-0.011
-0.0005
0.0025
0.0085
0.0095
0.0025
-0.0035
0.0005
0.01
0.016
0.0165
0.0
-0.0065
0.0065
0.0025
0.0015
0.01
0.001
-0.0025
0.0015
0.003
0.0095
0.0055
0.0015
0.0
-0.007
0.0
0.012
0.0155
0.0035
-0.009
-0.003
0.0005
-0.001
-0.009
-0.008
0.001
0.0015
0.0015
-0.0005
0.0
0.0205
0.031
0.0185
0.021
0.023
0.023
0.006
-0.005
0.005
0.0055
0.0215
0.0245
0.0055
-0.015
-0.0265
-0.022
-0.0175
-0.0045
0.011
0.0175
0.0145
0.0155
0.0175
0.0145
0.023
0.017
-0.001
0.0
-0.001
0.0075
0.019
0.0085
0.016
0.0135
0.001
-0.002
0.0075
0.0275
0.016
0.0035
0.0015
0.006
0.008
-0.0005
0.002
0.0165
0.024
0.009
0.0
0.0005
0.0015
0.011
0.012
0.016
0.022
0.025
0.024
0.0005
-0.002
-0.0045
-0.0205
-0.02
-0.011
0.012
0.019
0.01
0.0005
-0.0105
-0.0045
0.003
-0.004
-0.0015
0.0005
0.0035
0.0065
-0.005
-0.005
-0.0075
-0.002
0.008
0.008
0.0015
-0.0105
-0.0125
-0.009
0.0
0.0065
0.01
0.003
-0.0185
-0.021
-0.0105
-0.0135
-0.0125
-0.01
-0.009
-0.012
-0.0185
-0.003
-0.0065
-0.024
-0.027
-0.035
-0.031
-0.0245
-0.013
0.001
0.006
-0.005
-0.0155
-0.006
-0.016
-0.0175
-0.0165
-0.015
-0.012
-0.0155
-0.009
-0.009
-0.0075
-0.0125
-0.0025
0.0075
0.004
0.006
0.002
-0.003
0.001
0.0035
-0.003
-0.006
-0.013
-0.016
-0.0175
-0.025
-0.021
-0.0035
0.0035
0.001
-0.001
0.002
0.002
-0.0005
0.0055
0.011
0.0205
0.018
0.0095
-0.002
-0.025
-0.0265
-0.0305
-0.035
-0.015
-0.0085
-0.012
-0.015
-0.0215
-0.014
-0.0075
-0.0085
-0.0175
-0.034
-0.031
-0.0145
-0.0045
0.005
0.0125
0.003
-0.005
-0.0025
-0.002
-0.018
-0.031
-0.024
-0.021
-0.0185
-0.017
-0.0055
0.0015
-0.0065
-0.003
-0.01
-0.0195
-0.017
-0.015
-0.0045
0.0045
0.0015
-0.004
-0.0125
-0.012
-0.0075
-0.0095
-0.0095
-0.009
-0.004
-0.0075
-0.0055
-0.0005
-0.008
0.0
0.006
-0.0015
-0.008
-0.007
0.003
0.0125
0.007
0.0
0.014
0.0115
-0.0005
0.0015
-0.005
-0.0075
0.0045
0.0095
0.006
0.007
0.007
0.0015
-0.0025
-0.0045
-0.002
0.0015
0.003
0.003
0.0
-0.002
0.001
-0.0005
-0.008
-0.012
-0.0105
-0.0075
-0.008
0.0045
0.0205
0.0155
0.005
-0.0035
-0.0105
0.003
0.018
0.012
-0.0035
-0.012
-0.0025
0.009
0.021
0.0245
0.008
-0.0005
0.0075
0.0215
0.0375
0.036
0.029
0.03
0.023
0.0285
0.041
0.0435
0.038
0.032
0.0385
0.044
0.0465
0.05
0.057
0.0545
0.0325
0.028
0.041
0.049
0.0535
0.0525
0.0475
0.0465
0.0385
0.045
0.0655
0.0815
0.09
0.0715
0.0495
0.0525
0.0605
0.062
0.065
0.055
0.0445
0.05
0.0535
0.0515
0.0545
0.072
0.089
0.0915
0.1005
0.097
0.0865
0.088
0.0885
0.092
0.0875
0.0865
0.084
0.085
0.09
0.0875
0.0795
0.073
0.0705
0.0715
0.073
0.058
0.051
0.039
0.0325
0.0505
0.064
0.0655
0.057
0.0465
0.0345
0.031
0.03
0.033
0.0315
0.0135
0.0065
0.0085
-0.0005
-0.009
-0.013
-0.0135
-0.0125
-0.0135
-0.011
-0.0045
0.006
0.0065
-0.0115
-0.0135
-0.001
0.001
-0.0085
-0.019
-0.022
-0.0225
-0.018
-0.016
-0.0175
-0.016
-0.004
0.0115
0.011
0.0075
0.0035
-0.003
0.001
0.0005
-0.004
0.0045
0.012
-0.003
-0.0245
-0.0235
-0.0105
-0.0105
-0.0095
-0.004
-0.0005
-0.0035
-0.0125
-0.012
0.0
0.014
0.007
-0.006
-0.0135
-0.0215
-0.0275
-0.0305
-0.03
-0.031
-0.0295
-0.0215
-0.0135
-0.0025
-0.0005
-0.016
-0.033
-0.052
-0.0595
-0.0655
-0.0705
-0.074
-0.0745
-0.06
-0.0715
-0.06
-0.023
-0.012
0.0215
0.045
0.078
0.131
0.173
0.233
0.2765
0.3275
0.3765
0.3985
0.44
0.4915
0.5425
0.6005
0.6375
0.66
0.6575
0.62
0.5975
0.575
0.5495
0.5315
0.502
0.489
0.4725
0.4465
0.414
0.355
0.3175
0.2735
0.2115
0.1645
0.1015
0.0495
0.021
-0.01
-0.0415
-0.0785
-0.109
-0.122
-0.117
-0.109
-0.096
-0.089
-0.078
-0.0625
-0.0715
-0.067
-0.0625
-0.053
-0.036
-0.0325
-0.0335
-0.0445
-0.037
-0.0215
-0.015
-0.0095
-0.0035
-0.005
-0.004
-0.0005
0.0025
0.0025
-0.0045
-0.0105
-0.0325
-0.0395
-0.031
-0.0265
-0.0155
-0.004
-0.015
-0.0195
0.0025
-0.003
-0.006
-0.006
-0.013
-0.0095
-0.015
-0.021
-0.0235
-0.024
-0.024
-0.0325
-0.0295
-0.018
-0.009
-0.002
-0.013
-0.018
-0.0125
-0.0045
0.0085
0.005
-0.0005
0.0105
0.017
0.003
-0.016
-0.0325
-0.0335
-0.0125
-0.0025
-0.0165
-0.0195
-0.0185
-0.0295
-0.017
-0.0075
-0.011
-0.0125
-0.0135
-0.0075
-0.001
-0.007
-0.019
-0.008
-0.0025
-0.0095
-0.01
-0.0055
0.003
-0.001
0.003
0.0075
0.006
0.006
-0.0035
-0.004
-0.007
-0.0055
-0.0085
-0.019
-0.009
0.0
0.0
0.003
0.0105
0.007
0.0
0.0025
-0.009
-0.0185
-0.028
-0.0245
-0.0065
0.0015
0.01
0.0005
-0.0175
-0.0125
-0.003
0.007
0.0085
-0.0095
-0.008
-0.006
-0.006
0.0015
0.008
0.0155
0.006
0.009
0.0105
0.0035
0.006
0.002
0.0005
-0.0015
-0.0115
-0.0085
-0.002
-0.0035
-0.0025
0.0125
0.0245
0.031
0.0365
0.022
0.004
-0.011
-0.0165
-0.0035
0.0155
0.0195
0.012
0.005
-0.006
-0.002
0.0085
0.0145
0.0195
0.0185
0.029
0.025
0.0105
0.007
0.0035
0.0095
0.002
-0.0095
0.0085
0.0185
0.0045
0.0085
0.0295
0.0285
0.0165
0.014
0.018
0.02
0.01
0.004
0.006
0.0115
0.0115
0.0165
0.023
0.0145
0.018
0.0265
0.0195
0.0095
-0.0045
-0.0055
-0.001
0.0015
0.0005
-0.001
0.013
0.0065
-0.0085
-0.0175
-0.0105
0.0045
-0.0055
-0.0155
-0.0195
-0.023
-0.019
-0.0015
0.011
0.0095
0.007
0.0025
-0.003
-0.0215
-0.027
-0.0125
-0.0105
-0.018
-0.0275
-0.015
-0.0045
-0.0095
-0.01
-0.014
-0.0165
-0.016
-0.007
-0.004
-0.014
-0.0175
-0.018
-0.019
-0.0205
-0.024
-0.022
-0.0285
-0.044
-0.0545
-0.061
-0.0515
-0.0435
-0.042
-0.0355
-0.0375
-0.0335
-0.027
-0.04
-0.044
-0.039
-0.038
-0.0375
-0.0365
-0.0425
-0.0395
-0.034
-0.043
-0.045
-0.056
-0.068
-0.0565
-0.0395
-0.0395
-0.046
-0.0505
-0.0435
-0.0335
-0.0285
-0.024
-0.0245
-0.0125
-0.0145
-0.038
-0.045
-0.045
-0.049
-0.0415
-0.0215
-0.0085
-0.0165
-0.0305
-0.029
-0.022
-0.019
-0.0195
-0.0205
-0.023
-0.0265
-0.0175
-0.006
0.007
0.002
-0.019
-0.018
-0.015
-0.018
-0.0165
-0.0155
-0.0075
0.001
0.0
0.0045
0.0105
0.0065
-0.0055
-0.014
-0.012
-0.0035
-0.0015
-0.01
-0.0145
-0.016
-0.01
0.002
0.006
-0.0075
-0.013
-0.002
-0.0065
-0.0035
0.0065
0.0035
0.009
0.016
0.012
0.0
-0.0065
-0.003
0.0055
0.015
0.0085
-0.006
-0.011
-0.005
-0.0005
0.0045
0.009
0.0085
0.017
0.0125
0.007
0.0075
0.0025
0.0005
0.0
0.003
0.001
0.011
0.0215
0.012
0.01
0.0195
0.0195
0.0065
0.005
0.0105
0.0095
0.01
0.012
0.0125
0.003
0.001
0.0025
-0.0035
-0.0015
0.0025
0.001
-0.0065
-0.0015
0.0175
0.0205
0.009
0.001
0.012
0.021
0.0135
-0.001
-0.0085
0.0045
0.0135
0.0125
0.0055
0.007
0.023
0.0285
0.0275
0.025
0.013
-0.003
-0.008
-0.007
-0.003
0.009
0.0095
0.015
0.018
0.013
0.021
0.0255
0.0275
0.02
0.0095
0.0015
-0.007
-0.005
-0.0005
0.0115
0.0105
0.0035
-0.0005
0.0
0.0065
0.006
0.0155
0.014
0.0015
0.0
0.005
0.0155
0.017
0.008
0.007
-0.003
-0.0085
0.0
0.002
0.006
-0.001
-0.015
-0.016
-0.012
-0.0135
-0.014
-0.019
-0.0235
-0.0205
-0.019
-0.0095
-0.011
-0.0215
-0.029
-0.0465
-0.052
-0.0385
-0.0235
-0.017
-0.011
0.0065
0.009
0.0075
0.0095
-0.002
-0.015
-0.0235
-0.0245
-0.013
-0.0005
-0.0055
-0.016
-0.0275
-0.032
-0.0195
-0.002
0.001
-0.006
-0.006
-0.004
-0.0075
-0.012
-0.012
-0.013
-0.0235
-0.029
-0.0245
-0.025
-0.026
-0.024
-0.0205
-0.021
-0.022
-0.02
-0.0185
-0.011
-0.0015
0.008
0.0135
0.007
-0.013
-0.0245
-0.0235
-0.0255
-0.0215
-0.018
-0.0165
-0.0205
-0.0305
-0.0235
-0.0055
-0.0025
-0.0065
-0.0125
-0.0275
-0.0285
-0.0295
-0.028
-0.023
-0.0195
-0.015
-0.0265
-0.0345
-0.0315
-0.0175
-0.007
-0.017
-0.0175
-0.019
-0.019
-0.0065
-0.0075
-0.016
-0.0235
-0.017
-0.016
-0.022
-0.0095
0.001
0.0035
0.0005
-0.0075
-0.0165
-0.016
-0.0115
-0.0235
-0.0285
-0.021
-0.022
-0.0325
-0.0265
-0.0225
-0.0155
0.007
0.0005
-0.011
-0.0205
-0.0325
-0.032
-0.023
-0.01
-0.0115
-0.0165
-0.0095
-0.005
-0.0005
-0.003
-0.001
0.0095
0.008
0.002
-0.005
-0.011
-0.006
-0.0065
-0.014
-0.011
-0.023
-0.0335
-0.0165
-0.0065
-0.0055
-0.014
-0.017
-0.01
-0.016
-0.015
-0.018
-0.026
-0.0185
-0.0145
-0.0145
-0.02
-0.023
-0.003
0.0175
0.01
-0.015
-0.016
-0.008
-0.0045
-0.002
-0.0035
0.001
-0.0055
-0.013
-0.02
-0.0285
-0.022
-0.007
0.003
0.004
0.0065
0.0135
-0.0005
-0.009
-0.002
-0.003
-0.007
-0.0095
-0.0075
0.002
0.0165
0.0205
0.018
0.009
0.01
0.0105
0.013
0.023
0.031
0.05
0.058
0.062
0.053
0.037
0.036
0.0385
0.0365
0.04
0.0475
0.039
0.0435
0.0635
0.074
0.0725
0.0585
0.047
0.053
0.0615
0.055
0.053
0.0585
0.063
0.067
0.061
0.0565
0.0565
0.0535
0.035
0.0305
0.0405
0.045
0.0545
0.0525
0.058
0.077
0.0835
0.0865
0.089
0.0915
0.0965
0.0925
0.0915
0.092
0.084
0.0695
0.057
0.0515
0.051
0.048
0.0415
0.049
0.066
0.071
0.057
0.0335
0.0305
0.033
0.0265
0.019
0.002
-0.007
-0.008
0.0055
0.0155
0.006
-0.0105
-0.0205
-0.0135
-0.0085
-0.0125
-0.0175
-0.015
-0.0155
-0.026
-0.021
0.0005
-0.0035
-0.0135
-0.02
-0.031
-0.0285
-0.021
-0.015
-0.022
-0.033
-0.043
-0.0465
-0.035
-0.0195
-0.009
-0.018
-0.0285
-0.028
-0.0335
-0.0305
-0.02
-0.0255
-0.0395
-0.036
-0.027
-0.033
-0.0255
-0.02
-0.0235
-0.022
-0.021
-0.023
-0.0265
-0.0115
-0.011
-0.02
-0.0175
-0.015
-0.0175
-0.0295
-0.015
0.0095
0.0045
-0.033
-0.0485
-0.029
-0.0255
-0.029
-0.036
-0.0315
-0.043
-0.059
-0.0565
-0.054
-0.0455
-0.064
-0.0895
-0.092
-0.075
-0.067
-0.074
-0.0625
-0.0425
-0.0085
0.028
0.055
0.1005
0.1625
0.2215
0.261
0.298
0.351
0.3925
0.4265
0.478
0.5275
0.5875
0.6345
0.661
0.679
0.6565
0.638
0.6155
0.568
0.546
0.5225
0.492
0.4835
0.4715
0.4545
0.4065
0.3485
0.3005
0.2395
0.183
0.1145
0.047
0.0
-0.021
-0.0325
-0.0775
-0.1235
-0.149
-0.153
-0.138
-0.1265
-0.111
-0.1025
-0.086
-0.072
-0.0795
-0.0715
-0.054
-0.0375
-0.0305
-0.0345
-0.047
-0.0515
-0.0275
-0.018
-0.0265
-0.031
-0.0265
-0.024
-0.0295
-0.032
-0.0325
-0.039
-0.0375
-0.0245
-0.0195
-0.0135
-0.015
-0.016
-0.02
-0.022
-0.018
-0.0205
-0.013
-0.006
-0.004
-0.0215
-0.028
-0.024
-0.0345
-0.033
-0.0365
-0.0295
-0.0175
-0.017
-0.0165
-0.025
-0.0185
-0.0065
-0.012
-0.0345
-0.0495
-0.049
-0.0345
-0.0175
-0.012
-0.009
-0.0125
-0.0035
-0.006
-0.0105
-0.0075
-0.0095
-0.0045
-0.007
-0.008
-0.0115
-0.017
-0.017
-0.0215
-0.0225
-0.0225
-0.025
-0.0235
-0.0275
-0.029
-0.0195
-0.021
-0.0275
-0.025
-0.0165
-0.0115
-0.011
-0.0075
-0.001
0.003
-0.012
-0.033
-0.041
-0.0285
-0.0205
-0.02
-0.004
0.0015
0.0045
0.003
-0.0035
0.0015
0.004
0.0025
0.0045
0.0045
-0.0015
-0.0095
-0.0205
-0.0165
-0.011
-0.0195
-0.0285
-0.022
-0.0075
0.0025
0.01
0.0085
0.003
-0.006
-0.0165
-0.0285
-0.0245
-0.011
-0.008
-0.0045
-0.0025
0.005
0.0045
-0.0055
-0.013
-0.0205
-0.0165
-0.007
-0.003
-0.0055
-0.009
-0.0165
-0.0135
-0.0045
-0.0055
-0.0005
-0.002
-0.0105
-0.026
-0.04
-0.031
-0.0175
-0.0095
-0.013
-0.012
0.0025
0.0205
0.025
0.0095
-0.0005
-0.01
-0.0135
-0.011
-0.0035
0.0045
0.0025
0.0015
0.001
0.015
0.0235
0.0065
0.001
-0.0005
-0.003
0.001
0.0
0.0015
0.006
0.0065
0.0045
-0.003
-0.0145
-0.009
0.0115
0.02
0.007
-0.0195
-0.033
-0.0225
-0.0055
-0.0045
-0.0065
0.007
0.018
0.02
0.006
-0.008
-0.0045
0.0
0.008
0.0055
0.0035
-0.0055
-0.02
-0.0135
-0.005
0.0035
0.0015
-0.012
-0.0205
-0.018
-0.0215
-0.033
-0.034
-0.028
-0.0175
-0.022
-0.0355
-0.0365
-0.0415
-0.035
-0.0245
-0.0225
-0.0245
-0.034
-0.0265
-0.017
-0.022
-0.035
-0.037
-0.0275
-0.02
-0.017
-0.0265
-0.027
-0.0315
-0.038
-0.0345
-0.0295
-0.021
-0.0305
-0.051
-0.056
-0.053
-0.0505
-0.05
-0.044
-0.043
-0.047
-0.051
-0.0555
-0.047
-0.0415
-0.0445
-0.044
-0.0395
-0.046
-0.0515
-0.0435
-0.0365
-0.03
-0.027
-0.0335
-0.044
-0.0525
-0.056
-0.0555
-0.057
-0.058
-0.046
-0.0425
-0.043
-0.038
-0.0385
-0.026
-0.016
-0.008
-0.02
-0.039
-0.0325
-0.0205
-0.018
-0.027
-0.026
-0.0245
-0.02
-0.0305
-0.04
-0.0235
-0.0115
-0.003
-0.009
-0.027
-0.0345
-0.027
-0.031
-0.035
-0.0215
-0.019
-0.0155
-0.0195
-0.028
-0.0195
-0.0085
0.0015
-0.011
-0.0275
-0.021
-0.021
-0.025
-0.021
-0.0095
-0.0065
-0.0175
-0.0035
0.01
0.007
-0.008
-0.0065
0.0105
0.008
0.0065
0.0015
-0.0025
-0.006
-0.005
-0.0065
-0.008
-0.0035
-0.0085
-0.0125
-0.0095
0.0025
0.0025
-0.005
-0.0105
-0.0225
-0.0245
-0.0145
0.0
0.0125
0.0095
0.005
0.0035
0.0
0.011
0.018
0.022
0.0255
0.013
0.0075
0.005
0.0045
0.0075
0.013
0.017
0.007
-0.0035
-0.0115
-0.008
0.0015
-0.002
-0.0035
0.003
0.013
0.0135
0.006
0.0025
-0.001
0.003
0.009
0.0015
-0.0055
0.0125
0.022
0.023
0.012
-0.0075
-0.0005
-0.0005
0.003
0.0035
-0.004
0.003
0.0055
0.0085
0.0085
0.0065
0.0125
0.004
-0.0005
0.0035
-0.0015
-0.006
-0.0005
0.006
-0.003
-0.0125
-0.009
0.0055
0.0065
0.0025
0.0035
0.0055
0.007
0.0045
0.0145
0.014
0.005
-0.0045
-0.008
-0.0045
-0.01
-0.004
0.0135
0.0135
-0.0005
-0.002
0.003
0.005
0.0015
0.003
0.0045
0.0005
-0.002
-0.003
-0.001
0.005
0.008
-0.003
-0.016
-0.0205
-0.016
-0.0065
-0.0025
-0.0055
-0.0105
-0.0165
-0.016
-0.016
-0.0075
-0.007
-0.0175
-0.018
-0.0275
-0.0195
-0.0065
-0.011
-0.005
0.0015
0.007
-0.0025
-0.014
-0.0035
-0.007
-0.012
-0.0065
-0.0055
-0.016
-0.0225
-0.015
-0.01
-0.016
-0.031
-0.033
-0.0325
-0.0395
-0.041
-0.027
-0.0165
-0.0155
-0.004
0.0005
-0.0045
-0.019
-0.023
-0.022
-0.0245
-0.0125
-0.007
-0.016
-0.0165
-0.009
-0.0105
-0.0255
-0.043
-0.0365
-0.028
-0.0245
-0.0205
-0.0275
-0.0235
-0.0145
-0.008
0.0
0.0005
-0.009
-0.023
-0.0215
-0.0085
-0.012
-0.014
-0.0185
-0.024
-0.013
-0.001
-0.002
-0.006
-0.003
-0.0065
-0.0075
-0.017
-0.0275
-0.0145
0.0025
0.0105
0.0075
-0.0025
-0.016
-0.038
-0.0465
-0.047
-0.0365
-0.016
-0.019
-0.022
-0.022
-0.026
-0.025
-0.019
-0.008
0.0
-0.006
-0.011
-0.002
-0.011
-0.0235
-0.021
-0.016
-0.012
-0.01
-0.016
-0.029
-0.0345
-0.0325
-0.031
-0.024
-0.0115
-0.011
-0.011
-0.0145
-0.0145
-0.008
-0.0145
-0.016
-0.0165
-0.021
-0.028
-0.029
-0.033
-0.029
-0.009
-0.0015
-0.0175
-0.0335
-0.0225
-0.011
-0.011
0.0
0.0045
-0.0075
-0.02
-0.032
-0.0305
-0.015
-0.0025
0.003
0.0115
0.0185
0.015
0.0145
0.0085
-0.006
-0.0095
-0.0095
-0.0145
-0.022
-0.0315
-0.0385
-0.035
-0.024
-0.0165
-0.0145
-0.011
-0.0105
-0.0165
-0.013
0.002
0.0145
0.016
0.0045
-0.0065
-0.0035
0.0115
0.0265
0.0195
0.006
0.019
0.028
0.013
0.011
0.023
0.0125
-0.0095
-0.0095
0.0075
0.036
0.0505
0.04
0.042
0.05
0.035
0.027
0.032
0.0305
0.04
0.041
0.039
0.0395
0.0335
0.0325
0.0305
0.0405
0.056
0.0575
0.048
0.0415
0.0485
0.053
0.0375
0.0285
0.041
0.0445
0.045
0.0515
0.059
0.065
0.064
0.067
0.0695
0.0705
0.0835
0.0895
0.0755
0.0635
0.063
0.056
0.05
0.0495
0.0475
0.052
0.0595
0.056
0.05
0.0605
0.0635
0.055
0.045
0.034
0.0315
0.0245
0.0185
0.0095
0.0035
0.012
0.0205
0.011
0.0005
-0.0015
-0.005
-0.021
-0.0425
-0.03
-0.012
-0.018
-0.033
-0.0265
-0.014
-0.02
-0.032
-0.035
-0.0185
-0.0115
-0.015
-0.0035
-0.0055
-0.0225
-0.031
-0.039
-0.021
-0.0085
-0.0155
-0.0295
-0.0435
-0.039
-0.0405
-0.0315
-0.0175
-0.0195
-0.014
-0.0155
-0.0245
-0.0245
-0.0355
-0.0435
-0.039
-0.036
-0.0355
-0.034
-0.0295
-0.026
-0.031
-0.022
-0.0215
-0.04
-0.044
-0.0395
-0.037
-0.0345
-0.0245
-0.0155
-0.017
-0.0185
-0.0345
-0.052
-0.047
-0.0475
-0.057
-0.057
-0.048
-0.05
-0.07
-0.0755
-0.0635
-0.06
-0.0685
-0.078
-0.0885
-0.0965
-0.087
-0.085
-0.071
-0.0465
-0.0155
0.0285
0.0515
0.079
0.124
0.177
0.228
0.271
0.3295
0.384
0.4105
0.4485
0.4985
0.5485
0.596
0.6235
0.65
0.635
0.601
0.595
0.5675
0.5335
0.52
0.502
0.4905
0.4765
0.442
0.4
0.353
0.3075
0.2515
0.19
0.131
0.069
0.001
-0.05
-0.076
-0.119
-0.151
-0.1445
-0.1285
-0.1
-0.1065
-0.125
-0.1205
-0.1265
-0.108
-0.085
-0.076
-0.0615
-0.0385
-0.0385
-0.054
-0.0465
-0.0425
-0.035
-0.033
-0.0435
-0.045
-0.0445
-0.039
-0.0375
-0.0395
-0.041
-0.04
-0.0355
-0.0395
-0.044
-0.0475
-0.0545
-0.044
-0.0295
-0.023
-0.018
-0.0275
-0.037
-0.0295
-0.021
-0.016
-0.0225
-0.037
-0.0395
-0.0335
-0.0315
-0.029
-0.028
-0.045
-0.0585
-0.051
-0.0415
-0.0375
-0.039
-0.0375
-0.0235
-0.022
-0.0385
-0.0405
-0.046
-0.054
-0.041
-0.029
-0.0225
-0.019
-0.0295
-0.0475
-0.0475
-0.0435
-0.0345
-0.039
-0.0465
-0.023
-0.0235
-0.039
-0.032
-0.022
-0.0295
-0.0305
-0.024
-0.026
-0.0315
-0.039
-0.0405
-0.0385
-0.0365
-0.028
-0.0405
-0.0465
-0.027
-0.0225
-0.015
-0.0125
-0.0205
-0.0215
-0.029
-0.027
-0.0275
-0.0355
-0.0365
-0.033
-0.029
-0.0265
-0.0155
-0.016
-0.02
-0.015
-0.0275
-0.041
-0.0435
-0.0415
-0.0355
-0.033
-0.022
-0.0215
-0.0195
-0.0115
-0.01
-0.0025
-0.0105
-0.012
-0.0005
0.003
0.0125
0.0115
0.0
0.002
0.0075
0.0155
-0.0005
-0.0325
-0.037
-0.0465
-0.0465
-0.0395
-0.039
-0.034
-0.034
-0.0235
-0.0255
-0.029
-0.011
0.009
0.0125
0.002
-0.007
-0.012
-0.008
-0.0075
-0.0005
-0.004
-0.0195
-0.0155
-0.016
-0.0165
-0.015
-0.01
-0.015
-0.024
-0.015
-0.021
-0.0225
-0.0165
-0.017
-0.0145
-0.015
-0.005
-0.001
-0.0185
-0.0245
-0.017
-0.01
-0.0085
-0.011
-0.0125
-0.0235
-0.033
-0.027
-0.0165
-0.02
-0.0315
-0.041
-0.026
0.001
0.0075
0.009
-0.001
-0.0145
-0.028
-0.026
-0.009
-0.004
0.0005
0.006
0.016
0.01
-0.005
0.0025
-0.011
-0.0355
-0.038
-0.034
-0.0325
-0.027
-0.022
-0.027
-0.0345
-0.029
-0.021
-0.0375
-0.044
-0.041
-0.048
-0.052
-0.0515
-0.0505
-0.045
-0.037
-0.031
-0.028
-0.0205
-0.025
-0.04
-0.029
-0.0215
-0.0315
-0.0395
-0.0485
-0.06
-0.0475
-0.039
-0.052
-0.059
-0.0665
-0.0535
-0.0495
-0.0635
-0.0665
-0.0705
-0.061
-0.0555
-0.058
-0.0635
-0.0705
-0.063
-0.065
-0.066
-0.0725
-0.0775
-0.066
-0.0645
-0.057
-0.047
-0.064
-0.0825
-0.0785
-0.0795
-0.0735
-0.054
-0.0485
-0.046
-0.0515
-0.055
-0.0515
-0.0565
-0.068
-0.0535
-0.048
-0.0835
-0.0855
-0.0775
-0.0635
-0.055
-0.0665
-0.057
-0.0425
-0.0335
-0.0295
-0.035
-0.053
-0.0625
-0.0575
-0.053
-0.0345
-0.034
-0.0475
-0.039
-0.031
-0.031
-0.0295
-0.015
-0.0125
-0.0165
-0.0145
-0.026
-0.0275
-0.0265
-0.0215
-0.012
-0.011
-0.004
-0.0115
-0.0295
-0.0435
-0.0465
-0.0435
-0.043
-0.032
-0.0345
-0.036
-0.0365
-0.047
-0.0505
-0.0475
-0.0445
-0.0385
-0.0265
-0.032
-0.039
-0.0465
-0.029
-0.001
-0.015
-0.0205
-0.014
-0.0245
-0.029
-0.009
-0.011
-0.0265
-0.0265
-0.024
-0.021
-0.022
-0.02
-0.032
-0.0445
-0.0455
-0.0395
-0.035
-0.026
-0.0135
-0.023
-0.027
-0.023
-0.0185
-0.028
-0.0375
-0.0325
-0.037
-0.0195
-0.0105
-0.029
-0.03
-0.029
-0.0215
-0.012
-0.0135
-0.0125
-0.0105
-0.0135
-0.018
-0.018
-0.0235
-0.029
-0.0315
-0.021
-0.0245
-0.0285
-0.0105
-0.014
-0.018
-0.0285
-0.0285
-0.0245
-0.031
-0.0205
-0.026
-0.029
-0.024
-0.0315
-0.042
-0.0285
-0.0175
-0.0185
-0.011
-0.008
-0.0065
-0.0035
-0.002
-0.0155
-0.004
0.009
0.0045
0.009
-0.003
-0.0185
-0.0235
-0.028
-0.0295
-0.0345
-0.0335
-0.0305
-0.0465
-0.042
-0.035
-0.034
-0.0275
-0.028
-0.0265
-0.0295
-0.0315
-0.031
-0.0355
-0.041
-0.0335
-0.0325
-0.037
-0.0265
-0.0175
-0.015
-0.0165
-0.022
-0.0235
-0.0145
-0.0185
-0.0365
-0.031
-0.024
-0.0225
-0.018
-0.0355
-0.055
-0.0555
-0.0335
-0.0165
-0.0225
-0.0275
-0.033
-0.0375
-0.0425
-0.043
-0.038
-0.0305
-0.029
-0.0225
-0.013
-0.018
-0.0325
-0.0515
-0.0475
-0.0275
-0.023
-0.04
-0.036
-0.032
-0.0425
-0.0405
-0.0405
-0.0365
-0.0265
-0.0325
-0.043
-0.0385
-0.0395
-0.042
-0.043
-0.045
-0.041
-0.036
-0.033
-0.04
-0.0435
-0.028
-0.0305
-0.053
-0.0555
-0.0445
-0.0405
-0.028
-0.015
-0.018
-0.027
-0.041
-0.052
-0.0485
-0.045
-0.0525
-0.0455
-0.0335
-0.0415
-0.0635
-0.0745
-0.0775
-0.057
-0.0325
-0.0365
-0.0365
-0.039
-0.0325
-0.034
-0.0435
-0.0505
-0.048
-0.032
-0.0425
-0.056
-0.0535
-0.046
-0.039
-0.0305
-0.0295
-0.038
-0.037
-0.0335
-0.0345
-0.0345
-0.037
-0.0445
-0.042
-0.0375
-0.0405
-0.0415
-0.0525
-0.059
-0.051
-0.035
-0.0265
-0.031
-0.036
-0.0485
-0.0525
-0.0475
-0.0505
-0.053
-0.0515
-0.043
-0.0345
-0.042
-0.0485
-0.0545
-0.0735
-0.077
-0.0695
-0.048
-0.0315
-0.0225
-0.01
-0.0285
-0.0425
-0.046
-0.04
-0.039
-0.0575
-0.06
-0.0555
-0.0525
-0.0525
-0.0445
-0.0435
-0.047
-0.0385
-0.0365
-0.038
-0.034
-0.031
-0.0305
-0.0285
-0.0235
-0.0195
-0.0175
-0.0255
-0.0365
-0.0345
-0.0305
-0.0345
-0.0365
-0.0405
-0.0375
-0.018
-0.037
-0.0795
-0.0805
-0.0585
-0.038
-0.0335
-0.047
-0.053
-0.047
-0.0485
-0.053
-0.039
-0.013
0.005
-0.003
-0.02
-0.0275
-0.032
-0.0335
-0.044
-0.042
-0.0295
-0.027
-0.021
-0.016
-0.023
-0.0245
-0.017
-0.01
-0.0085
-0.0035
-0.001
-0.0085
-0.0005
0.007
0.01
0.0
-0.005
0.0195
0.0265
0.0235
0.037
0.029
0.01
0.0105
0.016
0.0195
-0.001
-0.0205
-0.015
0.004
0.0165
0.0175
0.018
0.012
0.0205
0.0235
0.0215
0.035
0.044
0.0465
0.045
0.0395
0.036
0.0445
0.05
0.054
0.054
0.0535
0.0595
0.042
0.0365
0.0255
0.0095
0.0255
0.0405
0.0515
0.05
0.056
0.0465
0.017
-0.006
-0.0305
-0.0325
-0.0265
-0.013
0.0025
-0.0015
-0.0185
-0.0255
-0.027
-0.0425
-0.0345
-0.0315
-0.048
-0.05
-0.052
-0.0555
-0.058
-0.0655
-0.053
-0.0295
-0.04
-0.046
-0.04
-0.042
-0.0435
-0.046
-0.0465
-0.0535
-0.0535
-0.044
-0.0375
-0.0385
-0.051
-0.0595
-0.059
-0.0645
-0.0665
-0.055
-0.0535
-0.061
-0.0565
-0.0345
-0.0395
-0.052
-0.046
-0.037
-0.035
-0.0535
-0.056
-0.0465
-0.041
-0.055
-0.0535
-0.057
-0.0695
-0.0645
-0.066
-0.055
-0.0425
-0.0425
-0.053
-0.0525
-0.0575
-0.0575
-0.057
-0.0555
-0.041
-0.049
-0.056
-0.055
-0.066
-0.0885
-0.0875
-0.0705
-0.079
-0.091
-0.095
-0.107
-0.109
-0.103
-0.0845
-0.0645
-0.054
-0.0325
-0.022
0.002
0.046
0.082
0.1365
0.1945
0.262
0.3285
0.361
0.387
0.4235
0.4665
0.511
0.5455
0.572
0.575
0.5435
0.5265
0.5165
0.4895
0.4675
0.4335
0.4115
0.4095
0.392
0.3695
0.3265
0.2755
0.2325
0.182
0.1235
0.0555
-0.0125
-0.056
-0.0745
-0.0925
-0.1225
-0.1445
-0.144
-0.141
-0.1405
-0.1325
-0.1285
-0.1365
-0.1265
-0.101
-0.083
-0.0745
-0.0625
-0.057
-0.0595
-0.0605
-0.061
-0.054
-0.064
-0.068
-0.0565
-0.063
-0.062
-0.063
-0.069
-0.065
-0.0535
-0.054
-0.0525
-0.0415
-0.0565
-0.06
-0.045
-0.0505
-0.055
-0.036
-0.0465
-0.0675
-0.0585
-0.0505
-0.0475
-0.0505
-0.0555
-0.0585
-0.058
-0.046
-0.0375
-0.031
-0.032
-0.043
-0.041
-0.0465
-0.0535
-0.0495
-0.0415
-0.041
-0.046
-0.0465
-0.0535
-0.054
-0.0525
-0.0515
-0.039
-0.0245
-0.0245
-0.0525
-0.0695
-0.051
-0.0395
-0.0375
-0.049
-0.0555
-0.041
-0.056
-0.07
-0.0635
-0.0535
-0.0445
-0.053
-0.0445
-0.039
-0.0495
-0.058
-0.062
-0.043
-0.0305
-0.016
-0.0075
-0.016
-0.024
-0.042
-0.035
-0.035
-0.056
-0.0585
-0.049
-0.048
-0.0595
-0.052
-0.0405
-0.0415
-0.0365
-0.041
-0.058
-0.07
-0.065
-0.062
-0.0675
-0.061
-0.0535
-0.0355
-0.0315
-0.0485
-0.0445
-0.048
-0.0475
-0.039
-0.036
-0.036
-0.042
-0.037
-0.042
-0.0425
-0.048
-0.052
-0.0415
-0.04
-0.0265
-0.021
-0.0205
-0.0315
-0.038
-0.0265
-0.038
-0.044
-0.0305
-0.0205
-0.0275
-0.048
-0.0665
-0.065
-0.041
-0.0375
-0.0425
-0.0365
-0.0485
-0.0515
-0.0515
-0.0465
-0.04
-0.0475
-0.048
-0.054
-0.0595
-0.0585
-0.0545
-0.046
-0.0355
-0.019
-0.008
-0.006
-0.012
-0.0365
-0.054
-0.0495
-0.04
-0.041
-0.039
-0.025
-0.0225
-0.0225
-0.0145
-0.0025
-0.0135
-0.054
-0.069
-0.055
-0.0435
-0.04
-0.0395
-0.04
-0.044
-0.037
-0.0355
-0.0365
-0.0165
-0.0195
-0.0345
-0.0435
-0.054
-0.0555
-0.042
-0.0275
-0.008
0.0005
-0.0185
-0.03
-0.042
-0.038
-0.04
-0.0595
-0.0515
-0.0455
-0.0665
-0.07
-0.0575
-0.0595
-0.056
-0.0555
-0.0635
-0.0565
-0.04
-0.0425
-0.058
-0.065
-0.0675
-0.079
-0.0835
-0.0835
-0.076
-0.0795
-0.0855
-0.0625
-0.062
-0.0705
-0.0595
-0.035
-0.0425
-0.0635
-0.074
-0.0845
-0.0825
-0.0915
-0.081
-0.08
-0.1035
-0.0995
-0.098
-0.1
-0.1045
-0.1155
-0.107
-0.1045
-0.0985
-0.0905
-0.0885
-0.0785
-0.076
-0.088
-0.098
-0.103
-0.0905
-0.083
-0.0895
-0.0805
-0.092
-0.0945
-0.092
-0.0925
-0.0815
-0.0855
-0.095
-0.104
-0.095
-0.0685
-0.0705
-0.092
-0.0845
-0.077
-0.0765
-0.078
-0.0785
-0.075
-0.0805
-0.082
-0.0825
-0.0775
-0.0795
-0.0765
-0.062
-0.0615
-0.066
-0.065
-0.059
-0.065
-0.087
-0.0815
-0.067
-0.0855
-0.1
-0.086
-0.0705
-0.082
-0.0765
-0.056
-0.0575
-0.0605
-0.06
-0.045
-0.037
-0.073
-0.078
-0.0565
-0.0555
-0.0505
-0.058
-0.0635
-0.063
-0.0595
-0.061
-0.056
-0.059
-0.068
-0.0635
-0.0725
-0.0715
-0.058
-0.0485
-0.048
-0.052
-0.0495
-0.051
-0.042
-0.0405
-0.063
-0.0725
-0.0685
-0.063
-0.0555
-0.0465
-0.054
-0.056
-0.0495
-0.0535
-0.0475
-0.058
-0.063
-0.042
-0.042
-0.0355
-0.0275
-0.0465
-0.0545
-0.058
-0.0545
-0.057
-0.0645
-0.071
-0.0815
-0.076
-0.072
-0.066
-0.069
-0.078
-0.069
-0.055
-0.0425
-0.032
-0.034
-0.046
-0.0515
-0.039
-0.035
-0.048
-0.049
-0.0535
-0.0555
-0.05
-0.0435
-0.036
-0.045
-0.0555
-0.057
-0.049
-0.042
-0.036
-0.0215
-0.0375
-0.046
-0.0415
-0.057
-0.0555
-0.0505
-0.057
-0.064
-0.0605
-0.0545
-0.044
-0.041
-0.0505
-0.0475
-0.0415
-0.033
-0.034
-0.043
-0.043
-0.062
-0.071
-0.0465
-0.0415
-0.055
-0.066
-0.0605
-0.0545
-0.047
-0.04
-0.0445
-0.0295
-0.032
-0.0435
-0.047
-0.0625
-0.0725
-0.0755
-0.056
-0.0515
-0.0435
-0.0445
-0.062
-0.0545
-0.062
-0.052
-0.0595
-0.0675
-0.052
-0.051
-0.041
-0.0415
-0.035
-0.041
-0.054
-0.047
-0.0435
-0.042
-0.0495
-0.061
-0.0555
-0.0505
-0.0415
-0.035
-0.0405
-0.042
-0.054
-0.0605
-0.056
-0.0575
-0.06
-0.07
-0.074
-0.0455
-0.0305
-0.041
-0.045
-0.059
-0.079
-0.078
-0.0525
-0.042
-0.0455
-0.048
-0.0575
-0.0555
-0.05
-0.0525
-0.048
-0.0515
-0.0695
-0.0785
-0.0765
-0.071
-0.067
-0.0635
-0.0595
-0.061
-0.0505
-0.0435
-0.062
-0.057
-0.07
-0.0685
-0.039
-0.06
-0.065
-0.062
-0.0655
-0.0645
-0.07
-0.071
-0.071
-0.077
-0.09
-0.088
-0.0645
-0.0495
-0.054
-0.061
-0.0615
-0.0605
-0.0585
-0.0685
-0.0875
-0.0755
-0.0695
-0.0775
-0.0615
-0.057
-0.0685
-0.0695
-0.075
-0.073
-0.0705
-0.0775
-0.059
-0.0565
-0.0635
-0.0575
-0.063
-0.062
-0.0585
-0.051
-0.056
-0.0575
-0.05
-0.0415
-0.039
-0.054
-0.04
-0.042
-0.0525
-0.059
-0.0865
-0.074
-0.0655
-0.0645
-0.0555
-0.0535
-0.0515
-0.071
-0.0835
-0.0795
-0.0735
-0.078
-0.083
-0.0795
-0.089
-0.0795
-0.048
-0.0535
-0.0615
-0.0665
-0.075
-0.054
-0.0545
-0.0575
-0.0645
-0.07
-0.0705
-0.0795
-0.066
-0.0645
-0.065
-0.053
-0.0485
-0.0475
-0.062
-0.073
-0.0605
-0.054
-0.037
-0.049
-0.057
-0.0365
-0.049
-0.051
-0.0535
-0.068
-0.0775
-0.081
-0.0665
-0.053
-0.0635
-0.0565
-0.0455
-0.0555
-0.041
-0.0465
-0.052
-0.0395
-0.0315
-0.028
-0.046
-0.044
-0.037
-0.0435
-0.038
-0.0365
-0.0355
-0.0345
-0.037
-0.0455
-0.0545
-0.039
-0.027
-0.032
-0.039
-0.037
-0.02
-0.0075
-0.0125
-0.0245
-0.031
-0.0175
-0.017
-0.0195
-0.0005
-0.0085
-0.027
-0.027
-0.026
-0.029
-0.0265
-0.0165
-0.0215
-0.0195
0.0035
0.0045
0.001
-0.0045
0.008
0.0155
-0.0035
-0.0035
0.003
0.015
0.0105
0.023
0.0225
0.0125
0.028
-0.005
-0.0055
0.0
-0.0335
-0.022
-0.0255
-0.023
-0.006
-0.0155
-0.023
-0.015
-0.003
-0.019
-0.0245
-0.0175
-0.0275
-0.0335
-0.0345
-0.049
-0.064
-0.057
-0.0455
-0.054
-0.0775
-0.075
-0.071
-0.075
-0.08
-0.081
-0.065
-0.072
-0.061
-0.061
-0.0615
-0.0465
-0.06
-0.0645
-0.0705
-0.0695
-0.0725
-0.0885
-0.0975
-0.0885
-0.083
-0.082
-0.067
-0.0855
-0.0745
-0.071
-0.089
-0.0655
-0.0725
-0.078
-0.063
-0.0565
-0.06
-0.071
-0.0615
-0.062
-0.0805
-0.077
-0.0755
-0.0625
-0.0465
-0.0595
-0.075
-0.0785
-0.0735
-0.0825
-0.088
-0.086
-0.08
-0.081
-0.0845
-0.0705
-0.065
-0.067
-0.0725
-0.0815
-0.097
-0.109
-0.104
-0.101
-0.1035
-0.091
-0.073
-0.0835
-0.12
-0.136
-0.116
-0.089
-0.091
-0.111
-0.097
-0.073
-0.047
-0.0355
-0.023
0.0215
0.072
0.135
0.17
0.2055
0.2685
0.301
0.3375
0.396
0.452
0.493
0.516
0.533
0.502
0.465
0.4445
0.413
0.4165
0.401
0.3605
0.3385
0.335
0.3365
0.3145
0.2635
0.201
0.1535
0.0995
0.0495
-0.011
-0.0735
-0.081
-0.082
-0.11
-0.132
-0.153
-0.1625
-0.176
-0.1785
-0.1545
-0.151
-0.1345
-0.123
-0.141
-0.141
-0.115
-0.095
-0.0885
-0.0845
-0.08
-0.0885
-0.1025
-0.11
-0.1055
-0.092
-0.078
-0.0625
-0.074
-0.092
