ECG
0.254
0.263
0.2755
0.28
0.3035
0.305
0.281
0.28
0.2565
0.214
0.214
0.218
0.212
0.2355
0.241
0.253
0.266
0.265
0.2725
0.252
0.2415
0.262
0.2635
0.2575
0.241
0.2055
0.232
0.2405
0.2195
0.2305
0.226
0.2305
0.2335
0.234
0.221
0.1915
0.181
0.183
0.1895
0.199
0.196
0.1945
0.1985
0.2145
0.216
0.197
0.2085
0.1755
0.1455
0.1445
0.1415
0.154
0.1665
0.1985
0.1995
0.1695
0.111
0.087
0.111
0.1605
0.2025
0.202
0.2405
0.2375
0.216
0.1765
0.1225
0.1275
0.127
0.13
0.142
0.144
0.15
0.15
0.12
0.113
0.1325
0.1345
0.1365
0.139
0.1355
0.1385
0.13
0.129
0.161
0.1615
0.1335
0.1445
0.1495
0.125
0.129
0.129
0.1175
0.119
0.118
0.1175
0.108
0.098
0.076
0.073
0.0925
0.0935
0.0965
0.1015
0.13
0.156
0.144
0.1365
0.1345
0.1255
0.1315
0.167
0.176
0.149
0.157
0.137
0.0925
0.1465
0.197
0.1675
0.1345
0.1385
0.113
0.0945
0.1495
0.1685
0.15
0.14
0.1095
0.1075
0.1055
0.086
0.1455
0.1785
0.1645
0.1535
0.141
0.1405
0.1545
0.1745
0.154
0.144
0.13
0.115
0.1215
0.125
0.1175
0.107
0.125
0.154
0.164
0.1805
0.194
0.187
0.1745
0.174
0.207
0.1975
0.2115
0.275
0.326
0.2995
0.1835
0.165
0.179
0.141
0.1165
0.1175
0.1115
0.072
0.0575
0.088
0.131
0.1505
0.1465
0.1185
0.113
0.139
0.144
0.1445
0.142
0.1355
0.1375
0.1465
0.1455
0.128
0.119
0.131
0.136
0.136
0.1465
0.1505
0.154
0.1565
0.1565
0.1585
0.155
0.153
0.157
0.148
0.1365
0.136
0.137
0.1475
0.148
0.14
0.138
0.14
0.1535
0.163
0.175
0.1845
0.1745
0.1525
0.1355
0.132
0.152
0.186
0.206
0.197
0.1815
0.1785
0.165
0.1545
0.167
0.1745
0.162
0.154
0.15
0.1605
0.1635
0.145
0.135
0.123
0.1345
0.13
0.1315
0.1415
0.1605
0.199
0.205
0.22
0.181
0.1325
0.0945
0.0845
0.153
0.273
0.3805
0.3445
0.3255
0.314
0.2345
0.2145
0.234
0.227
0.197
0.2425
0.3135
0.319
0.303
0.265
0.2455
0.2425
0.2295
0.2335
0.2235
0.224
0.228
0.221
0.2285
0.231
0.225
0.213
0.204
0.198
0.2025
0.2095
0.2245
0.2565
0.2465
0.201
0.1665
0.204
0.245
0.215
0.216
0.211
0.2045
0.2215
0.224
0.2385
0.249
0.2515
0.244
0.2195
0.212
0.2255
0.2175
0.2165
0.228
0.221
0.188
0.1615
0.176
0.1625
0.126
0.1405
0.1635
0.196
0.225
0.1935
0.162
0.1325
0.109
0.1245
0.1265
0.1255
0.1475
0.138
0.131
0.141
0.148
0.163
0.1755
0.1565
0.1365
0.177
0.1915
0.1365
0.0975
0.1055
0.127
0.1275
0.125
0.1405
0.123
0.113
0.1415
0.159
0.1375
0.089
0.0965
0.1115
0.13
0.1575
0.1405
0.1705
0.1715
0.1245
0.123
0.1275
0.111
0.0945
0.13
0.139
0.1385
0.162
0.117
0.095
0.1155
0.1075
0.1165
0.117
0.1095
0.11
0.0985
0.07
0.056
0.0515
0.054
0.076
0.0365
-0.0095
-0.02
-0.031
-0.018
-0.035
-0.1015
-0.126
-0.11
-0.099
-0.0915
-0.092
-0.096
-0.1255
-0.1395
-0.119
-0.1465
-0.1605
-0.1015
-0.0415
0.0055
-0.0205
0.0095
0.1275
0.1355
0.1715
0.2455
0.283
0.3365
0.401
0.439
0.456
0.5095
0.578
0.6505
0.691
0.689
0.7215
0.7495
0.7635
0.7955
0.807
0.7875
0.768
0.7915
0.827
0.79
0.774
0.7975
0.7585
0.7125
0.6585
0.5955
0.5645
0.573
0.5575
0.5485
0.546
0.4995
0.469
0.4325
0.398
0.391
0.3865
0.371
0.3415
0.302
0.271
0.223
0.18
0.1615
0.1425
0.152
0.1485
0.145
0.112
0.061
0.0275
-0.0305
-0.038
-0.0085
-0.002
-0.0435
-0.0885
-0.1025
-0.1245
-0.1625
-0.167
-0.1315
-0.132
-0.138
-0.158
-0.1815
-0.167
-0.183
-0.2125
-0.213
-0.191
-0.156
-0.1735
-0.219
-0.267
-0.344
-0.329
-0.2825
-0.279
-0.2945
-0.3325
-0.2975
-0.2455
-0.2515
-0.28
-0.274
-0.2405
-0.263
-0.262
-0.239
-0.2235
-0.2115
-0.2385
-0.2405
-0.247
-0.2365
-0.235
-0.219
-0.173
-0.14
-0.1155
-0.1365
-0.0985
-0.081
-0.085
-0.0435
-0.0485
-0.0885
-0.0345
0.0595
0.0725
0.104
0.0785
0.0245
0.0175
-0.0295
-0.0495
0.0195
0.0545
0.057
0.052
0.0305
0.0725
0.096
0.0915
0.1155
0.1405
0.1075
0.0585
0.0725
0.096
0.0985
0.091
0.107
0.117
0.093
0.0985
0.1105
0.139
0.16
0.149
0.1645
0.1405
0.103
0.1035
0.1175
0.116
0.119
0.1515
0.1555
0.1355
0.1255
0.109
0.103
0.119
0.121
0.126
0.1525
0.161
0.1335
0.1015
0.0545
0.0635
0.12
0.1515
0.1755
0.1955
0.203
0.188
0.175
0.13
0.064
0.039
0.078
0.114
0.098
0.099
0.099
0.1165
0.144
0.148
0.1565
0.148
0.1145
0.0995
0.1345
0.1655
0.193
0.165
0.0985
0.0825
0.107
0.149
0.1555
0.137
0.1335
0.1715
0.209
0.1735
0.141
0.1305
0.1175
0.1645
0.2155
0.201
0.128
0.106
0.165
0.1525
0.1155
0.155
0.191
0.191
0.186
0.188
0.161
0.1475
0.1565
0.1515
0.1425
0.143
0.1595
0.1915
0.2245
0.2045
0.1815
0.1555
0.105
0.114
0.1785
0.2225
0.246
0.2235
0.212
0.228
0.2165
0.224
0.2275
0.2255
0.234
0.245
0.257
0.264
0.2575
0.2405
0.234
0.232
0.2245
0.216
0.2235
0.2475
0.256
0.264
0.276
0.291
0.3235
0.33
0.2735
0.2365
0.256
0.2665
0.284
0.266
0.2395
0.2655
0.275
0.264
0.2565
0.2565
0.257
0.2365
0.2625
0.3455
0.362
0.31
0.2715
0.242
0.2675
0.3355
0.3735
0.3845
0.3515
0.344
0.35
0.35
0.33
0.294
0.289
0.304
0.3375
0.3505
0.351
0.3405
0.3565
0.361
0.339
0.351
0.3345
0.2995
0.31
0.345
0.364
0.358
0.349
0.3305
0.288
0.2675
0.2955
0.3455
0.355
0.338
0.3245
0.2805
0.261
0.294
0.269
0.263
0.363
0.412
0.428
0.4085
0.342
0.328
0.2925
0.2875
0.2895
0.261
0.303
0.3385
0.334
0.288
0.261
0.262
0.2675
0.291
0.2885
0.294
0.293
0.2955
0.296
0.2905
0.298
0.288
0.2855
0.276
0.2675
0.278
0.275
0.262
0.2545
0.272
0.285
0.2965
0.265
0.2505
0.278
0.2715
0.2685
0.265
0.2635
0.272
0.3085
0.313
0.293
0.2905
0.301
0.305
0.304
0.3175
0.2925
0.256
0.2605
0.288
0.221
0.149
0.148
0.1315
0.1375
0.1745
0.209
0.238
0.257
0.2375
0.1765
0.1875
0.238
0.172
0.1795
0.238
0.1955
0.184
0.197
0.1905
0.1945
0.1995
0.207
0.215
0.192
0.184
0.1835
0.167
0.1685
0.1675
0.168
0.1785
0.1845
0.1795
0.167
0.174
0.169
0.1535
0.144
0.139
0.154
0.1255
0.1205
0.151
0.153
0.16
0.1445
0.1445
0.1585
0.175
0.177
0.1615
0.18
0.168
0.142
0.121
0.1125
0.129
0.137
0.1415
0.127
0.122
0.1235
0.131
0.145
0.1425
0.1585
0.1585
0.149
0.14
0.136
0.136
0.1135
0.113
0.1195
0.116
0.118
0.122
0.091
0.078
0.1155
0.152
0.172
0.1095
0.0645
0.15
0.2335
0.238
0.1615
0.085
0.148
0.216
0.1955
0.153
0.115
0.1375
0.148
0.125
0.1295
0.124
0.11
0.135
0.165
0.147
0.1585
0.164
0.1195
0.072
0.0735
0.1355
0.121
0.1075
0.1665
0.168
0.14
0.137
0.14
0.1415
0.13
0.1395
0.1405
0.1235
0.1385
0.142
0.134
0.151
0.1815
0.1855
0.1555
0.141
0.1425
0.129
0.1245
0.1125
0.1335
0.1525
0.1505
0.1875
0.175
0.1245
0.103
0.103
0.1225
0.159
0.1805
0.1945
0.1715
0.1255
0.1165
0.148
0.162
0.1325
0.135
0.151
0.154
0.1695
0.1535
0.1415
0.165
0.1625
0.136
0.1165
0.123
0.137
0.1785
0.1945
0.1545
0.11
0.0425
0.073
0.1605
0.2095
0.256
0.2195
0.179
0.1745
0.149
0.136
0.136
0.117
0.0685
0.109
0.153
0.108
0.154
0.1975
0.1435
0.117
0.1225
0.1255
0.137
0.1445
0.1465
0.1545
0.1495
0.1485
0.1545
0.153
0.152
0.1605
0.163
0.1595
0.1645
0.1585
0.1585
0.1495
0.13
0.1365
0.1485
0.152
0.16
0.163
0.1625
0.167
0.1505
0.1485
0.1635
0.154
0.1645
0.172
0.1595
0.136
0.1025
0.113
0.1055
0.081
0.08
0.25
0.4235
0.3225
0.2395
0.2505
0.276
0.2495
0.231
0.3055
0.311
0.309
0.287
0.2095
0.2155
0.2265
0.2165
0.2145
0.1955
0.2065
0.209
0.215
0.2125
0.2075
0.2195
0.214
0.209
0.208
0.22
0.2285
0.235
0.245
0.252
0.2505
0.249
0.25
0.2585
0.262
0.2445
0.2265
0.2045
0.22
0.214
0.203
0.1955
0.17
0.1875
0.188
0.1775
0.163
0.157
0.166
0.165
0.159
0.15
0.139
0.139
0.1255
0.111
0.1265
0.1405
0.168
0.171
0.1555
0.145
0.1235
0.116
0.109
0.1105
0.1245
0.128
0.1365
0.1465
0.147
0.1465
0.153
0.1585
0.163
0.16
0.1475
0.1345
0.132
0.138
0.1485
0.1685
0.1565
0.1265
0.1215
0.1175
0.1105
0.129
0.1505
0.155
0.134
0.1195
0.138
0.146
0.1515
0.146
0.143
0.155
0.155
0.1625
0.1855
0.2235
0.187
0.0915
0.081
0.1075
0.077
0.083
0.1585
0.167
0.12
0.0785
0.077
0.0955
0.067
0.0925
0.141
0.0815
-0.0035
-0.05
-0.02
-0.004
-0.0335
-0.025
-0.032
-0.059
-0.097
-0.1205
-0.134
-0.138
-0.132
-0.141
-0.14
-0.164
-0.19
-0.2075
-0.1975
-0.1445
-0.122
-0.117
-0.0835
-0.0105
0.048
0.1
0.1515
0.183
0.199
0.231
0.294
0.3505
0.424
0.49
0.5405
0.5845
0.627
0.6915
0.7275
0.7115
0.7285
0.7705
0.7685
0.7475
0.759
0.772
0.766
0.7945
0.7715
0.747
0.741
0.699
0.655
0.605
0.5895
0.554
0.555
0.541
0.4695
0.485
0.512
0.4525
0.3825
0.35
0.336
0.3235
0.2815
0.285
0.277
0.2245
0.212
0.1935
0.1505
0.121
0.136
0.12
0.097
0.0655
0.034
0.051
0.025
0.0195
-0.023
-0.0815
-0.06
-0.08
-0.0885
-0.0805
-0.101
-0.129
-0.1525
-0.1455
-0.1645
-0.215
-0.256
-0.2635
-0.248
-0.236
-0.2405
-0.278
-0.281
-0.262
-0.2805
-0.269
-0.26
-0.2565
-0.2485
-0.285
-0.315
-0.307
-0.2945
-0.2825
-0.2745
-0.288
-0.3
-0.3085
-0.316
-0.2655
-0.1955
-0.2085
-0.2395
-0.262
-0.248
-0.1875
-0.17
-0.182
-0.1845
-0.174
-0.1815
-0.1645
-0.1515
-0.1825
-0.161
-0.1445
-0.114
-0.052
-0.049
-0.046
-0.045
-0.041
-0.0325
-0.0325
-0.022
-0.0035
0.0185
0.0275
0.04
0.042
0.0525
0.052
0.027
0.044
0.0525
0.0445
0.047
0.042
0.0555
0.091
0.119
0.0995
0.0825
0.0885
0.1005
0.114
0.1735
0.2295
0.1685
0.0695
0.008
0.0385
0.0385
0.0335
0.077
0.045
0.076
0.144
0.158
0.161
0.162
0.113
0.0075
0.03
0.1355
0.1585
0.1585
0.131
0.095
0.1005
0.123
0.148
0.1555
0.155
0.13
0.093
0.1055
0.143
0.147
0.1405
0.1505
0.1515
0.1455
0.1425
0.139
0.1295
0.121
0.128
0.1445
0.1645
0.15
0.1855
0.215
0.1745
0.1565
0.148
0.1705
0.186
0.142
0.133
0.171
0.123
0.056
0.0975
0.16
0.1645
0.1665
0.196
0.212
0.2095
0.169
0.1205
0.1275
0.1355
0.141
0.1315
0.1385
0.1625
0.162
0.1555
0.1475
0.168
0.1295
0.12
0.155
0.1615
0.1515
0.1375
0.139
0.14
0.1885
0.2
0.2135
0.2475
0.2275
0.217
0.2155
0.2265
0.255
0.2505
0.2365
0.2315
0.231
0.2305
0.2075
0.2035
0.196
0.1985
0.1945
0.232
0.253
0.2235
0.2425
0.255
0.267
0.2715
0.307
0.313
0.2725
0.279
0.291
0.262
0.2305
0.2105
0.193
0.2385
0.272
0.271
0.2845
0.2745
0.2585
0.255
0.25
0.262
0.288
0.31
0.324
0.3025
0.2965
0.308
0.282
0.241
0.2665
0.284
0.2515
0.274
0.2835
0.2845
0.2995
0.2965
0.3065
0.345
0.338
0.314
0.3205
0.29
0.264
0.292
0.3255
0.3185
0.319
0.3525
0.3885
0.367
0.337
0.342
0.3445
0.349
0.331
0.3265
0.356
0.3615
0.334
0.329
0.3175
0.336
0.363
0.329
0.332
0.3285
0.331
0.3455
0.354
0.3445
0.313
0.304
0.301
0.3125
0.329
0.3275
0.333
0.3705
0.3235
0.271
0.2935
0.2925
0.3015
0.3035
0.3245
0.3675
0.35
0.319
0.3405
0.3405
0.303
0.3135
0.306
0.3045
0.3015
0.289
0.326
0.331
0.3125
0.2855
0.255
0.2525
0.27
0.2825
0.267
0.2795
0.318
0.2935
0.291
0.302
0.2865
0.2655
0.2335
0.2525
0.2585
0.238
0.2295
0.2305
0.2265
0.244
0.3215
0.3625
0.293
0.25
0.28
0.2735
0.288
0.3305
0.314
0.2625
0.254
0.2685
0.279
0.2535
0.2395
0.2505
0.217
0.189
0.145
0.174
0.214
0.192
0.2215
0.2275
0.1935
0.181
0.182
0.19
0.2185
0.221
0.182
0.1875
0.2335
0.199
0.1595
0.147
0.139
0.175
0.1735
0.1695
0.2245
0.2595
0.2035
0.16
0.152
0.145
0.158
0.1395
0.1465
0.141
0.1565
0.1885
0.191
0.2045
0.1145
0.113
0.156
0.1655
0.191
0.1495
0.173
0.1895
0.159
0.1415
0.181
0.198
0.1445
0.1495
0.1635
0.178
0.2115
0.1915
0.161
0.172
0.1805
0.1755
0.189
0.1955
0.1795
0.1625
0.1465
0.1565
0.153
0.111
0.1175
0.14
0.132
0.1055
0.0965
0.117
0.1315
0.147
0.1665
0.1635
0.146
0.167
0.195
0.218
0.186
0.1655
0.195
0.171
0.1565
0.131
0.1385
0.1475
0.131
0.168
0.166
0.131
0.138
0.1525
0.159
0.172
0.178
0.17
0.1595
0.1875
0.21
0.197
0.152
0.1485
0.183
0.1905
0.21
0.2445
0.268
0.231
0.1735
0.1415
0.1575
0.1995
0.1945
0.162
0.1445
0.159
0.1725
0.178
0.158
0.129
0.0965
0.0705
0.118
0.149
0.1675
0.204
0.203
0.179
0.1785
0.2025
0.224
0.211
0.1755
0.1505
0.141
0.194
0.21
0.19
0.181
0.155
0.1735
0.197
0.2065
0.18
0.158
0.0925
0.076
0.1705
0.169
0.1455
0.1995
0.2335
0.163
0.156
0.199
0.1855
0.161
0.151
0.2025
0.1825
0.154
0.1925
0.201
0.208
0.207
0.2165
0.158
0.1095
0.17
0.198
0.1825
0.1755
0.179
0.197
0.2155
0.1955
0.148
0.1165
0.1545
0.188
0.1765
0.168
0.1905
0.2295
0.2255
0.1935
0.1805
0.199
0.194
0.1535
0.1755
0.2145
0.1805
0.14
0.1895
0.2405
0.1955
0.1665
0.146
0.1575
0.1775
0.1945
0.232
0.208
0.186
0.1945
0.2215
0.206
0.174
0.235
0.2545
0.239
0.277
0.2695
0.1935
0.187
0.216
0.21
0.242
0.255
0.244
0.2185
0.21
0.248
0.2895
0.298
0.2795
0.2815
0.2925
0.2855
0.274
0.26
0.2305
0.2175
0.245
0.278
0.2745
0.265
0.281
0.3035
0.292
0.2295
0.2195
0.2885
0.247
0.1725
0.2
0.2475
0.27
0.2745
0.327
0.313
0.2295
0.2295
0.243
0.2345
0.247
0.2475
0.2345
0.2465
0.239
0.227
0.227
0.228
0.2075
0.198
0.2045
0.16
0.1565
0.176
0.1765
0.2135
0.236
0.248
0.1805
0.133
0.186
0.207
0.2255
0.2145
0.183
0.136
0.157
0.1765
0.176
0.2225
0.196
0.1855
0.185
0.1345
0.116
0.144
0.155
0.153
0.128
0.1185
0.1355
0.1365
0.1665
0.1375
0.104
0.1335
0.129
0.1385
0.1545
0.1655
0.174
0.168
0.1745
0.1725
0.119
0.107
0.162
0.1545
0.1655
0.1895
0.1515
0.134
0.135
0.1615
0.1935
0.193
0.1755
0.141
0.123
0.1255
0.145
0.178
0.189
0.175
0.1495
0.125
0.1335
0.13
0.086
0.077
0.111
0.0845
0.0405
0.046
0.058
0.067
0.048
0.049
0.039
-0.02
-0.038
-0.029
-0.0565
-0.103
-0.1335
-0.127
-0.135
-0.174
-0.1675
-0.162
-0.14
-0.0895
-0.0795
-0.038
-0.0075
0.0025
0.0615
0.099
0.12
0.156
0.1745
0.224
0.336
0.4085
0.411
0.397
0.4645
0.6025
0.647
0.6615
0.719
0.7375
0.7525
0.7925
0.844
0.8665
0.839
0.8465
0.8435
0.8385
0.821
0.7775
0.758
0.726
0.7565
0.7025
0.6135
0.572
0.5295
0.5395
0.5365
0.556
0.498
0.442
0.431
0.401
0.3875
0.3535
0.343
0.334
0.3125
0.2985
0.2985
0.278
0.2325
0.209
0.1835
0.1585
0.154
0.137
0.1165
0.092
0.0645
0.065
0.0605
0.0665
0.058
0.0295
0.0195
0.0
-0.0045
-0.002
-0.0295
-0.0415
-0.0735
-0.121
-0.0515
-0.042
-0.1405
-0.1565
-0.1445
-0.1225
-0.1215
-0.147
-0.1805
-0.235
-0.214
-0.186
-0.187
-0.165
-0.1475
-0.1565
-0.1945
-0.214
-0.2135
-0.2035
-0.207
-0.2255
-0.2285
-0.2265
-0.2175
-0.203
-0.2075
-0.209
-0.2005
-0.197
-0.179
-0.159
-0.1485
-0.136
-0.1275
-0.112
-0.108
-0.077
-0.046
-0.035
0.023
0.0115
-0.0085
-0.026
-0.0445
-0.018
0.005
0.086
0.09
0.045
0.048
0.091
0.094
0.0525
0.089
0.0835
0.103
0.1465
0.0975
0.0635
0.0925
0.1235
0.1395
0.1645
0.1605
0.148
0.154
0.1605
0.1665
0.1645
0.161
0.1605
0.1515
0.16
0.1725
0.1725
0.184
0.1855
0.177
0.1775
0.1765
0.178
0.184
0.18
0.184
0.1945
0.1885
0.1855
0.194
0.187
0.178
0.178
0.175
0.181
0.186
0.202
0.192
0.161
0.158
0.1655
0.16
0.1675
0.184
0.187
0.1865
0.168
0.143
0.1495
0.162
0.175
0.186
0.182
0.196
0.2155
0.2325
0.224
0.232
0.2305
0.2485
0.258
0.2205
0.232
0.21
0.1995
0.2145
0.2165
0.2235
0.203
0.172
0.183
0.2005
0.1975
0.177
0.169
0.197
0.2435
0.294
0.286
0.2495
0.169
0.1875
0.303
0.338
0.3465
0.327
0.2905
0.2735
0.2605
0.226
0.189
0.211
0.237
0.209
0.1905
0.1865
0.177
0.2175
0.261
0.257
0.263
0.2765
0.272
0.28
0.274
0.2555
0.258
0.2555
0.254
0.2525
0.2425
0.239
0.2405
0.2375
0.2225
0.2295
0.271
0.299
0.3095
0.2965
0.274
0.2845
0.3155
0.3615
0.347
0.294
0.301
0.321
0.3365
0.3405
0.3205
0.288
0.2805
0.3385
0.3765
0.397
0.387
0.3435
0.302
0.241
0.288
0.3795
0.387
0.347
0.318
0.302
0.3175
0.3745
0.365
0.3315
0.332
0.2935
0.3035
0.349
0.3325
0.3385
0.3205
0.334
0.3925
0.396
0.405
0.3595
0.3785
0.4315
0.373
0.3845
0.412
0.3935
0.3845
0.3875
0.386
0.365
0.371
0.377
0.3875
0.401
0.3825
0.3615
0.3165
0.2995
0.328
0.335
0.3455
0.3645
0.379
0.3625
0.345
0.384
0.4305
0.4155
0.389
0.383
0.373
0.368
0.3545
0.345
0.345
0.3225
0.324
0.369
0.388
0.3795
0.3595
0.339
0.3265
0.338
0.3605
0.34
0.324
0.3505
0.3485
0.3475
0.3705
0.373
0.3585
0.354
0.339
0.3305
0.3715
0.351
0.319
0.327
0.2905
0.3115
0.3585
0.351
0.296
0.2635
0.24
0.1945
0.2625
0.323
0.3445
0.3045
0.291
0.3465
0.3015
0.2645
0.2585
0.2795
0.2995
0.3075
0.321
0.325
0.344
0.329
0.282
0.2695
0.279
0.298
0.291
0.249
0.2355
0.2355
0.232
0.2435
0.284
0.2745
0.2395
0.2575
0.254
0.245
0.2655
0.229
0.18
0.202
0.2285
0.22
0.23
0.3045
0.2965
0.241
0.2245
0.2035
0.2765
0.3005
0.2535
0.2455
0.2425
0.2505
0.214
0.195
0.1965
0.203
0.2235
0.2355
0.2595
0.246
0.2385
0.249
0.2505
0.228
0.201
0.2125
0.2025
0.1945
0.2145
0.218
0.2135
0.194
0.195
0.2195
0.2345
0.2155
0.1865
0.2015
0.2035
0.207
0.256
0.2905
0.3085
0.3215
0.2445
0.1995
0.2025
0.163
0.1745
0.228
0.225
0.1995
0.204
0.217
0.2435
0.2435
0.2355
0.2045
0.1865
0.196
0.181
0.2105
0.2255
0.199
0.2165
0.2415
0.236
0.218
0.2095
0.214
0.2275
0.222
0.215
0.2375
0.238
0.2165
0.196
0.1955
0.1915
0.189
0.1995
0.2095
0.229
0.222
0.211
0.2095
0.2245
0.256
0.259
0.2585
0.268
0.2625
0.2255
0.171
0.1855
0.267
0.2535
0.2225
0.2515
0.221
0.233
0.264
0.25
0.2885
0.3055
0.2575
0.2035
0.1685
0.172
0.1915
0.2095
0.232
0.2395
0.248
0.2215
0.1915
0.2225
0.2135
0.187
0.206
0.223
0.2065
0.1865
0.2165
0.2485
0.2505
0.2455
0.251
0.242
0.213
0.209
0.2215
0.242
0.243
0.226
0.2215
0.2035
0.201
0.21
0.2125
0.222
0.2095
0.197
0.2005
0.2125
0.2095
0.2005
0.191
0.165
0.1625
0.186
0.197
0.1695
0.1765
0.1965
0.1715
0.1505
0.1665
0.192
0.249
0.2945
0.2145
0.2185
0.241
0.1975
0.265
0.284
0.2205
0.2345
0.229
0.1725
0.187
0.214
0.223
0.223
0.211
0.204
0.199
0.1945
0.2105
0.231
0.2215
0.225
0.217
0.2025
0.214
0.215
0.2205
0.226
0.218
0.2185
0.2135
0.215
0.2375
0.251
0.2605
0.2715
0.279
0.273
0.2595
0.256
0.2455
0.243
0.244
0.233
0.238
0.238
0.2435
0.268
0.262
0.237
0.225
0.22
0.2515
0.29
0.2925
0.3325
0.3645
0.3085
0.25
0.243
0.2485
0.263
0.2375
0.2585
0.3145
0.263
0.221
0.232
0.242
0.2235
0.201
0.2565
0.2905
0.274
0.2825
0.269
0.2685
0.286
0.308
0.3265
0.319
0.291
0.2555
0.2545
0.261
0.249
0.239
0.237
0.222
0.203
0.2295
0.229
0.194
0.2015
0.2115
0.1905
0.136
0.1645
0.262
0.288
0.2255
0.197
0.1665
0.0825
0.127
0.222
0.256
0.219
0.1715
0.188
0.213
0.223
0.182
0.175
0.2505
0.25
0.1885
0.16
0.1225
0.1175
0.152
0.1475
0.145
0.14
0.1265
0.136
0.154
0.1655
0.177
0.1745
0.1535
0.1745
0.1725
0.1625
0.1775
0.169
0.1485
0.1385
0.118
0.125
0.208
0.2285
0.1905
0.183
0.188
0.174
0.1685
0.1815
0.174
0.152
0.125
0.106
0.1255
0.1425
0.1525
0.146
0.1045
0.1345
0.156
0.1485
0.1465
0.1165
0.0795
0.051
0.05
0.015
0.0065
0.019
-0.026
-0.0615
-0.0715
-0.085
-0.091
-0.085
-0.09
-0.086
-0.084
-0.129
-0.1515
-0.14
-0.1395
-0.0965
-0.0525
-0.018
0.012
0.0305
0.082
0.114
0.1395
0.181
0.2305
0.2885
0.3615
0.435
0.4715
0.492
0.5215
0.543
0.535
0.6175
0.75
0.792
0.813
0.8075
0.8045
0.813
0.8155
0.827
0.8315
0.813
0.7645
0.7215
0.6835
0.6705
0.6245
0.5885
0.596
0.582
0.565
0.505
0.494
0.5245
0.4815
0.4425
0.43
0.422
0.4265
0.422
0.401
0.354
0.2985
0.2715
0.263
0.219
0.2115
0.2405
0.1935
0.138
0.093
0.0605
0.0665
0.0715
0.07
0.0575
0.0295
0.033
0.047
0.052
0.0585
0.0485
0.006
-0.0525
-0.09
-0.124
-0.1335
-0.116
-0.1075
-0.118
-0.1205
-0.1475
-0.1775
-0.1755
-0.1875
-0.1945
-0.2315
-0.2685
-0.2625
-0.2345
-0.208
-0.218
-0.21
-0.192
-0.2305
-0.239
-0.21
-0.239
-0.264
-0.243
-0.234
-0.238
-0.227
-0.248
-0.2695
-0.255
-0.2485
-0.251
-0.251
-0.227
-0.186
-0.1695
-0.1715
-0.1685
-0.166
-0.1265
-0.054
-0.042
-0.095
-0.078
-0.066
-0.0755
-0.0135
0.0155
0.035
0.0275
-0.004
0.0095
0.0395
0.0835
0.0805
0.043
0.005
-0.0085
0.087
0.165
0.134
0.119
0.0985
0.093
0.1315
0.1125
0.0875
0.093
0.09
0.064
0.0875
0.1255
0.123
0.1275
0.1245
0.117
0.1045
0.169
0.2115
0.1635
0.136
0.095
0.094
0.074
0.0895
0.139
0.1195
0.1195
0.121
0.1565
0.1635
0.142
0.1225
0.11
0.129
0.1375
0.177
0.198
0.1715
0.133
0.133
0.1825
0.177
0.1465
0.163
0.1755
0.1855
0.177
0.1685
0.185
0.1525
0.112
0.1405
0.199
0.2055
0.1645
0.1365
0.155
0.149
0.122
0.1315
0.132
0.151
0.1765
0.177
0.1865
0.198
0.1925
0.166
0.124
0.1315
0.161
0.132
0.118
0.177
0.2255
0.2185
0.198
0.2215
0.1555
0.0755
0.172
0.1965
0.1435
0.147
0.21
0.2655
0.216
0.158
0.145
0.1545
0.1725
0.1805
0.195
0.213
0.2005
0.1965
0.192
0.18
0.2045
0.226
0.194
0.149
0.167
0.202
0.2295
0.2475
0.227
0.236
0.267
0.247
0.2025
0.1975
0.1965
0.176
0.179
0.233
0.2945
0.2955
0.283
0.2755
0.257
0.2535
0.2565
0.2575
0.278
0.3135
0.294
0.262
0.262
0.2415
0.2225
0.226
0.2575
0.3045
0.359
0.3685
0.344
0.31
0.257
0.279
0.3175
0.332
0.3465
0.332
0.3025
0.307
0.3445
0.3255
0.3385
0.3505
0.36
0.4
0.386
0.384
0.3515
0.3175
0.3175
0.3075
0.316
0.343
0.3455
0.322
0.297
0.2845
0.3145
0.345
0.3215
0.284
0.289
0.3325
0.344
0.319
0.32
0.3315
0.3275
0.3315
0.325
0.337
0.3915
0.422
0.375
0.319
0.3105
0.313
0.308
0.2935
0.3115
0.3285
0.343
0.3575
0.354
0.354
0.353
0.3705
0.364
0.332
0.319
0.3325
0.3505
0.343
0.3125
0.294
0.327
0.3655
0.3485
0.322
0.3175
0.3255
0.3155
0.301
0.3215
0.326
0.3155
0.3145
0.3365
0.3185
0.2635
0.2225
0.2175
0.266
0.271
0.261
0.3025
0.32
0.2825
0.278
0.2975
0.299
0.298
0.3155
0.329
0.338
0.338
0.3325
0.3285
0.269
0.248
0.262
0.253
0.261
0.261
0.2645
0.268
0.2585
0.2755
0.268
0.2535
0.237
0.222
0.2295
0.223
0.2545
0.247
0.2025
0.217
0.247
0.2465
0.233
0.1945
0.208
0.269
0.2495
0.2165
0.2225
0.237
0.2215
0.18
0.153
0.193
0.2135
0.143
0.1365
0.16
0.1305
0.1315
0.184
0.2475
0.259
0.249
0.27
0.2845
0.253
0.177
0.162
0.2265
0.2415
0.18
0.1245
0.1215
0.1735
0.2065
0.193
0.181
0.1825
0.193
0.2105
0.224
0.2215
0.1965
0.1785
0.2025
0.205
0.1945
0.188
0.175
0.177
0.195
0.2075
0.196
0.183
0.178
0.1815
0.1805
0.1775
0.1785
0.176
0.182
0.189
0.19
0.1895
0.1985
0.189
0.177
0.1635
0.154
0.1865
0.1875
0.178
0.1825
0.173
0.167
0.1945
0.231
0.217
0.163
0.1165
0.112
0.146
0.1665
0.171
0.1595
0.137
0.1775
0.1875
0.169
0.1855
0.1875
0.204
0.1825
0.1615
0.1815
0.1955
0.1965
0.2105
0.25
0.242
0.229
0.228
0.2045
0.1995
0.206
0.2165
0.226
0.2195
0.2035
0.169
0.155
0.189
0.2185
0.213
0.193
0.2035
0.225
0.21
0.194
0.234
0.25
0.209
0.221
0.2255
0.194
0.196
0.2045
0.1565
0.1515
0.2135
0.204
0.1985
0.189
0.1895
0.179
0.127
0.1195
0.145
0.211
0.2235
0.2265
0.2595
0.242
0.176
0.1425
0.1875
0.223
0.2415
0.2485
0.2405
0.237
0.2175
0.186
0.176
0.184
0.182
0.182
0.1785
0.184
0.1915
0.1965
0.205
0.202
0.2155
0.2055
0.1825
0.1875
0.1955
0.2305
0.244
0.1905
0.159
0.1615
0.191
0.198
0.177
0.215
0.2485
0.256
0.268
0.294
0.269
0.2155
0.2235
0.2295
0.2325
0.2215
0.209
0.196
0.1775
0.2
0.2075
0.196
0.179
0.192
0.1945
0.1525
0.1275
0.122
0.1665
0.23
0.2265
0.192
0.1825
0.1775
0.172
0.1575
0.189
0.2535
0.253
0.2335
0.2385
0.274
0.3065
0.2765
0.2435
0.2235
0.2045
0.219
0.2545
0.269
0.258
0.2615
0.2655
0.2605
0.259
0.256
0.2565
0.2615
0.25
0.2545
0.263
0.287
0.281
0.2065
0.21
0.237
0.239
0.241
0.234
0.241
0.2485
0.2455
0.2435
0.243
0.2455
0.268
0.2885
0.28
0.2465
0.249
0.2795
0.2865
0.26
0.283
0.287
0.213
0.191
0.196
0.207
0.2295
0.235
0.241
0.266
0.2865
0.276
0.239
0.2295
0.2205
0.2105
0.2355
0.212
0.202
0.219
0.207
0.206
0.194
0.1805
0.186
0.1765
0.1795
0.1865
0.1865
0.1765
0.1905
0.228
0.204
0.176
0.132
0.0995
0.148
0.175
0.1375
0.1325
0.121
0.1275
0.187
0.1685
0.0875
0.019
0.1675
0.293
0.2265
0.1725
0.13
0.1575
0.1725
0.1485
0.142
0.1755
0.176
0.1565
0.1745
0.171
0.1775
0.1715
0.167
0.162
0.168
0.1845
0.18
0.178
0.1685
0.1675
0.1695
0.162
0.1575
0.165
0.163
0.1535
0.1515
0.137
0.1295
0.118
0.107
0.085
0.0655
0.0735
0.066
0.061
0.061
0.0495
0.038
0.022
0.022
0.023
0.006
-0.021
-0.006
0.0285
-0.0595
-0.132
-0.1795
-0.231
-0.2335
-0.2275
-0.1875
-0.169
-0.1095
0.0195
0.115
0.1605
0.201
0.2235
0.287
0.36
0.43
0.4755
0.453
0.504
0.5955
0.6545
0.7005
0.744
0.782
0.8115
0.8285
0.84
0.849
0.858
0.8595
0.8575
0.8615
0.8515
0.8225
0.773
0.7335
0.7
0.661
0.6335
0.612
0.601
0.5735
0.532
0.5645
0.5795
0.5295
0.5045
0.4775
0.453
0.4325
0.408
0.3695
0.3285
0.297
0.2735
0.254
0.2205
0.1915
0.172
0.1525
0.1295
0.128
0.1175
0.09
0.063
0.052
0.046
0.056
0.0555
0.0015
0.01
0.0145
-0.0285
-0.042
-0.0695
-0.1175
-0.131
-0.126
-0.143
-0.183
-0.224
-0.241
-0.2535
-0.275
-0.314
-0.3195
-0.308
-0.2685
-0.2375
-0.159
-0.0655
-0.199
-0.2665
-0.2145
-0.197
-0.089
-0.066
-0.165
-0.242
-0.2295
-0.191
-0.189
-0.178
-0.1805
-0.165
-0.204
-0.249
-0.2365
-0.227
-0.186
-0.16
-0.145
-0.132
-0.126
-0.0975
-0.0735
-0.0585
-0.049
-0.0375
-0.018
-0.025
-0.036
-0.015
0.015
0.0145
-0.0025
-0.036
-0.011
0.08
0.0885
0.084
0.1
0.1095
0.124
0.0905
0.069
0.083
0.073
0.0555
0.036
0.039
0.09
0.1615
0.1885
0.2065
0.256
0.196
0.133
0.1625
0.1785
0.1985
0.198
0.1865
0.167
0.1655
0.1585
0.0945
0.0775
0.104
0.1335
0.167
0.1805
0.184
0.179
0.1875
0.205
0.164
0.111
0.0885
0.1215
0.171
0.1545
0.1285
0.1565
0.1835
0.1855
0.1905
0.153
0.1375
0.1485
0.1325
0.118
0.1405
0.1975
0.1985
0.163
0.147
0.158
0.151
0.1505
0.225
0.2165
0.173
0.1695
0.1575
0.195
0.178
0.1465
0.148
0.1385
0.1545
0.1555
0.1585
0.1905
0.208
0.18
0.199
0.1285
0.0595
0.1995
0.2285
0.1685
0.152
0.1525
0.174
0.182
0.1675
0.1535
0.165
0.1405
0.145
0.161
0.15
0.1595
0.1815
0.1845
0.1765
0.1935
0.211
0.251
0.264
0.272
0.2585
0.2235
0.217
0.213
0.2695
0.28
0.313
0.3645
0.318
0.306
0.27
0.2435
0.248
0.202
0.174
0.1635
0.2125
0.2425
0.2025
0.1975
0.2025
0.201
0.189
0.1885
0.2215
0.2425
0.2545
0.225
0.229
0.2625
0.2535
0.2375
0.25
0.2875
0.269
0.265
0.2955
0.291
0.2815
0.283
0.2975
0.333
0.35
0.336
0.32
0.3135
0.3125
0.3215
0.3325
0.3525
0.365
0.398
0.448
0.4065
0.337
0.304
0.288
0.3395
0.395
0.3705
0.2915
0.259
0.2995
0.3035
0.297
0.307
0.3395
0.384
0.3645
0.356
0.394
0.413
0.3955
0.38
0.383
0.401
0.41
0.3965
0.404
0.392
0.3705
0.3595
0.3825
0.3975
0.3795
0.3595
0.328
0.3295
0.3425
0.3475
0.349
0.3485
0.3525
0.3495
0.36
0.3675
0.3415
0.317
0.3185
0.3515
0.346
0.3355
0.368
0.297
0.285
0.3755
0.371
0.329
0.33
0.349
0.315
0.3055
0.3175
0.332
0.3475
0.319
0.3145
0.31
0.309
0.3315
0.365
0.3805
0.3465
0.343
0.3355
0.296
0.304
0.307
0.294
0.288
0.287
0.2945
0.331
0.364
0.314
0.253
0.296
0.313
0.2835
0.3405
0.353
0.2955
0.269
0.3285
0.376
0.33
0.2975
0.2875
0.224
0.2435
0.3515
0.331
0.2915
0.283
0.2845
0.2635
0.2285
0.2645
0.2725
0.263
0.2525
0.259
0.2625
0.227
0.2305
0.229
0.208
0.219
0.224
0.223
0.24
0.2455
0.232
0.224
0.245
0.2335
0.202
0.226
0.2265
0.2445
0.24
0.1985
0.2055
0.1765
0.1795
0.2115
0.211
0.1935
0.1625
0.163
0.179
0.195
0.1935
0.1785
0.1945
0.213
0.2215
0.2295
0.2165
0.2105
0.205
0.1975
0.1985
0.191
0.2045
0.1865
0.147
0.1415
0.125
0.114
0.1365
0.1885
0.21
0.228
0.259
0.1795
0.1585
0.216
0.1955
0.1975
0.1735
0.1355
0.132
0.121
0.1145
0.0845
0.1095
0.237
0.285
0.2255
0.186
0.1865
0.1925
0.195
0.1985
0.219
0.231
0.2015
0.186
0.168
0.1675
0.2015
0.2095
0.2
0.184
0.1715
0.158
0.133
0.1425
0.2055
0.2445
0.2305
0.2015
0.1905
0.2215
0.2095
0.152
0.129
0.1275
0.128
0.1345
0.1495
0.164
0.198
0.221
0.197
0.181
0.194
0.169
0.123
0.124
0.1445
0.1795
0.1705
0.1205
0.1065
0.137
0.186
0.2095
0.218
0.183
0.165
0.2055
0.208
0.203
0.1945
0.129
0.15
0.2305
0.2425
0.242
0.2325
0.2215
0.1695
0.16
0.2065
0.1785
0.165
0.163
0.1435
0.1405
0.151
0.193
0.1735
0.125
0.1445
0.1725
0.1555
0.1855
0.2105
0.186
0.1955
0.1735
0.187
0.214
0.219
0.2345
0.2195
0.206
0.1905
0.2035
0.2185
0.2005
0.1905
0.1795
0.177
0.184
0.1975
0.2115
0.2065
0.19
0.1775
0.1855
0.193
0.192
0.1975
0.216
0.2525
0.251
0.2355
0.2285
0.183
0.2055
0.238
0.2275
0.27
0.244
0.1805
0.2055
0.2175
0.1675
0.1525
0.18
0.1975
0.19
0.1615
0.161
0.1745
0.1855
0.207
0.22
0.2155
0.209
0.2185
0.2315
0.2275
0.212
0.2145
0.213
0.227
0.2385
0.237
0.2585
0.2495
0.2405
0.222
0.226
0.2465
0.2335
0.2275
0.217
0.2295
0.2435
0.286
0.294
0.279
0.2965
0.3035
0.279
0.252
0.2945
0.301
0.3085
0.3215
0.3135
0.3265
0.33
0.3245
0.284
0.246
0.2405
0.247
0.307
0.3285
0.262
0.2505
0.2755
0.2705
0.2615
0.273
0.3015
0.282
0.2555
0.2725
0.2755
0.2415
0.211
0.2105
0.225
0.2165
0.1985
0.2055
0.232
0.246
0.2235
0.2045
0.211
0.1715
0.1425
0.154
0.115
0.1115
0.138
0.1725
0.1715
0.152
0.1895
0.1725
0.174
0.2005
0.1685
0.1615
0.181
0.185
0.206
0.2155
0.1875
0.175
0.1675
0.1655
0.1645
0.167
0.198
0.208
0.1665
0.1435
0.147
0.1525
0.176
0.1855
0.1865
0.1765
0.164
0.149
0.1415
0.143
0.1465
0.1635
0.166
0.185
0.169
0.152
0.2005
0.232
0.255
0.237
0.1855
0.1655
0.164
0.161
0.165
0.1815
0.1615
0.1505
0.141
0.141
0.1515
0.112
0.092
0.072
0.0475
0.053
0.047
0.021
0.0035
0.002
-0.0265
-0.068
-0.091
-0.1015
-0.108
-0.109
-0.0905
-0.078
-0.0805
-0.094
-0.116
-0.121
-0.124
-0.11
-0.0745
-0.031
0.0375
0.0755
0.114
0.148
0.1725
0.1785
0.1665
0.2545
0.336
0.3695
0.414
0.4465
0.5275
0.63
0.69
0.6955
0.701
0.734
0.746
0.8185
0.8885
0.8865
0.862
0.847
0.869
0.882
0.845
0.8145
0.753
0.676
0.723
0.7115
0.6205
0.578
0.584
0.623
0.642
0.6145
0.57
0.531
0.464
0.435
0.37
0.312
0.3645
0.3625
0.3435
0.339
0.2735
0.2225
0.218
0.1965
0.157
0.095
0.047
0.0665
0.062
0.0375
0.0195
0.0025
0.018
0.028
0.023
-0.012
-0.0665
-0.0915
-0.0985
-0.1015
-0.098
-0.1
-0.1265
-0.164
-0.18
-0.1845
-0.1985
-0.204
-0.227
-0.242
-0.223
-0.2265
-0.225
-0.212
-0.2135
-0.2395
-0.278
-0.3085
-0.28
-0.228
-0.2275
-0.246
-0.263
-0.279
-0.2905
-0.245
-0.213
-0.225
-0.219
-0.223
-0.192
-0.192
-0.186
-0.1455
-0.167
-0.1475
-0.134
-0.148
-0.14
-0.1375
-0.12
-0.073
-0.0445
-0.058
-0.0805
-0.0595
-0.011
0.0215
0.0505
0.0485
0.0655
0.058
0.032
0.0215
0.0135
0.0295
0.0575
0.088
0.072
0.078
0.1395
0.1645
0.1175
0.12
0.1455
0.1575
0.184
0.162
0.13
0.1195
0.1225
0.135
0.1055
0.083
0.1385
0.148
0.1535
0.169
0.1605
0.1795
0.1805
0.1625
0.145
0.1435
0.125
0.1
0.123
0.153
0.134
0.1105
0.133
0.173
0.1625
0.1345
0.1435
0.1475
0.154
0.165
0.19
0.202
0.1755
0.141
0.1185
0.128
0.148
0.151
0.1415
0.158
0.18
0.183
0.1905
0.1685
0.1615
0.209
0.254
0.2825
0.2605
0.211
0.148
0.0955
0.086
0.122
0.1615
0.14
0.132
0.14
0.1505
0.1705
0.156
0.129
0.1395
0.1565
0.1435
0.151
0.153
0.1455
0.1835
0.1815
0.1735
0.187
0.184
0.1995
0.1935
0.183
0.1815
0.188
0.1765
0.144
0.132
0.146
0.1775
0.2085
0.225
0.2095
0.222
0.281
0.277
0.2225
0.219
0.2155
0.217
0.225
0.216
0.198
0.151
0.1695
0.237
0.256
0.2475
0.2575
0.2545
0.244
0.2255
0.1895
0.199
0.2305
0.2675
0.295
0.2715
0.251
0.286
0.307
0.2755
0.232
0.2285
0.2595
0.265
0.263
0.259
0.25
0.247
0.2365
0.2555
0.266
0.2555
0.2685
0.273
0.269
0.258
0.267
0.2845
0.2835
0.304
0.3065
0.298
0.3175
0.3385
0.3405
0.3145
0.315
0.33
0.336
0.3255
0.308
0.3575
0.372
0.3405
0.366
0.3875
0.3745
0.365
0.366
0.3505
0.336
0.3265
0.317
0.328
0.344
0.3565
0.3755
0.376
0.3435
0.342
0.368
0.371
0.3635
0.3475
0.333
0.352
0.369
0.3525
0.3585
0.3725
0.3805
0.396
0.3725
0.3435
0.3435
0.344
0.3675
0.3575
0.3325
0.36
0.3725
0.367
0.3575
0.3745
0.391
0.3785
0.354
0.325
0.33
0.3395
0.338
0.3475
0.3785
0.4
0.4075
0.3985
0.369
0.3355
0.3025
0.308
0.325
0.316
0.3015
0.305
0.3115
0.306
0.3095
0.318
0.3175
0.328
0.3295
0.3065
0.2835
0.2905
0.304
0.3
0.33
0.3615
0.3525
0.3285
0.3215
0.3165
0.3
0.2925
0.288
0.3045
0.325
0.3145
0.294
0.2725
0.263
0.264
0.27
0.2725
0.2815
0.2965
0.287
0.272
0.2795
0.281
0.285
0.2955
0.2895
0.297
0.287
0.244
0.213
0.244
0.265
0.2235
0.2315
0.264
0.2685
0.2705
0.253
0.2285
0.224
0.2255
0.214
0.2025
0.202
0.214
0.213
0.202
0.2135
0.1875
0.184
0.224
0.227
0.229
0.2365
0.212
0.1625
0.2045
0.2615
0.2195
0.193
0.1975
0.212
0.2265
0.233
0.2355
0.1995
0.1655
0.189
0.216
0.2055
0.1875
0.179
0.167
0.1505
0.139
0.1335
0.1515
0.1655
0.157
0.1555
0.176
0.2085
0.2045
0.1835
0.2065
0.2245
0.216
0.2075
0.187
0.174
0.166
0.157
0.156
0.161
0.1615
0.1655
0.1725
0.163
0.158
0.1455
0.1625
0.159
0.1485
0.186
0.2165
0.2625
0.2715
0.2405
0.1925
0.169
0.175
0.16
0.153
0.156
0.162
0.1665
0.166
0.16
0.16
0.1705
0.1695
0.1735
0.1755
0.1755
0.1715
0.1535
0.152
0.1535
0.1575
0.1725
0.188
0.18
0.1745
0.189
0.2105
0.224
0.225
0.2185
0.2
0.195
0.2245
0.266
0.2725
0.273
0.232
0.144
0.111
0.0985
0.128
0.187
0.183
0.1655
0.169
0.1845
0.178
0.18
0.198
0.175
0.142
0.1385
0.1495
0.148
0.17
0.2045
0.221
0.2245
0.1805
0.1465
0.18
0.209
0.188
0.1735
0.1695
0.1585
0.1765
0.164
0.195
0.2295
0.2125
0.234
0.224
0.214
0.239
0.2425
0.2245
0.2135
0.231
0.2475
0.228
0.199
0.187
0.233
0.246
0.225
0.236
0.197
0.144
0.11
0.126
0.143
0.1625
0.1855
0.173
0.1895
0.2215
0.233
0.246
0.278
0.2705
0.2545
0.2235
0.178
0.184
0.1915
0.2085
0.201
0.1775
0.1995
0.1845
0.179
0.2045
0.1955
0.1835
0.183
0.226
0.2495
0.2255
0.228
0.2305
0.2415
0.262
0.269
0.255
0.247
0.2625
0.2595
0.2365
0.2325
0.2565
0.263
0.276
0.298
0.298
0.2905
0.296
0.323
0.3245
0.3095
0.3085
0.3135
0.2895
0.256
0.2545
0.234
0.223
0.23
0.244
0.269
0.2615
0.25
0.247
0.2545
0.2605
0.2605
0.27
0.2845
0.299
0.2885
0.264
0.2205
0.2245
0.2665
0.269
0.2705
0.2995
0.324
0.3205
0.2985
0.324
0.386
0.3485
0.263
0.2195
0.199
0.19
0.205
0.226
0.225
0.2115
0.212
0.2105
0.198
0.174
0.167
0.1975
0.206
0.1805
0.116
0.119
0.1875
0.1795
0.17
0.18
0.1685
0.167
0.178
0.178
0.138
0.115
0.1125
0.108
0.1255
0.145
0.1575
0.151
0.1605
0.17
0.151
0.1505
0.1435
0.1355
0.141
0.1455
0.171
0.2185
0.3075
0.3795
0.3985
0.403
0.3695
0.3155
0.275
0.2105
0.136
0.087
0.091
0.1725
0.204
0.183
0.203
0.172
0.082
0.066
0.126
0.154
0.1515
0.1485
0.1175
0.0805
0.0645
0.0845
0.118
0.1285
0.118
0.0975
0.084
0.063
0.0425
0.03
0.012
0.025
0.0375
0.003
-0.0335
-0.06
-0.077
-0.0845
-0.102
-0.1125
-0.109
-0.119
-0.1275
-0.114
-0.1215
-0.12
-0.087
-0.069
-0.064
-0.04
0.0135
0.0645
0.1055
0.1385
0.184
0.2375
0.2975
0.369
0.425
0.4675
0.5065
0.5585
0.6225
0.6755
0.7115
0.759
0.7895
0.809
0.8275
0.8285
0.8375
0.832
0.8315
0.8415
0.845
0.8275
0.7865
0.754
0.71
0.661
0.6225
0.6035
0.5895
0.587
0.5935
0.582
0.5455
0.505
0.477
0.442
0.427
0.4095
0.39
0.376
0.3575
0.324
0.278
0.2415
0.227
0.235
0.2
0.1585
0.158
0.1585
0.1615
0.142
0.107
0.09
0.0765
0.0885
0.094
0.0825
0.047
0.0085
0.0
-0.017
-0.029
-0.031
-0.0255
-0.07
-0.1395
-0.1505
-0.102
-0.0635
-0.1025
-0.1485
-0.201
-0.2145
-0.1415
-0.104
-0.1305
-0.1465
-0.12
-0.1385
-0.186
-0.2095
-0.221
-0.2315
-0.2455
-0.227
-0.218
-0.226
-0.2235
-0.2085
-0.2365
-0.2545
-0.2195
-0.216
-0.212
-0.2025
-0.221
-0.22
-0.167
-0.1485
-0.1485
-0.1345
-0.1575
-0.1585
-0.1275
-0.0595
-0.049
-0.0945
-0.0805
-0.05
0.0145
0.0495
0.0495
0.085
0.112
0.101
0.111
0.139
0.1245
0.115
0.1315
0.13
0.1175
0.11
0.099
0.1085
0.1285
0.133
0.1135
0.1045
0.112
0.119
0.13
0.138
0.1425
0.134
0.1125
0.1045
0.1045
0.1015
0.114
0.1235
0.121
0.1325
0.181
0.1785
0.178
0.23
0.199
0.172
0.1745
0.158
0.1675
0.165
0.1575
0.1565
0.1415
0.135
0.1415
0.1415
0.1745
0.2145
0.2045
0.205
0.23
0.2395
0.2235
0.199
0.1965
0.199
0.1915
0.193
0.196
0.2055
0.199
0.1775
0.186
0.202
0.179
0.153
0.1605
0.165
0.16
0.1475
0.159
0.1795
0.2085
0.216
0.179
0.173
0.1705
0.1765
0.185
0.193
0.218
0.226
0.1855
0.1395
0.1535
0.1785
0.2
0.223
0.251
0.2625
0.2335
0.227
0.237
0.233
0.2355
0.227
0.2435
0.2955
0.283
0.2025
0.2015
0.239
0.235
0.2145
0.1775
0.1895
0.2395
0.274
0.2655
0.2495
0.252
0.2395
0.2175
0.194
0.1665
0.1625
0.19
0.225
0.2415
0.248
0.303
0.3755
0.378
0.3255
0.316
0.3155
0.3285
0.344
0.2855
0.253
0.249
0.2525
0.249
0.2775
0.3505
0.358
0.3405
0.3075
0.2625
0.2745
0.2875
0.3025
0.312
0.2705
0.2645
0.2625
0.2745
0.311
0.304
0.2905
0.3005
0.3165
0.332
0.3415
0.3255
0.318
0.325
0.3295
0.3215
0.3295
0.3455
0.3395
0.3395
0.3445
0.3455
0.346
0.3515
0.3555
0.355
0.344
0.342
0.347
0.3395
0.3495
0.3705
0.369
0.3725
0.3635
0.3555
0.3615
0.3645
0.37
0.3195
0.2885
0.323
0.359
0.399
0.444
0.4775
0.472
0.4465
0.443
0.4425
0.463
0.471
0.4125
0.408
0.4705
0.4845
0.449
0.405
0.3295
0.2495
0.21
0.239
0.284
0.284
0.301
0.298
0.297
0.3245
0.337
0.339
0.304
0.3025
0.311
0.31
0.3265
0.3195
0.311
0.3075
0.3065
0.3165
0.324
0.3165
0.3185
0.3195
0.3275
0.3245
0.3115
0.316
0.3175
0.3255
0.3185
0.3175
0.3145
0.3005
0.3005
0.3085
0.316
0.3115
0.304
0.3085
0.3055
0.295
0.298
0.289
0.2905
0.2835
0.2775
0.288
0.2825
0.286
0.3045
0.3105
0.2985
0.2735
0.265
0.277
0.2785
0.288
0.272
0.2475
0.237
0.2295
0.2515
0.2785
0.276
0.2815
0.2865
0.2435
0.203
0.1755
0.1655
0.188
0.206
0.2465
0.294
0.263
0.2135
0.2285
0.219
0.1795
0.2135
0.2555
0.2765
0.2765
0.245
0.232
0.2155
0.2125
0.2155
0.2295
0.2385
0.218
0.2
0.2195
0.2415
0.1785
0.1705
0.2215
0.2145
0.2015
0.1785
0.168
0.169
0.1685
0.193
0.212
0.2135
0.19
0.175
0.1815
0.1775
0.1805
0.1845
0.1795
0.172
0.176
0.199
0.2085
0.209
0.2
0.1845
0.187
0.172
0.1525
0.1505
0.1585
0.191
0.2025
0.2205
0.2195
0.174
0.1835
0.2235
0.214
0.1925
0.199
0.1855
0.181
0.1925
0.1965
0.198
0.188
0.1925
0.212
0.229
0.237
0.2545
0.2725
0.2705
0.2515
0.257
0.271
0.251
0.234
0.238
0.2325
0.2175
0.216
0.208
0.1805
0.1515
0.1405
0.144
0.136
0.1485
0.2415
0.2915
0.229
0.192
0.1865
0.181
0.2085
0.22
0.206
0.205
0.1785
0.1825
0.228
0.2365
0.23
0.2325
0.2395
0.2505
0.261
0.2275
0.195
0.1875
0.185
0.1845
0.176
0.196
0.2
0.191
0.2195
0.23
0.2455
0.2505
0.2145
0.214
0.214
0.2065
0.2135
0.2215
0.251
0.264
0.2535
0.259
0.2645
0.2695
0.2625
0.2395
0.208
0.172
0.174
0.2095
0.2315
0.229
0.228
0.226
0.2095
0.2145
0.211
0.1765
0.1815
0.1895
0.187
0.1875
0.1925
0.1915
0.184
0.1885
0.202
0.2345
0.2395
0.218
0.188
0.1815
0.197
0.207
0.2055
0.2005
0.2195
0.2065
0.1895
0.1885
0.165
0.1465
0.1315
0.1235
0.143
0.193
0.2665
0.2845
0.33
0.3995
0.3315
0.3115
0.319
0.249
0.244
0.2575
0.2705
0.296
0.28
0.2555
0.256
0.282
0.2645
0.2525
0.263
0.2575
0.249
0.2395
0.27
0.282
0.278
0.2815
0.2765
0.2745
0.2645
0.249
0.2535
0.2595
0.279
0.3005
0.295
0.284
0.2745
0.284
0.286
0.28
0.2705
0.2545
0.257
0.2645
0.2605
0.264
0.273
0.2765
0.2715
0.2705
0.2865
0.293
0.298
0.302
0.3035
0.304
0.2965
0.2895
0.277
0.2695
0.26
0.236
0.2165
0.2195
0.24
0.245
0.223
0.2155
0.214
0.192
0.1985
0.2195
0.234
0.256
0.276
0.262
0.225
0.2045
0.209
0.23
0.2255
0.2185
0.223
0.207
0.193
0.1925
0.195
0.1935
0.192
0.192
0.1745
0.177
0.2105
0.216
0.2065
0.1985
0.196
0.197
0.204
0.2015
0.1885
0.1835
0.183
0.1785
0.178
0.182
0.1665
0.1695
0.1725
0.141
0.1355
0.1605
0.2
0.229
0.206
0.172
0.1665
0.193
0.212
0.222
0.2265
0.1885
0.164
0.153
0.206
0.2215
0.1625
0.1925
0.203
0.152
0.1375
0.191
0.2035
0.1705
0.159
0.196
0.2645
0.1955
0.1255
0.1335
0.103
0.1235
0.1075
0.027
-0.012
-0.035
-0.04
-0.027
-0.018
-0.0435
-0.065
-0.073
-0.095
-0.0955
-0.091
-0.094
-0.0925
-0.0845
-0.061
-0.0155
0.0375
0.0695
0.0925
0.12
0.1515
0.1955
0.249
0.3305
0.388
0.4235
0.483
0.5195
0.584
0.678
0.74
0.7545
0.783
0.819
0.8065
0.833
0.87
0.8215
0.81
0.894
0.9075
0.8905
0.8925
0.878
0.8205
0.714
0.693
0.683
0.6335
0.6095
0.5655
0.537
0.567
0.5755
0.5605
0.539
0.4905
0.475
0.4465
0.399
0.386
0.357
0.3075
0.282
0.2635
0.2335
0.244
0.235
0.195
0.173
0.147
0.145
0.132
0.1085
0.1015
0.0995
0.1075
0.092
0.0405
0.018
0.0625
0.09
0.04
-0.02
-0.0755
-0.088
-0.0555
-0.064
-0.063
-0.077
-0.1135
-0.1265
-0.1215
-0.1215
-0.1715
-0.166
-0.122
-0.1245
-0.127
-0.1395
-0.143
-0.113
-0.1115
-0.1535
-0.2055
-0.2445
-0.227
-0.2275
-0.2445
-0.1915
-0.1725
-0.194
-0.1795
-0.1515
-0.1495
-0.178
-0.178
-0.1565
-0.1485
-0.1545
-0.144
-0.123
-0.124
-0.1135
-0.103
-0.079
-0.0545
-0.0365
-0.013
0.009
0.035
0.0115
0.013
0.0405
0.027
0.025
0.062
0.1015
0.0835
0.0705
0.0815
0.099
0.1255
0.1325
0.1105
0.0905
0.1135
0.1305
0.1275
0.105
0.094
0.121
0.142
0.1465
0.1545
0.151
0.121
0.117
0.167
0.198
0.1895
0.1585
0.1545
0.21
0.2305
0.236
0.2205
0.1985
0.2025
0.1995
0.1915
0.171
0.179
0.203
0.2135
0.213
0.216
0.2425
0.239
0.2185
0.2085
0.2065
0.227
0.2425
0.241
0.219
0.205
0.1885
0.1365
0.1385
0.17
0.1685
0.1715
0.1665
0.156
0.151
0.1435
0.1175
0.124
0.1885
0.2025
0.194
0.219
0.244
0.2625
0.2115
0.147
0.1575
0.1675
0.1825
0.1955
0.1605
0.1295
0.139
0.2
0.197
0.1615
0.1935
0.2185
0.2295
0.244
0.2485
0.2515
0.2405
0.228
0.2285
0.2275
0.2385
0.238
0.245
0.256
0.2605
0.241
0.208
0.2285
0.248
0.2575
0.275
0.278
0.273
0.26
0.234
0.206
0.191
0.202
0.2045
0.1835
0.1735
0.193
0.2495
0.2575
0.259
0.266
0.2565
0.325
0.341
0.2865
0.245
0.241
0.262
0.2445
0.243
0.2995
0.3695
0.3545
0.2875
0.2635
0.288
0.3085
0.3105
0.3445
0.3865
0.3705
0.336
0.322
0.322
0.3385
0.362
0.3595
0.348
0.3045
0.2535
0.309
0.3215
0.299
0.323
0.348
0.3535
0.338
0.3505
0.3525
0.3565
0.358
0.357
0.35
0.3435
0.377
0.384
0.3875
0.38
0.331
0.303
0.2875
0.309
0.3475
0.3805
0.4165
0.419
0.3945
0.3445
0.333
0.416
0.479
0.4355
0.392
0.426
0.446
0.401
0.3685
0.375
0.388
0.4145
0.4315
0.41
0.4195
0.4235
0.3945
0.4025
0.4205
0.418
0.394
0.3765
0.3615
0.358
0.3625
0.3575
0.3485
0.322
0.343
0.386
0.382
0.378
0.3785
0.3745
0.377
0.357
0.337
0.341
0.3355
0.351
0.362
0.342
0.3435
0.385
0.421
0.3875
0.3285
0.307
0.3155
0.313
0.3165
0.3585
0.403
0.458
0.473
0.405
0.3555
0.3595
0.353
0.312
0.2885
0.2825
0.316
0.405
0.3975
0.349
0.3415
0.321
0.3215
0.3105
0.3035
0.326
0.3145
0.298
0.3
0.2765
0.2765
0.304
0.292
0.285
0.291
0.279
0.2685
0.261
0.267
0.267
0.2615
0.269
0.2615
0.278
0.292
0.2895
0.268
0.235
0.269
0.27
0.2455
0.265
0.256
0.2355
0.2225
0.2175
0.2215
0.214
0.211
0.213
0.245
0.2695
0.245
0.212
0.2025
0.2125
0.215
0.2045
0.204
0.219
0.2185
0.199
0.202
0.2285
0.199
0.1335
0.1075
0.1235
0.1615
0.218
0.269
0.313
0.4175
0.4405
0.2695
0.185
0.233
0.213
0.184
0.195
0.211
0.2375
0.2335
0.2075
0.1955
0.191
0.1875
0.2
0.2095
0.222
0.2325
0.2145
0.187
0.1235
0.1465
0.2225
0.2155
0.2105
0.207
0.1905
0.187
0.197
0.211
0.209
0.202
0.1915
0.178
0.1975
0.224
0.1995
0.1695
0.1645
0.181
0.2045
0.208
0.1945
0.181
0.189
0.1995
0.202
0.2075
0.2135
0.2395
0.2545
0.212
0.2
0.23
0.243
0.243
0.244
0.237
0.2165
0.224
0.2025
0.1915
0.2225
0.24
0.247
0.2085
0.1485
0.1315
0.1815
0.1945
0.202
0.224
0.1995
0.204
0.2175
0.222
0.2285
0.2265
0.22
0.223
0.2195
0.2145
0.203
0.173
0.1895
0.2225
0.1985
0.1755
0.1875
0.204
0.222
0.2845
0.3525
0.336
0.2655
0.2355
0.314
0.3825
0.337
0.258
0.19
0.1635
0.185
0.158
0.1285
0.2065
0.2385
0.198
0.187
0.187
0.1985
0.2055
0.199
0.196
0.2015
0.1965
0.1945
0.206
0.2105
0.2095
0.207
0.2095
0.212
0.2035
0.2
0.2035
0.199
0.1955
0.1965
0.2035
0.2105
0.208
0.2075
0.2125
0.2145
0.2135
0.2075
0.2095
0.2175
0.2205
0.22
0.2175
0.216
0.217
0.2195
0.2205
0.222
0.2215
0.2275
0.2315
0.225
0.2275
0.2305
0.2205
0.204
0.184
0.176
0.1845
0.1875
0.204
0.2415
0.2655
0.244
0.2235
0.227
0.2365
0.255
0.276
0.308
0.2845
0.211
0.174
0.1725
0.2675
0.4255
0.521
0.5295
0.3305
0.157
0.167
0.2145
0.2955
0.269
0.245
0.283
0.2845
0.2805
0.2475
0.227
0.2405
0.2775
0.2685
0.223
0.2415
0.276
0.297
0.305
0.2555
0.2255
0.227
0.2135
0.2205
0.2385
0.2475
0.254
0.2625
0.26
0.259
0.2725
0.275
0.281
0.288
0.2845
0.2825
0.271
0.2685
0.282
0.2935
0.2955
0.276
0.235
0.2385
0.263
0.2565
0.2465
0.2295
0.2275
0.2265
0.2175
0.216
0.211
0.218
0.212
0.1945
0.182
0.1765
0.167
0.1635
0.182
0.1735
0.164
0.1545
0.149
0.175
0.1615
0.1385
0.1565
0.1605
0.1455
0.128
0.173
0.2335
0.2255
0.232
0.257
0.2715
0.247
0.218
0.2075
0.1965
0.198
0.169
0.152
0.1955
0.2525
0.221
0.1755
0.151
0.147
0.1695
0.1895
0.2475
0.234
0.1825
0.1815
0.1805
0.1705
0.159
0.141
0.1585
0.192
0.17
0.1435
0.1605
0.1755
0.169
0.1615
0.1545
0.1535
0.149
0.1385
0.1415
0.137
0.107
0.093
0.0955
0.0505
0.0295
0.071
0.072
0.066
0.0595
0.0175
-0.016
-0.031
-0.053
-0.0675
-0.076
-0.0815
-0.066
-0.055
-0.0595
-0.082
-0.1315
-0.136
-0.067
-0.0325
0.0135
0.081
0.0995
0.1395
0.1715
0.191
0.2445
0.301
0.365
0.4205
0.483
0.5245
0.5615
0.6415
0.695
0.7165
0.737
0.7725
0.81
0.856
0.8775
0.883
0.882
0.8635
0.877
0.8825
0.8605
0.7915
0.741
0.743
0.709
0.6665
0.6475
0.657
0.6515
0.5795
0.5155
0.4955
0.489
0.49
0.5165
0.5365
0.511
0.4535
0.3905
0.346
0.3125
0.2905
0.289
0.2855
0.242
0.1915
0.1685
0.156
0.1335
0.0925
0.0715
0.059
0.0355
0.072
0.115
0.0755
0.0405
0.0145
-0.024
-0.0515
-0.065
-0.0935
-0.137
-0.124
-0.0905
-0.097
-0.13
-0.1795
-0.2325
-0.219
-0.181
-0.1735
-0.1915
-0.2295
-0.218
-0.201
-0.1675
-0.1625
-0.217
-0.248
-0.2485
-0.24
-0.246
-0.254
-0.248
-0.205
-0.199
-0.224
-0.2365
-0.2495
-0.2455
-0.2305
-0.2035
-0.1895
-0.1825
-0.178
-0.176
-0.1645
-0.164
-0.1555
-0.1315
-0.1115
-0.0975
-0.0735
-0.0505
-0.0545
-0.052
-0.0565
-0.065
-0.0375
-0.014
0.022
0.05
0.029
0.0655
0.1205
0.0925
0.082
0.109
0.1315
0.131
0.084
0.073
0.093
0.086
0.083
0.099
0.0985
0.138
0.1955
0.1785
0.1525
0.1395
0.13
0.14
0.1635
0.1615
0.146
0.1485
0.146
0.139
0.13
0.135
0.136
0.133
0.1385
0.1495
0.166
0.1495
0.1425
0.1585
0.184
0.1895
0.1755
0.1925
0.172
0.1545
0.1625
0.176
0.1815
0.1465
0.1915
0.226
0.1785
0.15
0.155
0.195
0.193
0.157
0.1335
0.1445
0.202
0.2075
0.1765
0.179
0.19
0.18
0.17
0.17
0.168
0.1605
0.1605
0.147
0.1445
0.1545
0.149
0.16
0.1795
0.196
0.173
0.1775
0.19
0.172
0.163
0.1625
0.1885
0.199
0.188
0.1625
0.1385
0.1175
0.107
0.1085
0.134
0.1715
0.204
0.247
0.2225
0.167
0.1395
0.148
0.1755
0.199
0.259
0.2955
0.2495
0.19
0.1925
0.228
0.2615
0.2615
0.243
0.2225
0.2315
0.2665
0.268
0.2825
0.2715
0.2765
0.299
0.286
0.2565
0.2
0.2085
0.2595
0.2925
0.263
0.2215
0.232
0.239
0.24
0.2365
0.245
0.2365
0.2085
0.2215
0.245
0.249
0.239
0.235
0.253
0.269
0.2795
0.2855
0.289
0.2965
0.2925
0.2955
0.2985
0.303
0.321
0.3135
0.292
0.299
0.3285
0.3285
0.322
0.32
0.326
0.33
0.324
0.304
0.2965
0.338
0.356
0.359
0.3545
0.3505
0.3485
0.34
0.352
0.37
0.3795
0.374
0.3645
0.3555
0.3315
0.309
0.3265
0.358
0.3655
0.36
0.3605
0.351
0.338
0.3385
0.369
0.4225
0.432
0.406
0.3825
0.3825
0.372
0.3685
0.3895
0.3945
0.427
0.4045
0.3565
0.4155
0.445
0.403
0.4005
0.402
0.3765
0.3535
0.3455
0.3455
0.342
0.345
0.362
0.3775
0.3835
0.361
0.3065
0.315
0.347
0.3415
0.354
0.356
0.3455
0.354
0.363
0.3575
0.3515
0.361
0.355
0.349
0.3495
0.342
0.361
0.3575
0.337
0.348
0.3415
0.3275
0.333
0.3265
0.3075
0.297
0.317
0.3485
0.354
0.3435
0.3285
0.3205
0.3265
0.3225
0.2995
0.2815
0.2715
0.2905
0.3115
0.287
0.2935
0.2955
0.269
0.278
0.2785
0.2745
0.2765
0.282
0.2865
0.281
0.2805
0.276
0.286
0.289
0.2685
0.273
0.266
0.246
0.2515
0.256
0.2665
0.266
0.254
0.261
0.261
0.262
0.2705
0.253
0.24
0.2695
0.2675
0.254
0.2735
0.254
0.199
0.1985
0.2335
0.2385
0.244
0.2295
0.213
0.2165
0.2095
0.208
0.1955
0.177
0.176
0.16
0.143
0.19
0.2405
0.24
0.2395
0.2245
0.2115
0.2135
0.1795
0.136
0.1465
0.1845
0.1785
0.14
0.1225
0.134
0.13
0.1625
0.213
0.1945
0.209
0.2295
0.2215
0.241
0.2315
0.2165
0.2125
0.1875
0.1445
0.132
0.1485
0.143
0.1405
0.136
0.137
0.147
0.1435
0.142
0.154
0.165
0.173
0.1765
0.169
0.1905
0.1885
0.17
0.1575
0.1185
0.1325
0.166
0.156
0.1485
0.151
0.164
0.163
0.161
0.1955
0.2235
0.2045
0.1925
0.2095
0.1795
0.152
0.153
0.1675
0.201
0.2375
0.2655
0.235
0.215
0.2355
0.2185
0.1865
0.173
0.1775
0.1675
0.146
0.1625
0.1875
0.187
0.1865
0.1985
0.1945
0.188
0.178
0.165
0.181
0.1845
0.1755
0.178
0.1775
0.1865
0.193
0.184
0.1765
0.174
0.16
0.144
0.149
0.1655
0.168
0.1925
0.262
0.251
0.1795
0.1725
0.184
0.205
0.2685
0.286
0.2475
0.212
0.1895
0.188
0.1775
0.2045
0.232
0.219
0.2055
0.18
0.1825
0.192
0.195
0.145
0.1255
0.1775
0.159
0.155
0.1765
0.1685
0.1615
0.149
0.1615
0.186
0.1855
0.183
0.1775
0.1895
0.1945
0.1855
0.1845
0.1945
0.2005
0.179
0.1805
0.189
0.1875
0.1745
0.166
0.1515
0.154
0.184
0.2015
0.219
0.218
0.2215
0.2125
0.2095
0.226
0.2225
0.2245
0.245
0.262
0.239
0.2245
0.2375
0.258
0.2635
0.255
0.2375
0.171
0.186
0.2595
0.2625
0.2515
0.287
0.309
0.281
0.2645
0.2825
0.3055
0.3125
0.32
0.335
0.3585
0.3415
0.295
0.265
0.2445
0.2335
0.2215
0.2095
0.2035
0.194
0.2145
0.236
0.238
0.231
0.2215
0.2305
0.2275
0.225
0.22
0.2215
0.224
0.2195
0.2255
0.2215
0.2385
0.257
0.276
0.2875
0.2585
0.2445
0.257
0.26
0.2445
0.2285
0.2105
0.2005
0.1985
0.185
0.188
0.217
0.24
0.2275
0.2235
0.225
0.202
0.194
0.191
0.1905
0.1875
0.1835
0.1865
0.18
0.1865
0.1795
0.1805
0.182
0.1615
0.1605
0.151
0.1635
0.171
0.1545
0.145
0.1435
0.163
0.1675
0.1945
0.2285
0.204
0.172
0.1665
0.1515
0.146
0.1535
0.1385
0.1215
0.1195
0.142
0.158
0.151
0.1445
0.1605
0.179
0.182
0.166
0.135
0.1215
0.1215
0.1455
0.169
0.204
0.239
0.2135
0.177
0.155
0.124
0.1115
0.1215
0.138
0.168
0.183
0.1755
0.175
0.18
0.156
0.141
0.145
0.087
0.036
0.032
0.027
0.0255
-0.001
-0.0085
-0.002
-0.0035
-0.043
-0.0875
-0.0625
-0.069
-0.0785
-0.067
-0.0725
-0.09
-0.11
-0.104
-0.1
-0.0875
-0.092
-0.083
-0.0265
0.0115
0.041
0.082
0.1675
0.2235
0.2295
0.255
0.2905
0.3555
0.4225
0.4665
0.4865
0.5355
0.6015
0.653
0.721
0.767
0.792
0.792
0.818
0.8615
0.885
0.868
0.816
0.8305
0.856
0.8145
0.729
0.6965
0.691
0.6445
0.6135
0.6075
0.5875
0.5515
0.5365
0.531
0.519
0.4655
0.41
0.459
0.484
0.423
0.395
0.369
0.3305
0.2975
0.2455
0.208
0.1855
0.176
0.1705
0.163
0.1615
0.1485
0.1255
0.0875
0.056
0.026
0.0
-0.0105
-0.018
-0.0305
-0.0585
-0.07
-0.0655
-0.0575
-0.0955
-0.1525
-0.182
-0.1815
-0.1765
-0.2075
-0.1915
-0.1705
-0.1725
-0.1655
-0.182
-0.207
-0.224
-0.221
-0.2335
-0.2545
-0.249
-0.2465
-0.2435
-0.262
-0.294
-0.2835
-0.2765
-0.2725
-0.25
-0.248
-0.2535
-0.255
-0.251
-0.263
-0.2445
-0.2115
-0.1935
-0.1605
-0.1645
-0.1505
-0.1265
-0.112
-0.0955
-0.0745
-0.044
-0.0475
-0.0435
-0.0185
-0.034
-0.0655
-0.051
-0.0375
-0.0165
0.006
-0.0045
0.008
0.036
0.089
0.1495
0.153
0.112
0.0425
0.022
0.0665
0.1005
0.1105
0.11
0.1085
0.1
0.1015
0.1005
0.103
0.1105
0.111
0.111
0.115
0.122
0.117
0.126
0.132
0.138
0.15
0.156
0.16
0.156
0.162
0.159
0.154
0.136
0.127
0.1535
0.159
0.1545
0.1485
0.1435
0.137
0.137
0.137
0.134
0.1205
0.1175
0.128
0.116
0.132
0.1505
0.1675
0.172
0.164
0.174
0.1655
0.182
0.2035
0.1745
0.1595
0.1625
0.161
0.131
0.1095
0.1185
0.12
0.115
0.103
0.0975
0.0935
0.1255
0.1735
0.1895
0.2115
0.2215
0.1655
0.142
0.161
0.1865
0.184
0.1755
0.195
0.1685
0.203
0.196
0.1395
0.174
0.207
0.182
0.165
0.189
0.177
0.162
0.1655
0.1675
0.1695
0.176
0.1725
0.181
0.195
0.1675
0.163
0.1655
0.1545
0.1485
0.1585
0.173
0.1895
0.231
0.242
0.2365
0.237
0.2225
0.22
0.2075
0.1925
0.2175
0.239
0.232
0.224
0.222
0.2205
0.209
0.1955
0.184
0.1765
0.1965
0.212
0.2145
0.2585
0.318
0.3495
0.3435
0.3115
0.3235
0.338
0.2965
0.2325
0.2205
0.25
0.2645
0.25
0.2375
0.2905
0.3065
0.3035
0.318
0.317
0.3125
0.2895
0.2865
0.2785
0.2825
0.3085
0.3045
0.301
0.3025
0.3025
0.306
0.305
0.304
0.322
0.3415
0.3435
0.3355
0.3245
0.3205
0.3175
0.3155
0.316
0.3215
0.313
0.307
0.314
0.3505
0.39
0.3865
0.3795
0.3665
0.36
0.361
0.358
0.3685
0.3775
0.379
0.378
0.375
0.3795
0.398
0.4025
0.3805
0.3795
0.3925
0.3755
0.3485
0.314
0.317
0.3465
0.3215
0.305
0.342
0.3595
0.3665
0.403
0.4085
0.3725
0.345
0.3405
0.3615
0.348
0.313
0.349
0.379
0.358
0.3405
0.32
0.3075
0.2925
0.2755
0.335
0.3935
0.392
0.376
0.3405
0.3345
0.336
0.318
0.3375
0.355
0.328
0.315
0.325
0.339
0.352
0.335
0.309
0.3095
0.305
0.3015
0.314
0.3295
0.328
0.3165
0.3245
0.331
0.328
0.309
0.295
0.294
0.276
0.2565
0.26
0.27
0.284
0.29
0.285
0.2955
0.2925
0.2875
0.285
0.2725
0.2675
0.2705
0.277
0.2655
0.248
0.251
0.2775
0.2995
0.314
0.308
0.291
0.307
0.293
0.294
0.313
0.303
0.303
0.2675
0.2205
0.2045
0.1915
0.182
0.1985
0.2075
0.1975
0.1965
0.1875
0.1935
0.214
0.209
0.1965
0.183
0.1695
0.166
0.202
0.2375
0.222
0.231
0.243
0.2425
0.2365
0.203
0.1975
0.2095
0.1975
0.1935
0.2015
0.1935
0.1875
0.1825
0.1885
0.1955
0.1995
0.2115
0.214
0.1865
0.1535
0.1475
0.162
0.183
0.1965
0.2125
0.201
0.182
0.19
0.1925
0.1955
0.2025
0.1855
0.1295
0.119
0.1695
0.187
0.1835
0.1665
0.1445
0.145
0.1395
0.158
0.168
0.1535
0.1525
0.1295
0.1095
0.1075
0.12
0.145
0.16
0.152
0.1535
0.1705
0.195
0.2135
0.198
0.187
0.189
0.1735
0.1615
0.1815
0.2005
0.214
0.204
0.194
0.193
0.172
0.1585
0.146
0.152
0.147
0.1315
0.146
0.1565
0.1795
0.232
0.2325
0.191
0.176
0.1705
0.195
0.2095
0.2015
0.1925
0.184
0.1815
0.1545
0.192
0.2315
0.202
0.181
0.1715
0.1745
0.163
0.144
0.1595
0.2025
0.218
0.2075
0.222
0.225
0.209
0.195
0.1835
0.1905
0.196
0.172
0.1615
0.189
0.2245
0.2495
0.237
0.182
0.144
0.1665
0.1945
0.188
0.177
0.199
0.205
0.1935
0.195
0.163
0.1525
0.179
0.187
0.1805
0.161
0.174
0.215
0.2105
0.195
0.205
0.2045
0.198
0.206
0.1955
0.183
0.1915
0.1955
0.212
0.208
0.202
0.2125
0.1905
0.1835
0.198
0.1955
0.1875
0.1755
0.191
0.218
0.2195
0.2165
0.2185
0.213
0.213
0.239
0.2425
0.2165
0.1955
0.1745
0.168
0.1915
0.216
0.2175
0.2115
0.199
0.1905
0.2165
0.2585
0.275
0.281
0.2995
0.3195
0.286
0.251
0.2625
0.2215
0.1765
0.1785
0.1985
0.223
0.218
0.219
0.2375
0.2645
0.2855
0.282
0.27
0.2595
0.252
0.2565
0.2935
0.325
0.338
0.3045
0.2225
0.187
0.209
0.22
0.2185
0.2415
0.2655
0.2545
0.2295
0.217
0.22
0.253
0.2825
0.2875
0.295
0.264
0.251
0.2585
0.245
0.2465
0.225
0.193
0.1925
0.2105
0.245
0.2755
0.224
0.1845
0.2155
0.209
0.216
0.253
0.224
0.173
0.175
0.1895
0.182
0.1655
0.1705
0.1675
0.182
0.227
0.226
0.201
0.1895
0.188
0.1775
0.162
0.1465
0.157
0.1635
0.155
0.1675
0.1555
0.166
0.1705
0.15
0.17
0.1815
0.169
0.1635
0.1525
0.1545
0.1695
0.1445
0.1295
0.147
0.1655
0.17
0.175
0.17
0.1465
0.147
0.1405
0.1285
0.14
0.163
0.165
0.1515
0.1485
0.158
0.1385
0.138
0.1855
0.179
0.158
0.133
0.1185
0.129
0.1175
0.116
0.1335
0.1385
0.121
0.0995
0.0885
0.0925
0.098
0.062
0.0195
0.0165
-0.0205
-0.05
-0.0455
-0.061
-0.071
-0.0795
-0.109
-0.1355
-0.14
-0.1115
-0.1
-0.153
-0.148
-0.127
-0.1235
-0.0755
-0.034
0.016
0.083
0.0855
0.079
0.141
0.1795
0.218
0.259
0.2905
0.357
0.4085
0.4215
0.4535
0.5335
0.5925
0.6515
0.7015
0.7365
0.797
0.8375
0.8635
0.872
0.874
0.8625
0.8335
0.824
0.8445
0.83
0.775
0.7425
0.72
0.6765
0.6195
0.6095
0.627
0.618
0.5935
0.586
0.5705
0.5185
0.4375
0.406
0.4305
0.439
0.443
0.4095
0.3535
0.221
0.1365
0.1565
0.1455
0.151
0.14
0.109
0.0895
0.103
0.084
0.032
0.0385
0.023
-0.0065
-0.0105
-0.0325
-0.0475
-0.0505
-0.0735
-0.0745
-0.0665
-0.071
-0.054
-0.0745
-0.119
-0.158
-0.227
-0.24
-0.2025
-0.216
-0.231
-0.217
-0.2065
-0.23
-0.2645
-0.244
-0.243
-0.2495
-0.2155
-0.2155
-0.2625
-0.278
-0.287
-0.331
-0.3155
-0.288
-0.2945
-0.3045
-0.289
-0.255
-0.245
-0.235
-0.243
-0.2625
-0.252
-0.2205
-0.196
-0.1925
-0.181
-0.141
-0.1155
-0.1155
-0.0935
-0.073
-0.0445
-0.0115
-0.0135
-0.0195
-0.0045
0.0075
-0.006
0.0
0.005
0.0035
0.009
0.012
0.033
0.0375
0.067
0.1095
0.108
0.0875
0.056
0.067
0.089
0.088
0.091
0.094
0.086
0.0575
0.0915
0.1485
0.131
0.103
0.105
0.0975
0.0925
0.1135
0.128
0.157
0.172
0.166
0.1555
0.156
0.1585
0.111
0.1115
0.1385
0.1225
0.1065
0.1145
0.132
0.135
0.123
0.104
0.106
0.114
0.126
0.145
0.1485
0.148
0.127
0.1025
0.129
0.1685
0.206
0.2135
0.185
0.1755
0.128
0.08
0.0935
0.0835
0.0965
0.1295
0.1285
0.121
0.123
0.15
0.132
0.097
0.085
0.067
0.0625
0.063
0.053
0.08
0.1405
0.1815
0.178
0.182
0.214
0.2055
0.206
0.2275
0.188
0.171
0.193
0.1415
0.1135
0.146
0.167
0.178
0.1605
0.147
0.1745
0.1895
0.191
0.176
0.141
0.126
0.1115
0.128
0.1555
0.1665
0.1745
0.1755
0.1805
0.2065
0.2115
0.2095
0.206
0.1615
0.176
0.1995
0.1655
0.1465
0.1685
0.195
0.208
0.203
0.1815
0.179
0.184
0.1945
0.2115
0.2495
0.26
0.218
0.1985
0.2025
0.2065
0.216
0.231
0.2365
0.234
0.2475
0.276
0.273
0.26
0.2375
0.2135
0.226
0.238
0.2485
0.266
0.2725
0.258
0.2585
0.2665
0.2695
0.3175
0.337
0.281
0.2815
0.324
0.312
0.304
0.3015
0.2925
0.3035
0.331
0.307
0.2795
0.3005
0.3065
0.2925
0.277
0.2915
0.321
0.3385
0.322
0.308
0.308
0.299
0.305
0.3055
0.3055
0.325
0.3385
0.3375
0.333
0.336
0.3355
0.299
0.288
0.314
0.328
0.3355
0.351
0.3615
0.336
0.314
0.3275
0.347
0.3505
0.3725
0.4065
0.415
0.409
0.3925
0.391
0.3865
0.384
0.408
0.435
0.4225
0.3335
0.295
0.34
0.312
0.2385
0.2615
0.281
0.246
0.2545
0.2735
0.2515
0.2275
0.2705
0.3025
0.3075
0.3165
0.3085
0.2995
0.279
0.2845
0.288
0.2755
0.269
0.256
0.2795
0.298
0.294
0.294
0.2935
0.2935
0.2815
0.278
0.281
0.276
0.2775
0.275
0.2775
0.278
0.271
0.279
0.279
0.2715
0.271
0.2805
0.28
0.2715
0.269
0.2555
0.2615
0.2715
0.258
0.2545
0.2565
0.244
0.2295
0.228
0.2385
0.245
0.233
0.2335
0.2295
0.2325
0.253
0.25
0.236
0.2125
0.2075
0.2065
0.197
0.201
0.215
0.224
0.2005
0.1865
0.1925
0.1945
0.1885
0.1885
0.208
0.2155
0.2015
0.195
0.202
0.181
0.155
0.138
0.1215
0.127
0.1415
0.168
0.1915
0.193
0.1915
0.201
0.2085
0.2095
0.2085
0.236
0.2385
0.185
0.161
0.139
0.1185
0.1005
0.0765
0.0755
0.111
0.153
0.1635
0.176
0.1655
0.127
0.1115
0.1255
0.1465
0.1785
0.21
0.2135
0.1995
0.161
0.1275
0.118
0.1095
0.104
0.106
0.1025
0.109
0.12
0.1485
0.1775
0.164
0.1625
0.171
0.165
0.163
0.154
0.1455
0.134
0.1285
0.142
0.14
0.1315
0.126
0.127
0.121
0.111
0.1255
0.122
0.126
0.162
0.165
0.145
0.139
0.144
0.1225
0.103
0.1345
0.1625
0.191
0.2095
0.174
0.1655
0.1845
0.1475
0.1145
0.1225
0.115
0.1215
0.161
0.181
0.177
0.1825
0.163
0.115
0.14
0.196
0.1815
0.177
0.1835
0.1595
0.1525
0.1455
0.1525
0.165
0.165
0.155
0.143
0.167
0.1865
0.1595
0.13
0.1135
0.109
0.1335
0.139
0.142
0.1705
0.1875
0.2005
0.21
0.19
0.1685
0.171
0.1685
0.1745
0.194
0.1905
0.186
0.1805
0.1795
0.1865
0.1875
0.1775
0.14
0.1505
0.1875
0.192
0.1785
0.154
0.101
0.063
0.1035
0.15
0.2025
0.2345
0.19
0.137
0.15
0.2135
0.244
0.264
0.2855
0.2835
0.289
0.2545
0.2175
0.1835
0.1195
0.095
0.0785
0.094
0.126
0.13
0.139
0.151
0.164
0.178
0.211
0.2155
0.206
0.2
0.134
0.1145
0.151
0.17
0.197
0.181
0.19
0.253
0.2875
0.284
0.252
0.205
0.159
0.193
0.234
0.245
0.1995
0.15
0.1845
0.204
0.214
0.2265
0.2395
0.2665
0.257
0.225
0.2805
0.336
0.2995
0.2475
0.195
0.182
0.204
0.1965
0.2
0.2205
0.2425
0.2615
0.2625
0.238
0.237
0.2565
0.2495
0.276
0.313
0.3165
0.3115
0.3025
0.2945
0.305
0.333
0.3295
0.263
0.2155
0.1755
0.166
0.205
0.212
0.2195
0.192
0.1685
0.199
0.2115
0.1995
0.193
0.17
0.1515
0.1525
0.1615
0.1635
0.164
0.1675
0.1805
0.1875
0.1485
0.1555
0.1735
0.164
0.183
0.1985
0.188
0.178
0.1575
0.139
0.1475
0.1575
0.1685
0.1585
0.1495
0.138
0.157
0.2035
0.2055
0.1935
0.1735
0.1855
0.1695
0.114
0.12
0.109
0.078
0.1245
0.1885
0.2165
0.244
0.2385
0.228
0.229
0.185
0.095
0.063
0.115
0.1425
0.1105
0.0905
0.1355
0.193
0.2095
0.1825
0.1485
0.1355
0.163
0.143
0.1035
0.17
0.1935
0.129
0.114
0.1235
0.0715
0.039
0.091
0.102
0.084
0.086
0.071
0.057
0.055
0.0205
-0.0325
-0.0295
-0.0485
-0.069
-0.0615
-0.0655
-0.0525
-0.086
-0.1395
-0.15
-0.0985
-0.1115
-0.174
-0.1465
-0.122
-0.104
-0.0945
-0.0905
-0.0395
0.0185
0.0405
0.046
0.0785
0.1395
0.1875
0.2325
0.298
0.358
0.4005
0.4395
0.5215
0.5985
0.672
0.76
0.7875
0.786
0.8155
0.8405
0.825
0.803
0.8405
0.871
0.8275
0.8055
0.773
0.729
0.705
0.6555
0.634
0.6495
0.6155
0.5645
0.567
0.544
0.5105
0.514
0.4895
0.4525
0.4175
0.402
0.411
0.3935
0.3715
0.3215
0.277
0.278
0.272
0.229
0.1885
0.191
0.1855
0.186
0.2055
0.199
0.092
0.0515
0.09
0.0435
0.036
0.0385
0.02
0.007
0.0035
-0.0055
-0.0365
-0.0525
-0.069
-0.049
-0.0245
-0.02
-0.06
-0.134
-0.167
-0.212
-0.2295
-0.212
-0.1995
-0.174
-0.1755
-0.183
-0.2005
-0.236
-0.227
-0.202
-0.181
-0.1515
-0.079
-0.0765
-0.1285
-0.1665
-0.2235
-0.2355
-0.2435
-0.2315
-0.2155
-0.277
-0.3835
-0.3225
-0.217
-0.202
-0.1805
-0.2355
-0.269
-0.1675
-0.1025
-0.1125
-0.0825
-0.098
-0.1335
-0.1065
-0.091
-0.0895
-0.065
-0.029
-0.0035
0.0175
0.0285
0.0245
0.0115
-0.0055
0.015
0.0495
0.0645
0.0765
0.067
0.0445
0.052
0.0725
0.092
0.129
0.168
0.195
0.1815
0.1265
0.1335
0.141
0.106
0.099
0.106
0.1165
0.09
0.076
0.086
0.0935
0.108
0.106
0.141
0.163
0.1405
0.149
0.1315
0.1355
0.142
0.1125
0.152
0.1905
0.177
0.193
0.156
0.0925
0.1335
0.16
0.172
0.202
0.224
0.233
0.2115
0.18
0.1655
0.1325
0.085
0.112
0.1495
0.149
0.1545
0.141
0.1265
0.157
0.178
0.1545
0.134
0.206
0.2525
0.177
0.172
0.1725
0.1295
0.1245
0.1365
0.1605
0.17
0.1815
0.1815
0.172
0.185
0.2235
0.2915
0.3545
0.4245
0.449
0.31
0.122
-0.011
-0.0135
0.0715
0.113
0.1535
0.168
0.147
0.1415
0.1535
0.1645
0.187
0.207
0.241
0.2565
0.2185
0.2215
0.194
0.195
0.232
0.1895
0.186
0.231
0.226
0.211
0.2225
0.1835
0.1675
0.191
0.1695
0.163
0.212
0.264
0.281
0.3105
0.3355
0.3135
0.2655
0.257
0.223
0.23
0.305
0.32
0.3455
0.239
0.2015
0.2605
0.186
0.21
0.2595
0.2705
0.2675
0.2605
0.275
0.2825
0.3165
0.3025
0.271
0.3005
0.328
0.343
0.333
0.2915
0.286
0.3105
0.3135
0.2995
0.315
0.3435
0.36
0.371
0.399
0.362
0.325
0.3335
0.324
0.3495
0.3285
0.3115
0.301
0.2985
0.325
0.321
0.307
0.3065
0.3175
0.3435
0.3895
0.402
0.432
0.4215
0.333
0.29
0.3025
0.328
0.3555
0.361
0.352
0.3685
0.3785
0.3925
0.397
0.397
0.4275
0.3625
0.28
0.296
0.3125
0.3135
0.33
0.3455
0.355
0.3335
0.3
0.3085
0.3255
0.34
0.352
0.366
0.3375
0.368
0.416
0.3595
0.35
0.3175
0.3125
0.353
0.337
0.3365
0.315
0.3225
0.3225
0.2845
0.328
0.323
0.2785
0.2925
0.312
0.3205
0.303
0.316
0.3215
0.2955
0.2965
0.2915
0.296
0.321
0.294
0.2615
0.278
0.298
0.293
0.322
0.35
0.3285
0.3105
0.304
0.3405
0.339
0.301
0.2725
0.254
0.294
0.316
0.3005
0.281
0.255
0.25
0.251
0.2535
0.268
0.2765
0.2815
0.2865
0.2855
0.2725
0.2655
0.267
0.265
0.2615
0.2545
0.2575
0.2525
0.2435
0.2405
0.2405
0.276
0.329
0.395
0.49
0.4455
0.3245
0.331
0.392
0.459
0.3505
0.151
0.059
-0.0015
0.0725
0.101
0.096
0.1855
0.162
0.125
0.156
0.1625
0.147
0.1585
0.1545
0.1685
0.199
0.1995
0.1905
0.183
0.175
0.148
0.1615
0.1815
0.18
0.1735
0.168
0.1725
0.172
0.175
0.173
0.1825
0.196
0.1965
0.1985
0.191
0.186
0.19
0.193
0.1895
0.175
0.1595
0.169
0.1885
0.1865
0.183
0.189
0.1905
0.1835
0.178
0.184
0.186
0.1765
0.186
0.199
0.186
0.1715
0.185
0.2015
0.204
0.2075
0.196
0.181
0.1905
0.1995
0.1985
0.2155
0.2205
0.1995
0.191
0.1945
0.2025
0.2015
0.206
0.2305
0.2415
0.2405
0.248
0.261
0.2835
0.2985
0.226
0.183
0.217
0.149
0.1395
0.1785
0.108
0.1435
0.2435
0.2775
0.266
0.2015
0.1505
0.137
0.105
0.0645
0.094
0.1245
0.1195
0.1475
0.248
0.2655
0.192
0.2165
0.235
0.21
0.196
0.1795
0.1765
0.177
0.199
0.2195
0.209
0.1915
0.184
0.2035
0.212
0.2025
0.202
0.199
0.1865
0.1845
0.2055
0.2085
0.2205
0.2265
0.215
0.223
0.211
0.1905
0.1725
0.167
0.1775
0.191
0.204
0.2005
0.206
0.2135
0.1965
0.189
0.198
0.2015
0.2025
0.212
0.218
0.2115
0.2055
0.1885
0.175
0.145
0.1305
0.184
0.234
0.276
0.275
0.277
0.2955
0.27
0.2985
0.277
0.1915
0.161
0.1435
0.1575
0.1865
0.2085
0.261
0.2705
0.2265
0.217
0.201
0.1475
0.138
0.162
0.1565
0.153
0.146
0.1655
0.237
0.2905
0.292
0.257
0.2555
0.2495
0.1915
0.1815
0.195
0.18
0.192
0.2195
0.233
0.2355
0.243
0.2575
0.2625
0.266
0.2665
0.2665
0.2585
0.2595
0.27
0.2595
0.2525
0.27
0.283
0.2735
0.285
0.289
0.2585
0.2255
0.1935
0.203
0.2475
0.267
0.28
0.35
0.3335
0.222
0.1995
0.2005
0.222
0.2705
0.3165
0.3365
0.336
0.3175
0.253
0.2575
0.276
0.2405
0.2205
0.212
0.226
0.246
0.258
0.2625
0.2415
0.235
0.223
0.2
0.199
0.1965
0.183
0.177
0.1915
0.227
0.2545
0.249
0.246
0.225
0.182
0.1735
0.1835
0.182
0.1575
0.147
0.146
0.1635
0.206
0.2355
0.233
0.149
0.1095
0.14
0.135
0.132
0.1375
0.168
0.2175
0.242
0.22
0.19
0.169
0.161
0.1685
0.175
0.1685
0.1505
0.145
0.1255
0.127
0.118
0.1025
0.1285
0.152
0.1575
0.123
0.1235
0.1635
0.208
0.2285
0.1985
0.193
0.1885
0.153
0.1305
0.1755
0.218
0.19
0.1785
0.1815
0.188
0.1915
0.1845
0.177
0.158
0.149
0.133
0.124
0.113
0.1085
0.123
0.1085
0.089
0.004
-0.0635
-0.029
-0.0335
-0.07
-0.0825
-0.077
-0.078
-0.093
-0.0945
-0.0885
-0.11
-0.1405
-0.1615
-0.134
-0.0935
-0.072
-0.002
0.053
0.087
0.1235
0.1255
0.178
0.231
0.233
0.269
0.305
0.372
0.45
0.484
0.5405
0.6055
0.662
0.683
0.653
0.665
0.747
0.8195
0.824
0.804
0.777
0.7795
0.873
0.9165
0.859
0.819
0.7835
0.7105
0.6505
0.6275
0.6095
0.5895
0.5715
0.563
0.576
0.5595
0.513
0.461
0.4015
0.403
0.4085
0.3745
0.344
0.312
0.2945
0.3
0.306
0.289
0.275
0.26
0.249
0.2155
0.1725
0.1895
0.1695
0.118
0.091
0.096
0.1235
0.0785
0.0175
0.0005
0.024
0.0425
0.0215
-0.004
-0.0455
-0.085
-0.0855
-0.0805
-0.109
-0.1305
-0.1315
-0.137
-0.1555
-0.1625
-0.1645
-0.195
-0.209
-0.1975
-0.1865
-0.171
-0.159
-0.1595
-0.158
-0.153
-0.1565
-0.1845
-0.1975
-0.1675
-0.218
-0.2635
-0.2215
-0.211
-0.2185
-0.254
-0.27
-0.2465
-0.235
-0.226
-0.21
-0.144
-0.103
-0.1185
-0.1475
-0.166
-0.1655
-0.147
-0.089
-0.038
0.0115
0.011
-0.071
-0.061
0.029
0.046
0.024
0.033
0.0375
0.0345
0.0705
0.057
0.039
0.0615
0.0515
0.0555
0.066
0.0825
0.1055
0.122
0.1195
0.115
0.123
0.126
0.1205
0.1225
0.1405
0.1425
0.141
0.148
0.161
0.1585
0.1335
0.1195
0.1285
0.1425
0.148
0.155
0.1575
0.1545
0.1675
0.1875
0.1465
0.163
0.211
0.1875
0.179
0.1545
0.1315
0.102
0.108
0.1705
0.1915
0.1355
0.1355
0.162
0.1475
0.165
0.147
0.147
0.1555
0.117
0.112
0.135
0.132
0.1365
0.149
0.187
0.2075
0.1875
0.194
0.1875
0.1835
0.1885
0.181
0.1865
0.185
0.155
0.139
0.1495
0.178
0.188
0.178
0.1955
0.201
0.1855
0.1765
0.1655
0.155
0.154
0.1705
0.191
0.1995
0.1915
0.1675
0.1615
0.1915
0.21
0.1845
0.192
0.236
0.2405
0.2275
0.222
0.221
0.219
0.2285
0.229
0.209
0.211
0.219
0.1995
0.1975
0.2125
0.1975
0.191
0.215
0.255
0.266
0.249
0.2485
0.235
0.208
0.215
0.229
0.244
0.2685
0.2865
0.309
0.2905
0.276
0.28
0.278
0.267
0.299
0.3865
0.422
0.365
0.2735
0.294
0.343
0.305
0.252
0.2505
0.2605
0.2685
0.2845
0.292
0.308
0.31
0.3025
0.2855
0.2805
0.2885
0.2975
0.3175
0.3295
0.334
0.335
0.343
0.351
0.348
0.3395
0.341
0.3495
0.3525
0.355
0.3455
0.339
0.3425
0.3635
0.353
0.315
0.3435
0.371
0.3735
0.372
0.3705
0.391
0.374
0.3295
0.3195
0.352
0.3685
0.36
0.352
0.3655
0.381
0.365
0.369
0.372
0.372
0.339
0.3075
0.34
0.376
0.411
0.41
0.369
0.3625
0.384
0.37
0.3595
0.35
0.325
0.307
0.2595
0.3015
0.3775
0.412
0.425
0.3585
0.3495
0.3975
0.398
0.389
0.3895
0.3715
0.3385
0.334
0.352
0.3615
0.3835
0.38
0.3815
0.4075
0.389
0.364
0.3155
0.2915
0.307
0.295
0.2905
0.2905
0.2645
0.264
0.2865
0.2845
0.3095
0.332
0.338
0.3625
0.3625
0.336
0.334
0.3625
0.358
0.3255
0.315
0.3225
0.3165
0.3035
0.2945
0.2755
0.2405
0.2155
0.2245
0.2435
0.294
0.3755
0.398
0.3565
0.361
0.344
0.2955
0.28
0.264
0.2415
0.1935
0.224
0.27
0.266
0.272
0.285
0.2935
0.2655
0.268
0.256
0.2435
0.254
0.2525
0.229
0.2115
0.203
0.1895
0.226
0.246
0.2345
0.24
0.246
0.2415
0.2525
0.25
0.2255
0.227
0.2325
0.2265
0.2235
0.2225
0.222
0.2225
0.224
0.224
0.2195
0.212
0.2075
0.217
0.2235
0.22
0.222
0.2185
0.2215
0.2255
0.2145
0.2045
0.197
0.208
0.219
0.2165
0.2005
0.155
0.1255
0.173
0.184
0.167
0.1715
0.162
0.208
0.1995
0.1785
0.219
0.226
0.1675
0.1775
0.2305
0.2695
0.291
0.2425
0.2185
0.228
0.2485
0.222
0.226
0.2145
0.1725
0.162
0.155
0.1765
0.207
0.2335
0.214
0.2035
0.2095
0.2045
0.2045
0.2025
0.2035
0.205
0.2125
0.219
0.2265
0.222
0.2135
0.2115
0.21
0.213
0.214
0.2135
0.2165
0.2195
0.213
0.2135
0.217
0.214
0.21
0.21
0.215
0.2185
0.2235
0.2265
0.227
0.227
0.2355
0.2485
0.2535
0.2345
0.2145
0.225
0.211
0.2095
0.2155
0.194
0.198
0.203
0.202
0.2085
0.21
0.214
0.217
0.22
0.2565
0.261
0.2065
0.169
0.1635
0.1845
0.1955
0.195
0.1825
0.1705
0.197
0.2135
0.2225
0.2055
0.185
0.2085
0.2325
0.231
0.225
0.259
0.2975
0.2835
0.212
0.15
0.1715
0.209
0.22
0.2125
0.147
0.1075
0.125
0.2
0.3105
0.279
0.249
0.2715
0.25
0.25
0.2355
0.2155
0.181
0.207
0.2465
0.233
0.241
0.255
0.272
0.24
0.2145
0.2105
0.22
0.281
0.2975
0.2575
0.237
0.2415
0.2285
0.2115
0.226
0.2655
0.2595
0.2175
0.1915
0.187
0.2075
0.227
0.2415
0.2145
0.176
0.174
0.1745
0.16
0.203
0.253
0.2545
0.2695
0.26
0.2735
0.276
0.235
0.2425
0.2545
0.252
0.249
0.26
0.274
0.2515
0.2555
0.29
0.305
0.3095
0.304
0.301
0.322
0.312
0.283
0.2865
0.286
0.3105
0.3515
0.3425
0.3365
0.336
0.302
0.276
0.271
0.29
0.2915
0.2565
0.265
0.279
0.275
0.2675
0.275
0.2975
0.2795
0.2915
0.2785
0.2555
0.318
0.3365
0.3145
0.294
0.2745
0.271
0.27
0.2985
0.3315
0.3465
0.333
0.3175
0.3075
0.2885
0.277
0.2635
0.248
0.247
0.2485
0.2435
0.249
0.274
0.295
0.2665
0.2205
0.214
0.211
0.188
0.1885
0.2
0.1825
0.1735
0.1815
0.179
0.1805
0.187
0.1965
0.217
0.2385
0.2435
0.199
0.1815
0.168
0.1545
0.201
0.19
0.16
0.1805
0.2245
0.227
0.1985
0.1915
0.1975
0.208
0.214
0.219
0.218
0.2155
0.2055
0.2015
0.179
0.187
0.1885
0.1725
0.195
0.205
0.186
0.167
0.1755
0.1595
0.177
0.1985
0.178
0.175
0.1965
0.2115
0.19
0.187
0.167
0.136
0.156
0.2005
0.1695
0.1325
0.173
0.156
0.12
0.101
0.0845
0.124
0.12
0.0445
0.0165
0.0085
0.006
0.014
-0.0235
-0.063
-0.0795
-0.069
-0.0305
-0.0375
-0.093
-0.132
-0.145
-0.108
-0.0775
-0.0765
-0.0535
-0.0145
0.027
0.06
0.1135
0.1525
0.1895
0.237
0.2795
0.327
0.3825
0.4435
0.4645
0.5225
0.6015
0.6245
0.649
0.6855
0.749
0.833
0.873
0.862
0.8645
0.8865
0.8855
0.8905
0.8945
0.946
0.9395
0.803
0.757
0.7065
0.6245
0.618
0.626
0.6245
0.6015
0.5675
0.533
0.538
0.546
0.5375
0.5255
0.476
0.4205
0.3795
0.338
0.3435
0.346
0.311
0.3005
0.2465
0.191
0.188
0.172
0.143
0.0955
0.0525
0.0375
0.0345
0.0345
0.0175
0.056
0.1045
0.0815
0.07
0.0385
-0.0085
-0.084
-0.098
0.0095
-0.022
-0.083
-0.092
-0.1315
-0.1465
-0.142
-0.124
-0.185
-0.2295
-0.1855
-0.1645
-0.171
-0.204
-0.2145
-0.1945
-0.1835
-0.1925
-0.237
-0.2385
-0.2215
-0.223
-0.225
-0.214
-0.1935
-0.204
-0.2115
-0.212
-0.2095
-0.1955
-0.198
-0.1895
-0.1705
-0.153
-0.114
-0.1045
-0.1145
-0.1005
-0.073
-0.0475
-0.026
-0.0085
0.0125
0.059
0.0595
0.035
0.064
0.07
0.014
-0.02
-0.002
0.0085
0.0825
0.062
-0.007
0.014
0.065
0.1575
0.1395
0.1675
0.2075
0.129
0.0975
0.1975
0.259
0.1565
0.1025
0.112
0.092
0.1155
0.1685
0.1595
0.1455
0.153
0.154
0.169
0.1755
0.1735
0.1765
0.177
0.174
0.1765
0.1915
0.2035
0.195
0.184
0.18
0.181
0.1715
0.168
0.188
0.199
0.228
0.235
0.208
0.2095
0.2155
0.23
0.2165
0.1675
0.145
0.1405
0.1515
0.16
0.1715
0.194
0.208
0.195
0.174
0.2045
0.2275
0.2035
0.1915
0.19
0.178
0.1525
0.156
0.1755
0.1755
0.1815
0.1745
0.1785
0.186
0.1835
0.187
0.1735
0.154
0.1365
0.127
0.1365
0.1625
0.1965
0.2285
0.2115
0.1675
0.1425
0.1285
0.1525
0.2095
0.285
0.302
0.262
0.2375
0.2565
0.2855
0.2875
0.2995
0.301
0.2955
0.2555
0.214
0.201
0.1905
0.207
0.195
0.163
0.203
0.229
0.203
0.2205
0.233
0.2345
0.251
0.2555
0.2445
0.2435
0.2335
0.219
0.233
0.25
0.276
0.278
0.263
0.259
0.2625
0.2675
0.274
0.2805
0.2645
0.2465
0.2675
0.299
0.306
0.3
0.268
0.24
0.2105
0.2435
0.3055
0.2885
0.2645
0.2775
0.3525
0.378
0.3605
0.3405
0.2755
0.3025
0.3345
0.3285
0.3445
0.3485
0.347
0.3565
0.392
0.3725
0.338
0.3635
0.4015
0.3875
0.366
0.3675
0.3325
0.326
0.35
0.369
0.3975
0.392
0.3695
0.3605
0.375
0.388
0.367
0.374
0.3615
0.346
0.374
0.3665
0.3695
0.3695
0.3575
0.3645
0.345
0.3455
0.3785
0.41
0.405
0.347
0.3555
0.4185
0.434
0.389
0.3505
0.3685
0.39
0.3765
0.353
0.3585
0.3625
0.3675
0.3645
0.3705
0.392
0.401
0.4135
0.3975
0.384
0.367
0.344
0.3335
0.3515
0.3665
0.382
0.394
0.3695
0.3855
0.401
0.3765
0.332
0.3205
0.332
0.3445
0.3745
0.351
0.2995
0.304
0.3585
0.4335
0.4525
0.413
0.366
0.3255
0.323
0.3375
0.3675
0.395
0.3775
0.3455
0.3205
0.3065
0.302
0.327
0.3515
0.358
0.369
0.318
0.3045
0.3295
0.309
0.3145
0.3275
0.329
0.3275
0.2925
0.231
0.2405
0.288
0.307
0.309
0.277
0.281
0.311
0.3035
0.2895
0.2995
0.331
0.323
0.2785
0.2325
0.218
0.232
0.2185
0.2585
0.3135
0.294
0.271
0.2785
0.3175
0.3085
0.2305
0.181
0.1825
0.1955
0.198
0.2195
0.2315
0.22
0.2175
0.2325
0.2405
0.24
0.252
0.245
0.217
0.2255
0.23
0.214
0.2505
0.2565
0.2215
0.206
0.2145
0.2515
0.278
0.241
0.1985
0.204
0.1825
0.148
0.145
0.167
0.212
0.242
0.243
0.2305
0.2445
0.223
0.169
0.17
0.173
0.1625
0.1585
0.163
0.168
0.167
0.1825
0.2175
0.216
0.183
0.1715
0.1675
0.1615
0.146
0.1295
0.128
0.164
0.182
0.1755
0.195
0.1585
0.144
0.176
0.1925
0.184
0.141
0.1685
0.2675
0.3005
0.234
0.1865
0.179
0.2125
0.243
0.219
0.2145
0.2315
0.2465
0.2285
0.1845
0.1895
0.2115
0.246
0.281
0.2765
0.2415
0.2245
0.26
0.221
0.1645
0.175
0.1925
0.206
0.2065
0.2015
0.193
0.2055
0.212
0.207
0.216
0.2015
0.1755
0.1815
0.208
0.2215
0.2335
0.254
0.2235
0.179
0.1805
0.19
0.203
0.194
0.1955
0.207
0.1695
0.155
0.1305
0.1395
0.197
0.234
0.2955
0.375
0.3775
0.2445
0.183
0.1795
0.1865
0.2055
0.195
0.2175
0.205
0.23
0.2455
0.2415
0.213
0.1265
0.1585
0.2205
0.209
0.188
0.192
0.2005
0.217
0.2245
0.2005
0.182
0.183
0.1965
0.221
0.225
0.213
0.2105
0.1745
0.1515
0.1725
0.2005
0.2275
0.243
0.2435
0.2395
0.234
0.2335
0.2415
0.239
0.239
0.231
0.2115
0.193
0.2275
0.2565
0.2135
0.1935
0.202
0.242
0.255
0.214
0.1995
0.268
0.2555
0.135
0.119
0.1875
0.258
0.2845
0.294
0.2575
0.2125
0.2325
0.2595
0.266
0.285
0.3035
0.2805
0.276
0.2675
0.2435
0.245
0.261
0.278
0.292
0.2965
0.2955
0.2915
0.269
0.2615
0.2595
0.2785
0.3035
0.305
0.293
0.3025
0.3255
0.299
0.2815
0.286
0.2945
0.2975
0.298
0.274
0.245
0.278
0.2985
0.2955
0.277
0.262
0.2535
0.257
0.263
0.234
0.2265
0.2375
0.235
0.2515
0.272
0.308
0.336
0.2985
0.3655
0.341
0.275
0.329
0.315
0.272
0.248
0.281
0.2925
0.2745
0.248
0.268
0.3125
0.306
0.296
0.2935
0.2495
0.162
0.1895
0.236
0.218
0.1925
0.1745
0.1875
0.1795
0.1785
0.1715
0.16
0.1785
0.1975
0.2065
0.1935
0.1965
0.1945
0.19
0.21
0.228
0.2245
0.216
0.2205
0.195
0.152
0.134
0.1425
0.144
0.1175
0.0975
0.1205
0.14
0.1515
0.183
0.1955
0.168
0.1365
0.147
0.15
0.173
0.1685
0.172
0.238
0.201
0.219
0.272
0.2305
0.1945
0.1735
0.1725
0.1845
0.2
0.1975
0.1835
0.161
0.153
0.1735
0.182
0.179
0.1655
0.146
0.139
0.1285
0.114
0.1065
0.094
0.0755
0.0605
0.042
0.029
0.028
0.0065
-0.0025
0.002
-0.0135
-0.042
-0.099
-0.135
-0.129
-0.098
-0.0765
-0.0865
-0.1135
-0.1285
-0.098
-0.0455
-0.0035
0.047
0.1205
0.154
0.142
0.145
0.216
0.29
0.3195
0.333
0.37
0.4445
0.475
0.508
0.5875
0.6665
0.7295
0.7455
0.7745
0.8275
0.838
0.8675
0.881
0.851
0.8145
0.8
0.832
0.816
0.7665
0.744
0.707
0.6545
0.606
0.601
0.644
0.64
0.5915
0.5805
0.576
0.5445
0.519
0.4885
0.435
0.4105
0.4145
0.3915
0.3565
0.3165
0.295
0.275
0.2455
0.242
0.2185
0.192
0.1675
0.1185
0.1075
0.1205
0.0835
0.0405
0.0385
0.015
-0.0095
-0.006
-0.008
-0.017
-0.0235
-0.0335
-0.06
-0.104
-0.133
-0.123
-0.1255
-0.137
-0.1525
-0.172
-0.189
-0.222
-0.241
-0.229
-0.2085
-0.216
-0.2235
-0.241
-0.249
-0.2135
-0.2275
-0.249
-0.2305
-0.2355
-0.2325
-0.221
-0.205
-0.161
-0.1535
-0.184
-0.193
-0.1955
-0.2015
-0.201
-0.1975
-0.205
-0.186
-0.1575
-0.153
-0.134
-0.117
-0.1
-0.0895
-0.0585
-0.0295
-0.039
-0.0325
-0.0085
0.0205
0.037
0.0185
0.002
0.016
0.0405
0.058
0.073
0.0965
0.104
0.1075
0.13
0.1375
0.1165
0.1015
0.106
0.119
0.1365
0.1415
0.1465
0.1495
0.1375
0.1285
0.1285
0.1315
0.15
0.1615
0.145
0.149
0.1545
0.157
0.1485
0.116
0.1425
0.182
0.1575
0.1355
0.149
0.129
0.095
0.1615
0.233
0.196
0.1515
0.143
0.1455
0.154
0.1615
0.1845
0.2125
0.219
0.1905
0.168
0.162
0.1595
0.1945
0.198
0.185
0.198
0.209
0.1865
0.1475
0.1595
0.15
0.144
0.1565
0.1565
0.1745
0.196
0.2135
0.205
0.1715
0.124
0.1475
0.216
0.2185
0.221
0.189
0.141
0.1745
0.193
0.1845
0.178
0.184
0.214
0.237
0.229
0.217
0.2415
0.21
0.112
0.074
0.1135
0.1705
0.2095
0.2025
0.2165
0.2335
0.208
0.2005
0.2215
0.231
0.2105
0.203
0.183
0.209
0.238
0.242
0.2645
0.2325
0.206
0.2145
0.2105
0.1985
0.241
0.253
0.2
0.1555
0.1595
0.1825
0.2075
0.2715
0.2785
0.265
0.2575
0.215
0.1995
0.213
0.231
0.286
0.3315
0.32
0.303
0.3255
0.34
0.2925
0.2775
0.345
0.4205
0.452
0.4195
0.392
0.3845
0.384
0.358
0.303
0.346
0.326
0.2565
0.271
0.295
0.3005
0.274
0.2685
0.257
0.244
0.2835
0.311
0.311
0.3155
0.322
0.3175
0.298
0.309
0.32
0.3255
0.347
0.3575
0.373
0.383
0.377
0.3555
0.3335
0.349
0.3495
0.3455
0.365
0.362
0.3815
0.4
0.3625
0.3215
0.353
0.3625
0.3675
0.4095
0.3775
0.3825
0.399
0.3575
0.339
0.345
0.3725
0.3715
0.358
0.3685
0.3615
0.378
0.36
0.33
0.3755
0.3945
0.3845
0.375
0.365
0.372
0.392
0.395
0.377
0.3645
0.36
0.3605
0.3645
0.362
0.362
0.339
0.3235
0.353
0.3575
0.3555
0.3525
0.366
0.3915
0.3915
0.376
0.3705
0.3725
0.3565
0.3535
0.3645
0.379
0.3785
0.363
0.3625
0.365
0.3615
0.3245
0.314
0.346
0.361
0.3545
0.3435
0.3595
0.343
0.325
0.325
0.335
0.329
0.3105
0.3295
0.3385
0.342
0.3535
0.358
0.353
0.3475
0.341
0.3375
0.319
0.3435
0.3515
0.303
0.3005
0.302
0.298
0.2945
0.291
0.294
0.283
0.2575
0.2475
0.254
0.2625
0.2845
0.291
0.271
0.221
0.226
0.2855
0.2815
0.284
0.3025
0.274
0.2575
0.2605
0.24
0.22
0.198
0.2035
0.229
0.238
0.2425
0.253
0.2565
0.2395
0.224
0.2035
0.191
0.1995
0.2
0.201
0.1985
0.1915
0.2055
0.2245
0.249
0.2415
0.243
0.264
0.2605
0.2615
0.2355
0.1905
0.1705
0.203
0.218
0.195
0.2025
0.1845
0.1755
0.176
0.155
0.177
0.197
0.228
0.231
0.226
0.2535
0.197
0.139
0.133
0.138
0.158
0.169
0.1785
0.1865
0.1935
0.2255
0.254
0.2315
0.205
0.201
0.179
0.1585
0.164
0.183
0.193
0.1995
0.2175
0.2445
0.2415
0.222
0.216
0.2125
0.225
0.182
0.146
0.163
0.1655
0.234
0.2625
0.2155
0.2165
0.224
0.224
0.2415
0.2325
0.228
0.2445
0.209
0.1915
0.216
0.2125
0.2185
0.205
0.1415
0.161
0.2095
0.206
0.215
0.215
0.1875
0.176
0.2005
0.2165
0.2205
0.207
0.195
0.1815
0.1645
0.1925
0.2065
0.2075
0.205
0.1855
0.2045
0.2435
0.2385
0.2035
0.2025
0.213
0.2065
0.207
0.2115
0.218
0.225
0.229
0.244
0.2255
0.2095
0.2295
0.237
0.2455
0.2315
0.191
0.158
0.1485
0.155
0.204
0.25
0.225
0.223
0.223
0.2045
0.184
0.1635
0.169
0.17
0.2115
0.2455
0.242
0.2285
0.202
0.218
0.222
0.203
0.198
0.193
0.207
0.216
0.2255
0.225
0.2015
0.1965
0.207
0.2065
0.203
0.1895
0.2055
0.2415
0.2285
0.2315
0.236
0.2305
0.249
0.28
0.2875
0.2585
0.2075
0.1765
0.1925
0.203
0.226
0.1405
0.1115
0.231
0.2495
0.224
0.226
0.251
0.239
0.218
0.1955
0.1665
0.213
0.2415
0.232
0.238
0.258
0.29
0.2845
0.243
0.215
0.2105
0.2265
0.239
0.2385
0.2585
0.2975
0.3075
0.298
0.265
0.251
0.277
0.296
0.31
0.314
0.321
0.3195
0.3265
0.334
0.32
0.3015
0.2895
0.28
0.2585
0.243
0.2395
0.239
0.2415
0.2515
0.251
0.263
0.2845
0.296
0.3125
0.3045
0.308
0.3335
0.343
0.3405
0.3455
0.339
0.3225
0.3565
0.376
0.3405
0.3335
0.3495
0.319
0.289
0.2645
0.2085
0.1755
0.1655
0.1985
0.252
0.258
0.2285
0.2435
0.2625
0.23
0.1995
0.179
0.171
0.158
0.1695
0.2035
0.206
0.1785
0.1675
0.1795
0.1805
0.179
0.184
0.1855
0.182
0.1745
0.1775
0.194
0.189
0.168
0.1645
0.201
0.225
0.219
0.2195
0.2095
0.1915
0.17
0.167
0.178
0.1685
0.1845
0.199
0.182
0.1945
0.2
0.176
0.1705
0.197
0.211
0.186
0.179
0.194
0.185
0.173
0.1795
0.1895
0.2
0.1975
0.1935
0.1845
0.1505
0.191
0.252
0.2265
0.203
0.2
0.1705
0.146
0.164
0.132
0.1415
0.2245
0.185
0.1015
0.1075
0.1515
0.1535
0.1625
0.1535
0.116
0.062
-0.016
-0.01
-0.044
-0.0925
-0.0505
-0.043
-0.0705
-0.1045
-0.1105
-0.1125
-0.143
-0.1365
-0.11
-0.094
-0.053
-0.011
0.0245
0.0555
0.103
0.161
0.18
0.209
0.2465
0.295
0.3405
0.4125
0.4875
0.5355
0.604
0.671
0.723
0.7355
0.777
0.824
0.8445
0.8545
0.854
0.857
0.8525
0.8625
0.84
0.8255
0.8235
0.7725
0.7045
0.683
0.67
0.634
0.6425
0.6405
0.619
0.6175
0.6155
0.5795
0.537
0.52
0.5125
0.512
0.496
0.4335
0.373
0.335
0.2875
0.27
0.2475
0.2125
0.1915
0.159
0.129
0.131
0.157
0.1435
0.103
0.065
0.06
0.083
0.055
-0.0065
-0.018
-0.004
-0.017
-0.047
-0.084
-0.0895
-0.09
-0.11
-0.1425
-0.1655
-0.1385
-0.1415
-0.1855
-0.206
-0.2125
-0.217
-0.1975
-0.177
-0.167
-0.1805
-0.2045
-0.1945
-0.198
-0.228
-0.251
-0.2795
-0.2645
-0.21
-0.2255
-0.243
-0.223
-0.22
-0.2
-0.1965
-0.2025
-0.1845
-0.1695
-0.166
-0.1745
-0.165
-0.1225
-0.086
-0.079
-0.0705
-0.0555
-0.044
-0.04
-0.0345
-0.0255
-0.0195
-0.0035
0.0035
0.0115
0.033
0.062
0.0675
0.057
0.07
0.085
0.0975
0.1065
0.103
0.087
0.09
0.11
0.1155
0.127
0.1385
0.1455
0.149
0.1575
0.164
0.1505
0.1535
0.1615
0.1645
0.1645
0.164
0.1595
0.1625
0.1805
0.1695
0.158
0.163
0.175
0.1815
0.1835
0.1805
0.1625
0.1705
0.1925
0.198
0.2085
0.225
0.213
0.177
0.1645
0.2045
0.2275
0.2235
0.2015
0.164
0.16
0.16
0.161
0.1745
0.1865
0.1855
0.187
0.191
0.179
0.1685
0.1835
0.2095
0.223
0.2175
0.2
0.1965
0.1805
0.1735
0.1895
0.1965
0.201
0.2075
0.2025
0.188
0.177
0.17
0.175
0.1855
0.2005
0.223
0.254
0.253
0.239
0.229
0.211
0.2045
0.1995
0.2065
0.204
0.2055
0.209
0.203
0.2025
0.1965
0.2
0.204
0.2155
0.2185
0.2125
0.2185
0.227
0.245
0.254
0.254
0.236
0.223
0.2255
0.2205
0.2245
0.2225
0.2195
0.2355
0.251
0.2675
0.265
0.25
0.256
0.249
0.2465
0.2525
0.2615
0.2585
0.252
0.265
0.2645
0.2595
0.264
0.2815
0.2825
0.271
0.2725
0.277
0.285
0.3015
0.3095
0.3025
0.29
0.2865
0.3025
0.3065
0.3085
0.3045
0.3035
0.3175
0.3155
0.316
0.3155
0.326
0.3335
0.3245
0.328
0.339
0.372
0.384
0.366
0.3615
0.348
0.333
0.337
0.3405
0.3375
0.335
0.3485
0.3605
0.3655
0.381
0.371
0.3515
0.3415
0.3495
0.3585
0.3515
0.3455
0.352
0.366
0.369
0.3795
0.376
0.38
0.3975
0.359
0.3085
0.3735
0.511
0.535
0.45
0.4015
0.4025
0.381
0.366
0.431
0.459
0.4205
0.3985
0.3805
0.3785
0.3785
0.373
0.344
0.3365
0.3605
0.375
0.387
0.382
0.379
0.392
0.389
0.377
0.3795
0.3735
0.3715
0.3755
0.361
0.355
0.362
0.367
0.37
0.368
0.361
0.369
0.38
0.3755
0.3755
0.373
0.3715
0.3685
0.3565
0.357
0.3615
0.3535
0.347
0.3605
0.3585
0.347
0.3415
0.3445
0.358
0.3555
0.344
0.329
0.333
0.333
0.337
0.355
0.3535
0.3485
0.345
0.3435
0.345
0.341
0.345
0.348
0.3425
0.3455
0.3325
0.321
0.2975
0.3065
0.3335
0.3145
0.331
0.357
0.3495
0.3235
0.285
0.2625
0.2715
0.2955
0.308
0.2995
0.273
0.268
0.259
0.2235
0.2515
0.29
0.2855
0.274
0.26
0.2535
0.2545
0.2555
0.255
0.2545
0.2425
0.236
0.2395
0.2365
0.2235
0.239
0.26
0.2505
0.2405
0.2375
0.2355
0.2335
0.2335
0.2345
0.234
0.2315
0.2385
0.2465
0.2335
0.22
0.2295
0.2175
0.2
0.206
0.2045
0.205
0.2085
0.2165
0.2175
0.216
0.224
0.2225
0.211
0.212
0.217
0.212
0.2015
0.1945
0.2045
0.2115
0.213
0.2095
0.2
0.186
0.1865
0.167
0.1455
0.1645
0.176
0.2045
0.2135
0.189
0.1725
0.181
0.209
0.2585
0.285
0.244
0.2185
0.195
0.121
0.1475
0.2555
0.2665
0.2685
0.2505
0.217
0.243
0.2375
0.209
0.1915
0.1905
0.221
0.2315
0.2205
0.211
0.206
0.235
0.231
0.195
0.2015
0.209
0.2105
0.1965
0.182
0.203
0.221
0.21
0.2025
0.235
0.242
0.2235
0.216
0.1975
0.2045
0.218
0.211
0.208
0.2125
0.212
0.2025
0.189
0.181
0.182
0.2
0.225
0.215
0.19
0.2005
0.254
0.2665
0.224
0.213
0.2195
0.212
0.2275
0.227
0.224
0.2255
0.2225
0.262
0.2595
0.24
0.2225
0.2015
0.211
0.1985
0.1965
0.2355
0.2545
0.27
0.2865
0.2255
0.1785
0.1845
0.1825
0.182
0.188
0.188
0.211
0.25
0.2385
0.2275
0.211
0.2175
0.2615
0.271
0.2465
0.209
0.202
0.2265
0.2355
0.2045
0.214
0.2305
0.219
0.227
0.209
0.1995
0.218
0.222
0.214
0.192
0.1975
0.22
0.2215
0.237
0.238
0.2195
0.2325
0.257
0.27
0.272
0.2695
0.2535
0.2075
0.1875
0.199
0.1945
0.1975
0.219
0.239
0.239
0.227
0.2
0.165
0.194
0.227
0.2335
0.245
0.2405
0.2505
0.243
0.2305
0.2535
0.2795
0.2745
0.275
0.2925
0.278
0.289
0.316
0.324
0.297
0.268
0.28
0.2525
0.264
0.306
0.2855
0.285
0.302
0.3075
0.3095
0.28
0.2715
0.296
0.2925
0.305
0.3125
0.315
0.3245
0.3035
0.3115
0.2785
0.242
0.246
0.2465
0.2825
0.2985
0.2935
0.2575
0.2465
0.286
0.3155
0.3205
0.3215
0.3345
0.3345
0.332
0.3525
0.3735
0.353
0.3365
0.325
0.337
0.346
0.299
0.261
0.239
0.2505
0.26
0.215
0.2185
0.2415
0.222
0.2595
0.2485
0.1965
0.1835
0.1745
0.2195
0.2165
0.174
0.197
0.24
0.219
0.1975
0.214
0.2275
0.2295
0.2145
0.211
0.2145
0.2165
0.2085
0.2095
0.207
0.1885
0.1755
0.1785
0.1855
0.204
0.1895
0.1705
0.2425
0.2415
0.1885
0.186
0.198
0.209
0.1905
0.189
0.1865
0.1735
0.193
0.224
0.2315
0.2425
0.2405
0.2035
0.16
0.152
0.1855
0.2025
0.204
0.2
0.1855
0.175
0.159
0.1545
0.1855
0.195
0.1845
0.189
0.1985
0.2005
0.1715
0.138
0.1395
0.142
0.111
0.095
0.084
0.071
0.082
0.0695
0.0195
-0.006
0.0025
0.006
0.0065
0.011
0.0195
0.006
-0.031
-0.0325
-0.0445
-0.1165
-0.1245
-0.108
-0.122
-0.119
-0.1085
-0.098
-0.073
-0.0205
0.036
0.095
0.136
0.158
0.187
0.255
0.303
0.318
0.359
0.419
0.498
0.561
0.6415
0.7155
0.7405
0.763
0.8015
0.8305
0.8245
0.831
0.844
0.822
0.7915
0.808
0.8385
0.8365
0.797
0.752
0.717
0.6685
0.626
0.6085
0.6105
0.5945
0.5765
0.576
0.5795
0.568
0.5235
0.484
0.447
0.451
0.4645
0.3965
0.336
0.326
0.331
0.325
0.291
0.2575
0.1915
0.128
0.1335
0.147
0.168
0.1495
0.1195
0.132
0.0935
0.0395
0.0435
0.059
0.0525
0.0405
-0.0135
-0.06
-0.069
-0.091
-0.1085
-0.1275
-0.135
-0.132
-0.1225
-0.1265
-0.163
-0.1405
-0.1075
-0.1555
-0.1975
-0.2165
-0.2285
-0.2225
-0.2055
-0.196
-0.2055
-0.2105
-0.2235
-0.2385
-0.2845
-0.269
-0.2075
-0.2165
-0.219
-0.218
-0.211
-0.206
-0.219
-0.2065
-0.184
-0.181
-0.176
-0.1665
-0.1605
-0.1355
-0.1055
-0.0805
-0.0795
-0.0545
-0.0055
0.003
-0.0215
-0.0395
-0.01
-0.01
-0.0315
-0.0035
0.0055
0.008
0.072
0.1285
0.1175
0.0975
0.0795
0.0595
0.0665
0.0765
0.0825
0.111
0.124
0.125
0.1135
0.1335
0.2005
0.2075
0.2145
0.2105
0.1825
0.1665
0.147
0.154
0.1655
0.1695
0.1705
0.162
0.157
0.163
0.1735
0.1865
0.188
0.1815
0.1725
0.1915
0.208
0.203
0.21
0.183
0.158
0.1595
0.1535
0.1355
0.152
0.195
0.1945
0.2375
0.2615
0.1985
0.1795
0.208
0.26
0.281
0.273
0.272
0.272
0.2475
0.1975
0.19
0.1675
0.131
0.148
0.199
0.2255
0.2025
0.182
0.176
0.162
0.1525
0.1445
0.1385
0.1675
0.1935
0.191
0.19
0.1915
0.195
0.1985
0.1905
0.1765
0.1935
0.2135
0.2205
0.211
0.201
0.221
0.234
0.23
0.209
0.2045
0.227
0.227
0.215
0.228
0.2185
0.213
0.2145
0.1805
0.179
0.211
0.29
0.304
0.239
0.27
0.324
0.3205
0.2535
0.207
0.2305
0.2385
0.2335
0.2465
0.2515
0.2515
0.2645
0.2685
0.271
0.277
0.278
0.2685
0.2665
0.27
0.254
0.249
0.2445
0.2425
0.255
0.2475
0.257
0.285
0.288
0.2835
0.293
0.2945
0.2945
0.307
0.302
0.307
0.306
0.2895
0.2945
0.2995
0.306
0.3235
0.3265
0.3085
0.306
0.3215
0.3365
0.3865
0.424
0.408
0.3815
0.358
0.317
0.2525
0.284
0.391
0.4195
0.437
0.4355
0.402
0.4075
0.4005
0.3935
0.384
0.377
0.3605
0.3355
0.3535
0.3485
0.3105
0.314
0.3295
0.3365
0.3645
0.3705
0.377
0.408
0.398
0.3775
0.361
0.3495
0.359
0.356
0.361
0.3835
0.39
0.3815
0.378
0.3775
0.371
0.372
0.3775
0.384
0.394
0.395
0.393
0.3915
0.394
0.388
0.3765
0.3725
0.371
0.366
0.3625
0.372
0.379
0.381
0.3725
0.3675
0.367
0.368
0.369
0.3695
0.39
0.382
0.353
0.33
0.3145
0.3105
0.3065
0.3365
0.3645
0.3685
0.3855
0.412
0.427
0.414
0.3905
0.3515
0.307
0.294
0.3045
0.3195
0.327
0.3215
0.3415
0.373
0.3715
0.3515
0.3535
0.3605
0.3645
0.3385
0.303
0.316
0.323
0.3365
0.347
0.3555
0.34
0.2885
0.257
0.275
0.329
0.3155
0.299
0.292
0.265
0.335
0.389
0.366
0.3535
0.3115
0.291
0.328
0.3515
0.324
0.2985
0.284
0.2675
0.3075
0.308
0.281
0.289
0.282
0.2745
0.258
0.25
0.249
0.2425
0.245
0.234
0.22
0.215
0.225
0.2425
0.243
0.235
0.227
0.24
0.2375
0.2255
0.197
0.1585
0.1875
0.2045
0.1865
0.2035
0.2315
0.2235
0.1975
0.1845
0.1975
0.1905
0.1905
0.2405
0.2545
0.2455
0.233
0.222
0.2085
0.2155
0.2635
0.2645
0.24
0.255
0.2575
0.2365
0.216
0.204
0.1895
0.187
0.214
0.225
0.2185
0.214
0.229
0.228
0.1915
0.166
0.1775
0.2505
0.2835
0.2345
0.209
0.205
0.2265
0.2555
0.2435
0.2415
0.232
0.1925
0.1655
0.154
0.1985
0.2265
0.149
0.136
0.226
0.2445
0.227
0.2365
0.2225
0.225
0.248
0.242
0.234
0.232
0.223
0.2025
0.1945
0.1955
0.173
0.191
0.2405
0.2335
0.2355
0.2565
0.2135
0.175
0.168
0.1455
0.1375
0.127
0.1165
0.168
0.195
0.2135
0.248
0.234
0.196
0.1905
0.263
0.3105
0.283
0.2515
0.2325
0.2145
0.2245
0.256
0.2855
0.268
0.224
0.207
0.2065
0.221
0.242
0.251
0.2395
0.231
0.232
0.241
0.24
0.224
0.23
0.238
0.2415
0.252
0.2495
0.228
0.2065
0.2155
0.219
0.2145
0.229
0.2525
0.282
0.2905
0.248
0.2105
0.2015
0.168
0.161
0.178
0.1875
0.2035
0.2035
0.1955
0.1735
0.1625
0.1215
0.0755
0.106
0.135
0.2585
0.338
0.268
0.3255
0.376
0.3135
0.224
0.1905
0.265
0.278
0.2305
0.19
0.178
0.202
0.227
0.26
0.2595
0.2425
0.246
0.244
0.235
0.2335
0.211
0.204
0.2265
0.2225
0.2455
0.2455
0.219
0.222
0.214
0.222
0.238
0.2365
0.243
0.268
0.2815
0.2835
0.294
0.2945
0.2865
0.2715
0.263
0.2775
0.2775
0.25
0.237
0.2515
0.2565
0.2785
0.268
0.265
0.34
0.3945
0.414
0.406
0.334
0.2435
0.2515
0.2895
0.3145
0.3775
0.3805
0.3555
0.3455
0.2255
0.2
0.287
0.3
0.281
0.2585
0.2365
0.203
0.234
0.2855
0.259
0.2065
0.208
0.181
0.17
0.198
0.2175
0.3315
0.369
0.3125
0.3075
0.3525
0.405
0.3415
0.2945
0.341
0.3375
0.3375
0.312
0.248
0.219
0.241
0.304
0.312
0.2775
0.2735
0.265
0.235
0.213
0.2
0.1975
0.184
0.1885
0.2015
0.1925
0.198
0.2095
0.214
0.1935
0.1735
0.1795
0.1685
0.171
0.187
0.1765
0.189
0.216
0.224
0.218
0.1935
0.179
0.1825
0.195
0.1975
0.2
0.231
0.2205
0.213
0.2245
0.2055
0.182
0.1785
0.2145
0.1965
0.17
0.182
0.1845
0.187
0.209
0.205
0.18
0.1915
0.154
0.153
0.168
0.169
0.215
0.216
0.1825
0.152
0.189
0.22
0.19
0.1705
0.1735
0.178
0.1685
0.158
0.1705
0.1735
0.136
0.125
0.1495
0.1495
0.116
0.1035
0.034
-0.075
-0.035
0.0195
-0.001
-0.005
-0.0585
-0.115
-0.085
-0.061
-0.064
-0.076
-0.1025
-0.0965
-0.1045
-0.133
-0.136
-0.1265
-0.095
-0.038
-0.0015
0.026
0.079
0.13
0.168
0.2175
0.2755
0.3235
0.366
0.4235
0.4605
0.49
0.5265
0.557
0.63
0.676
0.708
0.7735
0.8225
0.8375
0.8265
0.81
0.825
0.8635
0.9145
0.911
0.832
0.786
0.7375
0.663
0.639
0.665
0.6705
0.6835
0.6655
0.5995
0.5775
0.577
0.553
0.495
0.444
0.4225
0.398
0.3885
0.3785
0.316
0.2625
0.2655
0.259
0.2465
0.2675
0.229
0.115
0.0685
0.081
0.0675
0.0725
0.085
0.07
0.0535
0.0475
0.044
0.0005
-0.0375
-0.034
-0.042
-0.0635
-0.09
-0.105
-0.116
-0.141
-0.172
-0.194
-0.1925
-0.1745
-0.1605
-0.1715
-0.2
-0.228
-0.231
-0.2155
-0.2025
-0.196
-0.208
-0.224
-0.229
-0.218
-0.187
-0.1675
-0.1535
-0.099
-0.095
-0.1675
-0.223
-0.3355
-0.355
-0.229
-0.2145
-0.1805
-0.1825
-0.2025
-0.1625
-0.1725
-0.1635
-0.209
-0.1905
-0.171
-0.1885
-0.151
-0.1235
-0.079
-0.076
-0.058
-0.024
-0.008
0.01
0.038
0.0535
0.014
0.02
0.0645
0.0525
0.0415
0.074
0.079
0.075
0.076
0.0585
0.0665
0.078
0.092
0.095
0.092
0.12
0.141
0.1455
0.1425
0.128
0.122
0.1255
0.122
0.1355
0.156
0.158
0.154
0.155
0.164
0.1475
0.111
0.0755
0.085
0.124
0.1695
0.247
0.2585
0.227
0.211
0.191
0.183
0.215
0.222
0.186
0.2
0.2095
0.2125
0.2525
0.253
0.213
0.162
0.127
0.148
0.169
0.171
0.1765
0.17
0.166
0.1705
0.1645
0.154
0.1335
0.1275
0.175
0.153
0.1345
0.187
0.165
0.1595
0.17
0.154
0.176
0.203
0.174
0.14
0.145
0.149
0.1855
0.2295
0.2115
0.1855
0.2025
0.206
0.1795
0.159
0.204
0.245
0.2115
0.193
0.2195
0.237
0.2135
0.1885
0.1955
0.2095
0.214
0.233
0.2195
0.193
0.1985
0.248
0.3215
0.3165
0.308
0.2645
0.191
0.212
0.242
0.207
0.2
0.2695
0.3035
0.295
0.2605
0.2335
0.257
0.23
0.166
0.1695
0.1935
0.21
0.2205
0.245
0.274
0.2505
0.235
0.238
0.246
0.2505
0.273
0.3045
0.279
0.2625
0.2655
0.272
0.277
0.256
0.2405
0.289
0.328
0.285
0.268
0.278
0.306
0.3375
0.3
0.2765
0.271
0.271
0.292
0.334
0.388
0.421
0.429
0.3985
0.402
0.353
0.2935
0.317
0.3235
0.3355
0.348
0.36
0.371
0.363
0.285
0.2825
0.4085
0.3825
0.303
0.3075
0.307
0.313
0.34
0.3575
0.35
0.3375
0.3445
0.329
0.3055
0.3535
0.377
0.364
0.3455
0.322
0.2945
0.3395
0.4115
0.361
0.322
0.334
0.391
0.411
0.371
0.38
0.3625
0.3445
0.3865
0.3855
0.3305
0.281
0.2825
0.327
0.354
0.376
0.3815
0.3715
0.326
0.301
0.363
0.369
0.3065
0.3165
0.3555
0.364
0.3595
0.3275
0.313
0.3275
0.3385
0.3465
0.3385
0.354
0.355
0.3185
0.34
0.3665
0.365
0.352
0.314
0.3125
0.3295
0.3315
0.3555
0.364
0.319
0.3025
0.3135
0.3415
0.3585
0.283
0.2305
0.2455
0.2885
0.363
0.4015
0.408
0.3985
0.357
0.3045
0.2655
0.2335
0.218
0.2375
0.269
0.274
0.246
0.241
0.254
0.2765
0.2635
0.2325
0.2225
0.2215
0.2435
0.228
0.219
0.2455
0.2645
0.2655
0.2435
0.244
0.2455
0.2305
0.2235
0.216
0.2165
0.2215
0.224
0.227
0.2165
0.2035
0.211
0.2135
0.204
0.2055
0.2125
0.2015
0.1925
0.19
0.173
0.157
0.173
0.199
0.194
0.1725
0.181
0.2205
0.223
0.2205
0.2325
0.236
0.2625
0.242
0.208
0.2575
0.2625
0.2425
0.297
0.2815
0.2365
0.208
0.132
0.104
0.1225
0.1075
0.087
0.117
0.153
0.1435
0.13
0.137
0.1695
0.191
0.178
0.168
0.159
0.1675
0.19
0.201
0.202
0.2055
0.2075
0.1965
0.1785
0.1655
0.166
0.1805
0.185
0.174
0.168
0.1775
0.1875
0.1955
0.21
0.1945
0.1675
0.171
0.18
0.17
0.171
0.176
0.187
0.203
0.196
0.2095
0.212
0.2015
0.187
0.1875
0.221
0.2245
0.2135
0.2185
0.2585
0.235
0.1515
0.139
0.17
0.1725
0.1705
0.188
0.1945
0.1915
0.186
0.1805
0.1905
0.2195
0.241
0.244
0.2315
0.222
0.2275
0.226
0.191
0.2175
0.261
0.219
0.199
0.2645
0.302
0.27
0.249
0.181
0.114
0.114
0.125
0.1215
0.1225
0.149
0.178
0.183
0.1535
0.165
0.175
0.163
0.157
0.1345
0.1525
0.1775
0.1925
0.198
0.1925
0.184
0.1715
0.1715
0.18
0.1955
0.186
0.1995
0.2095
0.1855
0.168
0.173
0.206
0.1955
0.161
0.173
0.171
0.14
0.156
0.187
0.184
0.1975
0.2265
0.2055
0.1725
0.161
0.162
0.201
0.2205
0.22
0.2325
0.23
0.241
0.238
0.2235
0.191
0.166
0.1705
0.1595
0.1695
0.1815
0.1815
0.2155
0.227
0.222
0.233
0.2215
0.207
0.1955
0.207
0.2335
0.234
0.2225
0.2055
0.2065
0.2095
0.187
0.1895
0.2365
0.277
0.2745
0.2805
0.3075
0.2935
0.2775
0.2545
0.212
0.1995
0.207
0.224
0.2485
0.279
0.2815
0.2685
0.2935
0.2995
0.249
0.2515
0.3035
0.307
0.2795
0.269
0.248
0.2285
0.2225
0.221
0.2515
0.2545
0.2415
0.24
0.265
0.289
0.279
0.2575
0.227
0.2315
0.2575
0.2845
0.29
0.2705
0.239
0.253
0.2685
0.2615
0.287
0.285
0.2855
0.2885
0.2835
0.2895
0.2785
0.251
0.2525
0.2375
0.217
0.2195
0.1905
0.1625
0.1535
0.169
0.205
0.2365
0.247
0.2365
0.2405
0.1875
0.118
0.1765
0.2215
0.206
0.2175
0.2275
0.235
0.214
0.2075
0.2185
0.1865
0.161
0.161
0.174
0.173
0.1655
0.1565
0.162
0.1505
0.143
0.1745
0.1855
0.1915
0.181
0.17
0.1755
0.177
0.1845
0.1795
0.159
0.1705
0.179
0.1615
0.1585
0.1785
0.1685
0.1475
0.13
0.092
0.1515
0.1875
0.193
0.219
0.1815
0.1565
0.142
0.135
0.1235
0.1345
0.1505
0.1275
0.11
0.115
0.1335
0.1565
0.1735
0.171
0.168
0.1415
0.116
0.111
0.0965
0.129
0.1155
0.05
0.056
0.073
0.0855
0.0685
0.035
0.004
-0.014
-0.0105
-0.0405
-0.0965
-0.1175
-0.1265
-0.157
-0.157
-0.1825
-0.184
-0.169
-0.1895
-0.155
-0.1365
-0.1395
-0.0855
0.008
0.128
0.2095
0.2005
0.175
0.208
0.2565
0.309
0.384
0.429
0.4855
0.543
0.584
0.6785
0.7455
0.753
0.7675
0.775
0.7645
0.762
0.775
0.79
0.822
0.8485
0.8275
0.797
0.768
0.7315
0.6775
0.6315
0.6155
0.601
0.6075
0.646
0.61
0.5605
0.57
0.531
0.4735
0.4375
0.4455
0.4535
0.453
0.459
0.418
0.3835
0.3595
0.31
0.231
0.1975
0.177
0.1255
0.125
0.1165
0.115
0.118
0.085
0.065
0.0625
0.0455
0.0305
0.043
0.0305
0.011
0.0
-0.019
-0.0355
-0.0705
-0.106
-0.1135
-0.11
-0.122
-0.135
-0.1465
-0.167
-0.1785
-0.2035
-0.229
-0.2335
-0.24
-0.2345
-0.2215
-0.215
-0.2055
-0.1955
-0.1845
-0.16
-0.1145
-0.077
-0.084
-0.0865
-0.143
-0.177
-0.1475
-0.136
-0.1385
-0.2505
-0.3065
-0.2845
-0.2285
-0.2155
-0.279
-0.2515
-0.21
-0.1875
-0.1735
-0.163
-0.152
-0.1535
-0.1415
-0.1205
-0.063
-0.028
-0.0215
-0.005
-0.0025
0.0075
0.0085
0.006
0.02
0.042
0.0425
0.047
0.072
0.076
0.077
0.094
0.102
0.1045
0.109
0.0925
0.095
0.108
0.1215
0.1305
0.118
0.1265
0.143
0.1555
0.1475
0.1345
0.1245
0.1165
0.1355
0.151
0.159
0.167
0.158
0.147
0.132
0.126
0.165
0.2145
0.213
0.1615
0.154
0.185
0.185
0.1795
0.1755
0.157
0.1635
0.1745
0.1745
0.193
0.1965
0.186
0.172
0.1855
0.1955
0.181
0.189
0.209
0.225
0.2145
0.218
0.242
0.2255
0.1795
0.1535
0.161
0.1635
0.166
0.171
0.1735
0.1955
0.235
0.238
0.216
0.2695
0.2755
0.2
0.1745
0.176
0.1915
0.167
0.166
0.185
0.154
0.155
0.2065
0.223
0.175
0.2105
0.247
0.229
0.232
0.229
0.2265
0.1975
0.203
0.217
0.2125
0.229
0.23
0.227
0.2275
0.2365
0.2295
0.2175
0.2045
0.217
0.2445
0.2615
0.259
0.215
0.191
0.183
0.2135
0.2545
0.2525
0.236
0.234
0.245
0.2435
0.2285
0.2145
0.2415
0.2545
0.237
0.2305
0.231
0.2735
0.306
0.308
0.3075
0.303
0.314
0.299
0.274
0.283
0.292
0.3005
0.2975
0.3145
0.3435
0.3465
0.364
0.3705
0.3535
0.3415
0.3385
0.342
0.3485
0.369
0.3635
0.349
0.346
0.31
0.266
0.238
0.233
0.233
0.2255
0.232
0.256
0.3065
0.3445
0.308
0.285
0.3285
0.347
0.345
0.3605
0.3685
0.3845
0.415
0.4245
0.3755
0.319
0.3475
0.378
0.369
0.369
0.398
0.43
0.4105
0.365
0.3415
0.358
0.3315
0.312
0.3315
0.335
0.3515
0.356
0.352
0.3625
0.3755
0.345
0.3325
0.3525
0.3685
0.365
0.345
0.3315
0.336
0.3505
0.345
0.36
0.379
0.3805
0.3725
0.371
0.361
0.349
0.361
0.354
0.3405
0.3435
0.347
0.3515
0.351
0.3485
0.3545
0.3615
0.3365
0.2965
0.307
0.3345
0.336
0.326
0.3495
0.3735
0.364
0.3445
0.341
0.351
0.353
0.36
0.3175
0.2945
0.3035
0.315
0.3535
0.3545
0.33
0.2925
0.3105
0.3205
0.297
0.321
0.3435
0.3165
0.265
0.2535
0.2755
0.28
0.276
0.305
0.29
0.26
0.2705
0.2875
0.294
0.313
0.331
0.2795
0.238
0.203
0.2255
0.2635
0.243
0.268
0.279
0.2935
0.282
0.2365
0.2245
0.204
0.2275
0.283
0.2955
0.291
0.28
0.2245
0.195
0.235
0.2305
0.197
0.1945
0.199
0.195
0.1965
0.2235
0.2375
0.222
0.21
0.2245
0.2425
0.255
0.2425
0.203
0.1975
0.206
0.2145
0.219
0.205
0.1945
0.1695
0.181
0.198
0.212
0.287
0.293
0.225
0.189
0.168
0.179
0.201
0.204
0.2415
0.261
0.2645
0.253
0.218
0.187
0.1695
0.199
0.2245
0.2145
0.1935
0.1745
0.1615
0.1805
0.1965
0.1945
0.202
0.2065
0.1985
0.197
0.2175
0.201
0.1775
0.1895
0.188
0.185
0.1915
0.193
0.1995
0.21
0.243
0.251
0.2065
0.1835
0.1595
0.1575
0.2115
0.232
0.2335
0.245
0.246
0.264
0.237
0.223
0.2385
0.2205
0.2705
0.2765
0.22
0.217
0.252
0.303
0.257
0.1995
0.256
0.2365
0.1675
0.1895
0.205
0.1935
0.185
0.1815
0.202
0.196
0.1795
0.1875
0.1785
0.174
0.175
0.1585
0.151
0.15
0.132
0.138
0.1455
0.1805
0.243
0.257
0.235
0.239
0.24
0.161
0.1425
0.1965
0.263
0.2725
0.1895
0.2165
0.2725
0.263
0.2635
0.248
0.2355
0.2335
0.2175
0.2105
0.207
0.1995
0.2075
0.2205
0.234
0.2365
0.223
0.1955
0.183
0.2035
0.2025
0.1815
0.1865
0.2015
0.215
0.1985
0.2035
0.2405
0.232
0.2185
0.21
0.214
0.2315
0.2345
0.197
0.1815
0.215
0.228
0.2405
0.2445
0.2365
0.2005
0.1845
0.199
0.197
0.225
0.2495
0.228
0.1935
0.194
0.21
0.213
0.2285
0.209
0.18
0.1965
0.2095
0.244
0.2545
0.201
0.1845
0.2105
0.1945
0.156
0.141
0.1485
0.177
0.209
0.2575
0.2745
0.2555
0.2505
0.26
0.2935
0.292
0.243
0.2015
0.194
0.19
0.231
0.291
0.2665
0.243
0.246
0.2635
0.2845
0.273
0.2935
0.32
0.288
0.2895
0.3195
0.306
0.3
0.301
0.3075
0.298
0.2805
0.2805
0.2785
0.2975
0.3085
0.291
0.2485
0.2255
0.2155
0.223
0.263
0.2645
0.264
0.2705
0.2705
0.267
0.2785
0.3225
0.3195
0.2895
0.281
0.2525
0.268
0.31
0.2915
0.27
0.2735
0.2775
0.267
0.2615
0.2635
0.236
0.223
0.243
0.24
0.238
0.217
0.2075
0.2325
0.219
0.208
0.207
0.2085
0.224
0.2255
0.211
0.177
0.163
0.1615
0.142
0.135
0.1205
0.1285
0.1455
0.1565
0.1695
0.149
0.1615
0.1895
0.1585
0.154
0.214
0.2345
0.224
0.235
0.2215
0.1635
0.144
0.1635
0.1645
0.1935
0.2065
0.1755
0.1855
0.222
0.1955
0.151
0.1515
0.1505
0.1535
0.166
0.155
0.153
0.167
0.157
0.1575
0.186
0.209
0.192
0.1575
0.157
0.1635
0.17
0.17
0.174
0.166
0.179
0.2055
0.198
0.1855
0.1855
0.1685
0.13
0.1135
0.0865
0.087
0.0805
0.034
-0.031
-0.0595
-0.0275
-0.037
-0.049
-0.0605
-0.0655
-0.0665
-0.0795
-0.094
-0.101
-0.117
-0.151
-0.135
-0.1015
-0.0895
-0.0665
-0.03
0.0005
0.047
0.106
0.1425
0.1655
0.2015
0.2405
0.2875
0.336
0.377
0.432
0.4865
0.5445
0.6015
0.6355
0.6745
0.697
0.718
0.7505
0.772
0.796
0.824
0.876
0.8585
0.855
0.9065
0.913
0.859
0.7915
0.703
0.61
0.618
0.6015
0.579
0.563
0.5445
0.594
0.5805
0.54
0.5485
0.5345
0.5055
0.455
0.408
0.393
0.392
0.3785
0.3345
0.309
0.314
0.2685
0.2205
0.197
0.175
0.175
0.1555
0.128
0.0975
0.0655
0.055
0.078
0.0965
0.0745
0.0325
0.01
0.0005
-0.0205
-0.023
0.015
0.0365
-0.025
-0.0915
-0.104
-0.051
-0.0185
-0.0775
-0.1535
-0.1755
-0.172
-0.189
-0.1775
-0.173
-0.162
-0.141
-0.165
-0.201
-0.213
-0.1835
-0.1805
-0.1845
-0.1765
-0.2245
-0.233
-0.209
-0.2145
-0.228
-0.224
-0.1945
-0.21
-0.194
-0.1685
-0.178
-0.1875
-0.2105
-0.217
-0.2015
-0.1085
-0.0645
-0.12
-0.143
-0.1105
-0.0375
0.0015
0.025
0.041
0.095
0.0725
-0.0565
-0.004
0.086
0.0725
0.029
0.002
0.016
0.015
0.0445
0.078
0.1275
0.1555
0.142
0.145
0.136
0.14
0.128
0.112
0.1365
0.132
0.12
0.1625
0.187
0.1905
0.1765
0.1455
0.1395
0.1545
0.1715
0.1555
0.1245
0.137
0.1495
0.1735
0.213
0.2465
0.2845
0.2545
0.222
0.163
0.1065
0.153
0.194
0.199
0.1815
0.18
0.211
0.238
0.2305
0.191
0.1915
0.2055
0.2585
0.294
0.2345
0.156
0.123
0.171
0.2265
0.2375
0.1695
0.117
0.1635
0.2025
0.2125
0.2225
0.2195
0.2325
0.233
0.2135
0.184
0.157
0.168
0.179
0.184
0.162
0.136
0.1635
0.2
0.2185
0.209
0.197
0.2395
0.2385
0.2025
0.159
0.091
0.112
0.1205
0.0895
0.174
0.2415
0.218
0.2385
0.244
0.22
0.1685
0.147
0.232
0.266
0.275
0.2875
0.294
0.286
0.2485
0.259
0.229
0.224
0.258
0.2655
0.277
0.26
0.2535
0.2345
0.2445
0.255
0.234
0.223
0.2
0.2065
0.221
0.221
0.242
0.261
0.267
0.298
0.3215
0.3375
0.316
0.276
0.273
0.3255
0.372
0.327
0.3105
0.2635
0.227
0.266
0.26
0.229
0.2275
0.2855
0.3165
0.329
0.347
0.3395
0.291
0.246
0.257
0.2275
0.213
0.2595
0.292
0.306
0.314
0.345
0.33
0.2825
0.291
0.315
0.318
0.339
0.36
0.3585
0.3625
0.3945
0.4095
0.3865
0.406
0.4
0.338
0.323
0.3665
0.3815
0.3605
0.35
0.3495
0.353
0.354
0.337
0.3105
0.2975
0.3045
0.341
0.381
0.3845
0.375
0.359
0.3325
0.34
0.3555
0.403
0.3825
0.32
0.3355
0.359
0.3885
0.379
0.3605
0.3455
0.328
0.3575
0.359
0.3365
0.337
0.3395
0.3595
0.3675
0.3815
0.4075
0.393
0.356
0.328
0.2995
0.251
0.2805
0.326
0.3245
0.3255
0.312
0.3285
0.3215
0.327
0.357
0.318
0.294
0.307
0.31
0.3055
0.304
0.318
0.294
0.25
0.251
0.271
0.2715
0.2445
0.279
0.3235
0.3045
0.318
0.321
0.307
0.2955
0.2665
0.265
0.263
0.2685
0.2945
0.306
0.327
0.315
0.283
0.283
0.2815
0.2675
0.285
0.312
0.3205
0.2975
0.2585
0.2405
0.1965
0.1825
0.228
0.256
0.2425
0.2165
0.21
0.256
0.29
0.2695
0.2585
0.246
0.231
0.2185
0.194
0.1805
0.1915
0.1895
0.1755
0.1835
0.197
0.227
0.223
0.1595
0.1515
0.175
0.182
0.152
0.147
0.194
0.238
0.294
0.2825
0.2635
0.2245
0.17
0.216
0.2335
0.204
0.203
0.209
0.2145
0.2065
0.182
0.163
0.148
0.1335
0.1375
0.1415
0.1635
0.1905
0.188
0.189
0.2
0.207
0.1955
0.1825
0.175
0.179
0.1835
0.1635
0.1635
0.188
0.192
0.2075
0.2055
0.147
0.126
0.1325
0.121
0.1155
0.1325
0.1585
0.197
0.2245
0.198
0.18
0.18
0.1865
0.218
0.2295
0.2085
0.2215
0.2345
0.214
0.231
0.2325
0.214
0.214
0.2095
0.2095
0.204
0.205
0.204
0.2075
0.221
0.1895
0.169
0.197
0.2055
0.2065
0.212
0.1985
0.1815
0.178
0.198
0.209
0.196
0.207
0.206
0.1955
0.2005
0.2105
0.2155
0.204
0.204
0.2095
0.208
0.1965
0.1845
0.169
0.166
0.1985
0.1765
0.137
0.152
0.191
0.177
0.125
0.2125
0.293
0.2195
0.118
0.1025
0.1785
0.1905
0.1805
0.2005
0.2035
0.2355
0.2585
0.2615
0.2445
0.214
0.22
0.215
0.2045
0.19
0.1745
0.186
0.178
0.18
0.1945
0.1955
0.192
0.1855
0.1795
0.171
0.185
0.195
0.1995
0.196
0.181
0.189
0.1785
0.181
0.198
0.2015
0.214
0.253
0.2605
0.1885
0.1695
0.227
0.256
0.247
0.236
0.2105
0.2035
0.231
0.241
0.233
0.2425
0.2445
0.213
0.1825
0.1395
0.116
0.1365
0.1545
0.1795
0.2075
0.2255
0.235
0.2275
0.2365
0.2465
0.238
0.25
0.2465
0.219
0.1915
0.1875
0.2015
0.182
0.1715
0.1945
0.2075
0.2005
0.2035
0.213
0.199
0.1965
0.21
0.2105
0.21
0.196
0.1865
0.1955
0.2295
0.2505
0.258
0.2785
0.2625
0.259
0.2365
0.209
0.219
0.211
0.2095
0.2105
0.2405
0.284
0.321
0.3835
0.3885
0.3255
0.271
0.2605
0.285
0.2915
0.2895
0.2805
0.238
0.204
0.187
0.2165
0.278
0.2655
0.2435
0.2525
0.246
0.2465
0.2535
0.2545
0.247
0.236
0.245
0.244
0.236
0.262
0.2705
0.268
0.312
0.3035
0.2245
0.197
0.2005
0.1975
0.1855
0.174
0.181
0.2095
0.232
0.2165
0.2055
0.198
0.198
0.212
0.1935
0.164
0.1535
0.158
0.1595
0.1255
0.1015
0.1565
0.1975
0.17
0.1515
0.1945
0.2195
0.1895
0.2155
0.242
0.2295
0.213
0.168
0.131
0.115
0.118
0.163
0.1695
0.1845
0.2145
0.171
0.1085
0.0865
0.1105
0.1345
0.15
0.164
0.185
0.1695
0.145
0.1625
0.164
0.158
0.148
0.139
0.158
0.184
0.165
0.159
0.1775
0.1525
0.131
0.151
0.156
0.1425
0.1805
0.1865
0.1635
0.1755
0.1815
0.1855
0.178
0.134
0.08
0.077
0.0775
0.065
0.0865
0.077
0.052
0.0315
0.0095
-0.0095
-0.034
-0.0425
-0.0735
-0.112
-0.1085
-0.0835
-0.0985
-0.123
-0.127
-0.133
-0.1395
-0.118
-0.0845
-0.0705
-0.032
-0.026
-0.0045
0.0775
0.1175
0.171
0.2265
0.225
0.269
0.3185
0.3515
0.421
0.4675
0.526
0.597
0.6475
0.693
0.736
0.799
0.8225
0.8175
0.842
0.8545
0.8525
0.8335
0.8395
0.8175
0.768
0.773
0.759
0.7135
0.687
0.6765
0.643
0.6225
0.6175
0.602
0.581
0.553
0.4975
0.469
0.4985
0.5075
0.488
0.4355
0.3635
0.303
0.2625
0.237
0.2295
0.231
0.224
0.222
0.1865
0.133
0.1245
0.13
0.135
0.1165
0.0765
0.059
0.0515
0.043
0.029
0.004
-0.021
-0.012
-0.001
-0.014
-0.042
-0.0655
-0.065
-0.063
-0.073
-0.119
-0.1495
-0.1495
-0.1755
-0.192
-0.186
-0.1965
-0.1995
-0.187
-0.1825
-0.1975
-0.2345
-0.2295
-0.2
-0.2055
-0.216
-0.2185
-0.2365
-0.2685
-0.287
-0.295
-0.3305
-0.3685
-0.305
-0.2135
-0.205
-0.199
-0.1985
-0.2395
-0.2355
-0.2
-0.1695
-0.152
-0.1555
-0.1465
-0.1255
-0.1025
-0.0905
-0.066
-0.0545
-0.037
0.0005
0.0115
0.0155
0.0115
0.014
0.026
0.0275
0.03
0.047
0.0565
0.0565
0.057
0.065
0.0795
0.092
0.098
0.096
0.0995
0.106
0.1075
0.1165
0.1205
0.117
0.125
0.1325
0.142
0.1505
0.1475
0.1435
0.154
0.162
0.1385
0.121
0.132
0.1325
0.1095
0.104
0.106
0.107
0.08
0.0715
0.139
0.1785
0.2565
0.2975
0.2265
0.1785
0.141
0.1385
0.151
0.1285
0.1345
0.159
0.1575
0.1585
0.16
0.1705
0.1875
0.193
0.1805
0.1385
0.1375
0.1565
0.153
0.17
0.169
0.166
0.165
0.1615
0.1645
0.1695
0.1825
0.18
0.16
0.144
0.159
0.16
0.155
0.1685
0.1825
0.177
0.1485
0.1525
0.161
0.154
0.153
0.168
0.2065
0.2335
0.2425
0.2385
0.22
0.226
0.236
0.23
0.2015
0.169
0.1735
0.1845
0.187
0.1795
0.168
0.1705
0.173
0.1595
0.1645
0.168
0.1425
0.126
0.123
0.1475
0.178
0.1995
0.23
0.271
0.292
0.224
0.169
0.2525
0.293
0.229
0.2205
0.269
0.2645
0.2485
0.2985
0.309
0.2825
0.243
0.241
0.262
0.248
0.267
0.2725
0.257
0.26
0.258
0.259
0.276
0.271
0.255
0.254
0.261
0.2625
0.2845
0.3285
0.342
0.3385
0.333
0.3275
0.321
0.313
0.318
0.325
0.311
0.3285
0.3665
0.3515
0.341
0.347
0.311
0.3155
0.335
0.2975
0.279
0.296
0.3135
0.294
0.2865
0.331
0.3425
0.3185
0.3105
0.308
0.3155
0.346
0.3925
0.4215
0.4405
0.4375
0.3935
0.356
0.319
0.315
0.356
0.37
0.3595
0.352
0.3545
0.385
0.4085
0.396
0.3815
0.3635
0.37
0.391
0.3695
0.336
0.341
0.363
0.356
0.347
0.3555
0.3745
0.3695
0.353
0.328
0.307
0.326
0.3305
0.348
0.3775
0.398
0.3955
0.3665
0.353
0.3445
0.336
0.3045
0.3015
0.333
0.3245
0.339
0.4245
0.419
0.344
0.3545
0.3615
0.3605
0.3575
0.3395
0.3435
0.321
0.316
0.3155
0.3115
0.33
0.335
0.334
0.314
0.3075
0.319
0.306
0.273
0.2685
0.285
0.2855
0.3055
0.341
0.345
0.301
0.2785
0.2995
0.3115
0.3
0.285
0.283
0.293
0.287
0.2565
0.272
0.2925
0.3135
0.3515
0.338
0.317
0.2945
0.27
0.2665
0.2555
0.2395
0.2365
0.2475
0.2435
0.223
0.2175
0.2335
0.2615
0.2635
0.2425
0.2415
0.247
0.2495
0.255
0.265
0.2705
0.2585
0.2435
0.2425
0.2195
0.187
0.174
0.14
0.1415
0.1715
0.195
0.193
0.175
0.18
0.1925
0.2055
0.1855
0.187
0.1925
0.1685
0.171
0.2065
0.2365
0.228
0.2155
0.216
0.22
0.213
0.2105
0.1965
0.1775
0.199
0.228
0.2315
0.2095
0.196
0.1995
0.208
0.219
0.229
0.2345
0.209
0.184
0.185
0.1595
0.145
0.18
0.191
0.1865
0.178
0.165
0.1725
0.1375
0.158
0.2155
0.1625
0.1175
0.1285
0.155
0.203
0.2265
0.207
0.1885
0.1955
0.2125
0.1935
0.173
0.16
0.1375
0.1565
0.1935
0.2095
0.2145
0.2115
0.177
0.1715
0.2145
0.1995
0.195
0.2185
0.196
0.184
0.1815
0.17
0.1685
0.189
0.1735
0.1735
0.2115
0.202
0.1985
0.1955
0.184
0.185
0.185
0.185
0.1865
0.1915
0.1815
0.1805
0.181
0.1765
0.1765
0.1805
0.195
0.2055
0.229
0.241
0.228
0.1755
0.14
0.1795
0.237
0.274
0.269
0.226
0.183
0.1795
0.1885
0.1505
0.143
0.1815
0.2035
0.2085
0.1955
0.215
0.212
0.174
0.1675
0.1745
0.179
0.188
0.2015
0.2065
0.2025
0.1855
0.1685
0.167
0.185
0.1975
0.185
0.16
0.152
0.1845
0.205
0.2085
0.207
0.2035
0.208
0.1875
0.1925
0.2085
0.211
0.2375
0.249
0.227
0.2165
0.2215
0.2085
0.209
0.2035
0.185
0.1895
0.162
0.121
0.157
0.2355
0.236
0.205
0.233
0.237
0.195
0.183
0.204
0.2315
0.216
0.1825
0.188
0.1795
0.184
0.2
0.1865
0.187
0.1745
0.178
0.219
0.217
0.183
0.1875
0.2105
0.211
0.219
0.2255
0.223
0.218
0.2365
0.2705
0.2575
0.2475
0.2595
0.2735
0.2695
0.2485
0.259
0.275
0.2785
0.29
0.3145
0.326
0.3135
0.2925
0.286
0.2755
0.2825
0.3035
0.296
0.288
0.247
0.2245
0.237
0.249
0.2825
0.2555
0.181
0.1555
0.195
0.266
0.326
0.3695
0.3515
0.2915
0.276
0.21
0.1725
0.287
0.3475
0.3065
0.274
0.2625
0.277
0.288
0.266
0.241
0.238
0.2455
0.237
0.2295
0.245
0.243
0.2365
0.247
0.242
0.2435
0.2525
0.2395
0.1995
0.183
0.198
0.208
0.212
0.191
0.1865
0.1855
0.1715
0.1565
0.1365
0.1385
0.1585
0.1785
0.1655
0.1855
0.201
0.204
0.2625
0.2715
0.179
0.094
0.1405
0.2065
0.231
0.217
0.175
0.1705
0.179
0.194
0.191
0.173
0.1545
0.146
0.1555
0.1595
0.154
0.1515
0.1645
0.1785
0.1765
0.1745
0.175
0.164
0.156
0.1505
0.1535
0.1635
0.1745
0.1995
0.2025
0.1945
0.207
0.2215
0.2195
0.1915
0.19
0.2105
0.197
0.1645
0.1585
0.169
0.1355
0.0915
0.0305
0.006
0.007
-0.002
0.033
0.0455
0.0325
-0.025
-0.1015
-0.162
-0.1265
-0.0215
-0.027
-0.0715
-0.097
-0.08
-0.0505
-0.077
-0.0845
-0.0825
-0.0795
-0.063
-0.0485
-0.007
0.035
0.0925
0.1755
0.193
0.1655
0.177
0.2395
0.3435
0.4375
0.458
0.452
0.489
0.572
0.658
0.7115
0.7785
0.8095
0.816
0.8615
0.877
0.873
0.868
0.8615
0.857
0.863
0.88
0.8605
0.8
0.766
0.737
0.6605
0.6255
0.6205
0.593
0.6
0.619
0.6165
0.5585
0.4645
0.4185
0.4155
0.429
0.4245
0.411
0.3825
0.329
0.278
0.244
0.229
0.1835
0.1395
0.1325
0.129
0.1255
0.1375
0.1535
0.1245
0.075
0.0155
-0.018
0.04
0.0515
0.0115
-0.0035
-0.0205
-0.0205
-0.0275
-0.0675
-0.086
-0.0875
-0.1005
-0.133
-0.1745
-0.21
-0.2735
-0.236
-0.1625
-0.1755
-0.1555
-0.156
-0.1865
-0.1715
-0.1655
-0.2015
-0.2315
-0.2445
-0.2525
-0.2295
-0.2335
-0.2285
-0.189
-0.1935
-0.184
-0.2
-0.234
-0.2225
-0.219
-0.208
-0.1835
-0.189
-0.1795
-0.164
-0.186
-0.174
-0.1605
-0.1555
-0.1265
-0.117
-0.092
-0.0465
-0.0385
-0.038
-0.034
-0.0325
-0.006
0.05
0.1005
0.0805
0.074
0.077
0.031
0.027
0.061
0.084
0.0835
0.063
0.053
0.0945
0.1415
0.124
0.093
0.108
0.143
0.144
0.1545
0.196
0.2055
0.1785
0.168
0.162
0.158
0.166
0.136
0.1195
0.1145
0.11
0.116
0.1145
0.1215
0.1255
0.1115
0.1015
0.116
0.1425
0.1645
0.1535
0.154
0.1575
0.137
0.108
0.085
0.0945
0.1305
0.1665
0.212
0.273
0.274
0.2445
0.185
0.161
0.191
0.196
0.195
0.1665
0.1885
0.219
0.2035
0.2
0.176
0.1675
0.1965
0.185
0.1685
0.1795
0.173
0.1785
0.1845
0.1855
0.186
0.176
0.1715
0.1695
0.18
0.1675
0.15
0.157
0.1465
0.1465
0.1525
0.148
0.1525
0.153
0.1505
0.1445
0.152
0.1725
0.18
0.1845
0.2015
0.2125
0.2075
0.193
0.1785
0.168
0.179
0.1925
0.185
0.1925
0.198
0.2325
0.284
0.28
0.249
0.2565
0.2575
0.206
0.1655
0.1705
0.187
0.205
0.216
0.215
0.194
0.202
0.2865
0.327
0.316
0.2735
0.243
0.263
0.2625
0.2555
0.263
0.289
0.297
0.2835
0.299
0.315
0.3125
0.3005
0.283
0.2815
0.2815
0.293
0.309
0.255
0.2195
0.2555
0.2665
0.2815
0.3055
0.2825
0.267
0.31
0.33
0.292
0.286
0.301
0.2685
0.285
0.35
0.374
0.3745
0.372
0.3625
0.3015
0.2795
0.3385
0.3345
0.3225
0.3775
0.4125
0.389
0.366
0.366
0.3625
0.376
0.381
0.373
0.3555
0.344
0.369
0.373
0.3325
0.297
0.294
0.3195
0.3825
0.408
0.4135
0.417
0.389
0.3905
0.3985
0.3915
0.3735
0.3515
0.362
0.416
0.4265
0.384
0.38
0.391
0.385
0.369
0.3555
0.361
0.3675
0.359
0.3435
0.3315
0.339
0.3555
0.3575
0.352
0.3455
0.3365
0.355
0.367
0.353
0.355
0.36
0.36
0.3465
0.353
0.3675
0.361
0.358
0.358
0.365
0.364
0.368
0.3655
0.3365
0.323
0.3305
0.3345
0.315
0.31
0.328
0.335
0.353
0.371
0.366
0.3165
0.324
0.357
0.3365
0.34
0.331
0.324
0.2865
0.2855
0.35
0.343
0.3295
0.3325
0.33
0.308
0.295
0.291
0.278
0.29
0.3
0.3045
0.31
0.3325
0.3295
0.332
0.341
0.324
0.3
0.275
0.282
0.261
0.2475
0.2645
0.2625
0.2595
0.242
0.222
0.216
0.244
0.282
0.272
0.248
0.23
0.247
0.2645
0.267
0.303
0.297
0.2695
0.252
0.236
0.2205
0.2185
0.237
0.2145
0.199
0.2095
0.2305
0.2465
0.252
0.2565
0.2535
0.25
0.208
0.207
0.216
0.177
0.1395
0.1425
0.21
0.2545
0.277
0.2505
0.2195
0.195
0.166
0.1815
0.1415
0.1545
0.223
0.2255
0.2115
0.181
0.2185
0.2515
0.216
0.2035
0.1995
0.204
0.217
0.2405
0.239
0.2255
0.2305
0.219
0.192
0.1775
0.1685
0.1515
0.14
0.144
0.166
0.1865
0.194
0.1705
0.167
0.194
0.1805
0.1755
0.1805
0.161
0.141
0.135
0.1535
0.178
0.184
0.191
0.243
0.2655
0.235
0.2035
0.194
0.206
0.1985
0.2145
0.224
0.21
0.2135
0.244
0.288
0.308
0.287
0.27
0.2925
0.2345
0.139
0.135
0.1595
0.1625
0.1485
0.1465
0.1455
0.139
0.145
0.1515
0.149
0.159
0.181
0.179
0.177
0.173
0.1665
0.181
0.2055
0.216
0.199
0.1865
0.2015
0.2085
0.1925
0.1945
0.1995
0.176
0.1515
0.1555
0.1665
0.1655
0.248
0.339
0.296
0.251
0.212
0.16
0.204
0.2175
0.19
0.1775
0.1695
0.186
0.177
0.145
0.1385
0.227
0.2645
0.239
0.223
0.194
0.1965
0.2165
0.2545
0.2605
0.2575
0.2565
0.2615
0.299
0.331
0.343
0.345
0.2655
0.1535
0.1285
0.1365
0.151
0.144
0.1205
0.091
0.119
0.1895
0.228
0.218
0.171
0.1555
0.178
0.2255
0.224
0.1995
0.21
0.221
0.22
0.214
0.2045
0.1865
0.181
0.1945
0.212
0.227
0.23
0.221
0.2185
0.209
0.198
0.185
0.1835
0.2035
0.22
0.239
0.2435
0.2435
0.252
0.263
0.279
0.297
0.289
0.2805
0.2975
0.2875
0.259
0.246
0.273
0.302
0.299
0.282
0.2705
0.2385
0.211
0.2525
0.276
0.2645
0.238
0.232
0.265
0.272
0.2875
0.2645
0.2295
0.281
0.331
0.2865
0.2415
0.2845
0.3015
0.2665
0.2685
0.3105
0.338
0.3355
0.322
0.3215
0.3295
0.3185
0.295
0.2715
0.284
0.2635
0.2295
0.259
0.2445
0.2365
0.252
0.2225
0.2195
0.227
0.224
0.2335
0.2375
0.23
0.213
0.2035
0.1965
0.188
0.187
0.2155
0.251
0.2295
0.1975
0.19
0.202
0.2165
0.204
0.2175
0.2115
0.169
0.143
0.1485
0.1745
0.169
0.1635
0.167
0.1635
0.1745
0.198
0.2135
0.2005
0.1895
0.2
0.178
0.164
0.179
0.202
0.208
0.1735
0.1795
0.1835
0.1675
0.1915
0.179
0.142
0.1465
0.1765
0.2035
0.19
0.1795
0.17
0.1295
0.125
0.18
0.2225
0.204
0.1915
0.184
0.159
0.1255
0.105
0.1835
0.228
0.164
0.134
0.1335
0.115
0.102
0.0705
0.029
0.0665
0.115
0.098
0.092
0.067
-0.004
-0.0315
-0.0395
-0.072
-0.103
-0.094
-0.0675
-0.0845
-0.103
-0.092
-0.0875
-0.1085
-0.1415
-0.114
-0.0525
-0.0325
-0.0015
0.0465
0.092
0.137
0.1425
0.136
0.1605
0.209
0.27
0.3305
0.3675
0.394
0.461
0.5255
0.6045
0.675
0.703
0.7955
0.8525
0.865
0.9135
0.932
0.8755
0.8295
0.872
0.9055
0.8925
0.854
0.8525
0.8335
0.7235
0.65
0.636
0.639
0.6385
0.6265
0.6105
0.5665
0.536
0.534
0.541
0.517
0.456
0.418
0.3965
0.3665
0.3325
0.313
0.28
0.2665
0.263
0.225
0.188
0.151
0.1395
0.136
0.133
0.0535
-0.0065
0.079
0.065
-0.029
-0.049
-0.0225
0.004
-0.008
-0.027
-0.031
-0.0125
-0.049
-0.133
-0.123
-0.1135
-0.141
-0.151
-0.1895
-0.212
-0.2455
-0.277
-0.274
-0.2755
-0.257
-0.2485
-0.247
-0.229
-0.248
-0.259
-0.2305
-0.1835
-0.1865
-0.243
-0.2365
-0.227
-0.2405
-0.23
-0.237
-0.25
-0.2295
-0.205
-0.198
-0.1805
-0.165
-0.165
-0.167
-0.134
-0.0995
-0.0955
-0.097
-0.1155
-0.111
-0.0855
-0.0555
-0.0245
-0.0185
-0.0235
-0.0225
-0.02
-0.0195
-0.0025
-0.0025
0.0455
0.121
0.1525
0.1375
0.141
0.197
0.1325
0.115
0.158
0.128
0.136
0.101
0.072
0.0775
0.104
0.113
0.11
0.138
0.1305
0.1325
0.1245
0.141
0.152
0.1475
0.1725
0.1675
0.1425
0.12
0.132
0.1395
0.1325
0.1275
0.1485
0.185
0.182
0.1625
0.1305
0.1395
0.153
0.13
0.1225
0.136
0.1635
0.1665
0.192
0.2135
0.17
0.155
0.144
0.154
0.1875
0.206
0.245
0.2105
0.1315
0.1185
0.1545
0.161
0.175
0.2045
0.2145
0.223
0.1965
0.176
0.16
0.1545
0.1635
0.1585
0.164
0.19
0.169
0.1255
0.164
0.1835
0.159
0.1565
0.193
0.252
0.2435
0.219
0.215
0.1885
0.1805
0.185
0.197
0.1965
0.1885
0.213
0.227
0.2415
0.241
0.2315
0.2315
0.2515
0.281
0.27
0.244
0.195
0.1695
0.167
0.175
0.2065
0.2485
0.2585
0.2285
0.219
0.2085
0.2135
0.2095
0.175
0.1555
0.1715
0.1905
0.1825
0.206
0.2485
0.2375
0.2325
0.2385
0.2385
0.2415
0.1945
0.1695
0.1745
0.167
0.206
0.26
0.29
0.3465
0.3925
0.3495
0.2515
0.2135
0.257
0.262
0.29
0.3565
0.336
0.301
0.2815
0.271
0.2785
0.3105
0.354
0.3465
0.3275
0.324
0.324
0.3415
0.3355
0.3245
0.347
0.373
0.352
0.32
0.3125
0.266
0.2745
0.333
0.333
0.378
0.394
0.346
0.354
0.379
0.3955
0.3825
0.387
0.386
0.335
0.344
0.372
0.382
0.3905
0.366
0.325
0.325
0.3665
0.357
0.337
0.361
0.362
0.336
0.3585
0.402
0.384
0.3575
0.372
0.394
0.4045
0.4205
0.374
0.3375
0.369
0.3715
0.365
0.375
0.419
0.431
0.405
0.3605
0.331
0.3795
0.3535
0.311
0.3395
0.3595
0.338
0.308
0.35
0.343
0.3325
0.397
0.4495
0.448
0.4355
0.4135
0.317
0.2795
0.281
0.319
0.364
0.3335
0.3335
0.342
0.388
0.387
0.318
0.332
0.3295
0.3335
0.3605
0.332
0.3125
0.307
0.3005
0.3215
0.3715
0.3895
0.366
0.367
0.3185
0.284
0.3145
0.2835
0.3355
0.359
0.3265
0.2915
0.192
0.2395
0.318
0.3055
0.2915
0.2845
0.274
0.289
0.289
0.2545
0.251
0.243
0.2675
0.2765
0.2395
0.239
0.257
0.2835
0.2905
0.2885
0.303
0.3215
0.306
0.279
0.2835
0.273
0.2
0.135
0.165
0.205
0.209
0.1845
0.2045
0.24
0.1955
0.1835
0.215
0.225
0.24
0.252
0.2385
0.2265
0.168
0.1535
0.201
0.2015
0.249
0.318
0.3035
0.2355
0.242
0.2815
0.223
0.1705
0.161
0.11
0.1005
0.1535
0.207
0.2535
0.248
0.212
0.205
0.202
0.183
0.1665
0.1185
0.0905
0.1115
0.1255
0.1195
0.1475
0.195
0.1925
0.179
0.175
0.1685
0.1385
0.135
0.167
0.198
0.1935
0.231
0.3085
0.202
0.0905
0.115
0.1735
0.1845
0.153
0.1505
0.1195
0.12
0.1565
0.175
0.1525
0.1105
0.123
0.1665
0.18
0.1805
0.1895
0.196
0.154
0.1195
0.1705
0.1935
0.1615
0.125
0.1205
0.142
0.145
0.137
0.159
0.1915
0.183
0.169
0.16
0.168
0.1465
0.1475
0.2075
0.2165
0.2055
0.1925
0.1495
0.099
0.0965
0.1045
0.107
0.143
0.2045
0.2265
0.1975
0.2075
0.224
0.2435
0.2395
0.19
0.177
0.162
0.1405
0.163
0.1755
0.1665
0.1735
0.173
0.1955
0.2105
0.1995
0.2065
0.195
0.1925
0.196
0.1895
0.1775
0.1315
0.117
0.1305
0.127
0.0895
0.102
0.1735
0.2225
0.2355
0.217
0.1965
0.1585
0.188
0.189
0.1605
0.2145
0.221
0.188
0.154
0.18
0.2185
0.218
0.2235
0.1935
0.166
0.1385
0.137
0.1655
0.17
0.201
0.225
0.1855
0.162
0.1725
0.174
0.1745
0.176
0.188
0.195
0.188
0.1805
0.1805
0.1865
0.1785
0.18
0.1825
0.171
0.1735
0.1725
0.177
0.184
0.1775
0.172
0.177
0.1875
0.1845
0.176
0.1835
0.188
0.2005
0.227
0.226
0.1985
0.177
0.202
0.2515
0.3115
0.3085
0.3085
0.3645
0.3705
0.3915
0.4205
0.539
0.552
0.3895
0.416
0.4465
0.218
0.03
0.0845
0.1685
0.195
0.178
0.1565
0.155
0.1475
0.1565
0.1705
0.19
0.2005
0.204
0.197
0.196
0.2115
0.2335
0.249
0.242
0.2445
0.251
0.258
0.2655
0.266
0.2685
0.2655
0.2695
0.25
0.2425
0.2625
0.245
0.237
0.2365
0.2295
0.2255
0.2225
0.2195
0.2145
0.214
0.2135
0.2075
0.1935
0.178
0.1665
0.1725
0.187
0.186
0.172
0.1685
0.1755
0.1775
0.1825
0.181
0.1725
0.1705
0.1735
0.17
0.167
0.1755
0.1715
0.163
0.1495
0.137
0.13
0.143
0.1595
0.1605
0.171
0.177
0.181
0.183
0.1795
0.1525
0.137
0.149
0.1575
0.176
0.171
0.151
0.1425
0.1435
0.163
0.1685
0.1715
0.171
0.1705
0.173
0.154
0.1515
0.1555
0.162
0.1705
0.1735
0.1745
0.171
0.162
0.139
0.1325
0.1225
0.1085
0.1185
0.098
0.0605
0.0835
0.1095
0.114
0.1375
0.1455
0.148
0.176
0.133
0.0655
0.0325
-0.0015
-0.0095
0.0035
0.0065
-0.045
-0.064
-0.07
-0.0705
-0.081
-0.125
-0.1125
-0.1325
-0.1465
-0.1015
-0.07
-0.061
-0.037
0.0325
0.0355
0.031
0.0565
0.069
0.13
0.195
0.255
0.318
0.3745
0.416
0.443
0.4765
0.555
0.645
0.6885
0.7345
0.792
0.817
0.8185
0.832
0.8365
0.805
0.7985
0.8565
0.8885
0.866
0.8285
0.7745
0.712
0.6385
0.6015
0.638
0.646
0.631
0.639
0.6025
0.5775
0.5505
0.508
0.4955
0.4745
0.4385
0.4125
0.3745
0.342
0.31
0.269
0.266
0.2415
0.2255
0.226
0.203
0.167
0.143
0.142
0.099
0.03
0.0295
0.0355
0.0015
-0.059
-0.0995
-0.0435
-0.0185
-0.0435
-0.0585
-0.074
-0.08
-0.0945
-0.12
-0.1395
-0.135
-0.15
-0.186
-0.205
-0.243
-0.2715
-0.2625
-0.2585
-0.2545
-0.2515
-0.2625
-0.2545
-0.241
-0.252
-0.253
-0.258
-0.256
-0.226
-0.2485
-0.304
-0.299
-0.2655
-0.249
-0.2275
-0.2155
-0.2175
-0.215
-0.2005
-0.1965
-0.199
-0.191
-0.1735
-0.16
-0.16
-0.139
-0.1115
-0.0905
-0.0625
-0.065
-0.0455
0.013
-0.0015
-0.0395
-0.0295
0.008
0.0655
0.103
0.0945
0.0875
0.101
0.0955
0.0935
0.0765
0.0615
0.084
0.0965
0.0985
0.0975
0.0965
0.1
0.1025
0.119
0.1545
0.1785
0.1635
0.161
0.143
0.1145
0.1405
0.1375
0.179
0.2235
0.149
0.1185
0.139
0.134
0.1235
0.134
0.174
0.186
0.184
0.167
0.1525
0.172
0.1475
0.129
0.1765
0.165
0.1025
0.1035
0.1415
0.1625
0.1725
0.1985
0.197
0.1705
0.1705
0.173
0.1805
0.167
0.1225
0.1155
0.0975
0.1035
0.144
0.147
0.147
0.143
0.138
0.158
0.1965
0.187
0.1655
0.161
0.1535
0.169
0.179
0.182
0.1805
0.1845
0.2025
0.2015
0.2225
0.228
0.1925
0.185
0.1775
0.175
0.177
0.211
0.245
0.2345
0.2135
0.189
0.19
0.2015
0.1965
0.19
0.2015
0.1945
0.1805
0.1675
0.1535
0.1555
0.154
0.1845
0.2115
0.1915
0.1645
0.1525
0.1575
0.202
0.255
0.278
0.2475
0.2035
0.2085
0.217
0.1985
0.1955
0.247
0.2495
0.2495
0.252
0.2435
0.2615
0.2415
0.2605
0.2735
0.245
0.228
0.208
0.2315
0.258
0.2675
0.281
0.2795
0.2815
0.277
0.2415
0.2275
0.2765
0.28
0.264
0.2635
0.2605
0.279
0.2915
0.2955
0.291
0.299
0.2995
0.3075
0.3155
0.3025
0.2785
0.2715
0.277
0.2535
0.2685
0.308
0.324
0.3515
0.4095
0.4475
0.4265
0.384
0.363
0.3405
0.3185
0.3425
0.356
0.3415
0.343
0.3595
0.3535
0.38
0.463
0.4965
0.489
0.451
0.4155
0.4055
0.3505
0.31
0.3175
0.316
0.333
0.3535
0.3455
0.3515
0.3755
0.38
0.358
0.332
0.329
0.3445
0.351
0.347
0.348
0.3605
0.3735
0.3725
0.359
0.3525
0.359
0.362
0.36
0.3585
0.362
0.369
0.3745
0.383
0.392
0.3745
0.3495
0.349
0.3515
0.3415
0.346
0.37
0.394
0.4185
0.4285
0.41
0.389
0.3845
0.3825
0.3575
0.296
0.2765
0.299
0.3505
0.3765
0.318
0.261
0.269
0.3445
0.394
0.394
0.356
0.3085
0.296
0.298
0.302
0.3
0.3025
0.313
0.3045
0.3185
0.356
0.3305
0.2915
0.308
0.333
0.3245
0.318
0.3125
0.305
0.306
0.294
0.275
0.2725
0.302
0.325
0.317
0.294
0.31
0.341
0.3105
0.2595
0.2405
0.2455
0.273
0.2955
0.305
0.3095
0.299
0.285
0.286
0.3215
0.3195
0.296
0.238
0.1745
0.1665
0.196
0.2585
0.253
0.255
0.2545
0.232
0.252
0.2645
0.244
0.2095
0.1955
0.2035
0.2055
0.1755
0.1895
0.202
0.188
0.1995
0.194
0.2095
0.225
0.1995
0.1685
0.166
0.185
0.195
0.2025
0.212
0.213
0.217
0.227
0.203
0.1795
0.2055
0.22
0.199
0.183
0.19
0.2015
0.2015
0.1835
0.1795
0.189
0.19
0.18
0.154
0.1565
0.1555
0.14
0.1585
0.183
0.178
0.1445
0.149
0.1495
0.1725
0.2555
0.2435
0.2355
0.2585
0.2325
0.1995
0.1805
0.1775
0.1685
0.176
0.184
0.1935
0.2025
0.1995
0.203
0.2035
0.2075
0.193
0.165
0.159
0.1595
0.1705
0.1985
0.2285
0.2225
0.2215
0.2245
0.1985
0.1715
0.142
0.166
0.1955
0.2055
0.2175
0.2135
0.213
0.181
0.1585
0.1845
0.2155
0.181
0.1485
0.153
0.167
0.209
0.2235
0.2535
0.236
0.217
0.2485
0.237
0.249
0.255
0.2445
0.241
0.2455
0.2835
0.279
0.233
0.2195
0.208
0.202
0.1825
0.1885
0.218
0.195
0.19
0.203
0.214
0.1845
0.176
0.227
0.24
0.204
0.183
0.233
0.2815
0.3005
0.3035
0.2875
0.256
0.2155
0.1515
0.1235
0.1755
0.182
0.1745
0.1935
0.185
0.177
0.1695
0.158
0.141
0.1285
0.146
0.181
0.18
0.197
0.257
0.2705
0.2545
0.2305
0.216
0.2075
0.203
0.1985
0.229
0.2615
0.2355
0.192
0.18
0.224
0.257
0.2895
0.288
0.262
0.2585
0.2445
0.236
0.2085
0.195
0.1895
0.205
0.234
0.2085
0.188
0.1775
0.1775
0.1975
0.2425
0.285
0.279
0.282
0.277
0.25
0.21
0.1975
0.264
0.3475
0.405
0.344
0.236
0.2215
0.227
0.273
0.3385
0.332
0.2935
0.322
0.3135
0.263
0.2905
0.331
0.358
0.3245
0.2905
0.2835
0.247
0.193
0.1925
0.266
0.2635
0.234
0.2775
0.2725
0.2545
0.27
0.2715
0.281
0.282
0.2825
0.271
0.261
0.2835
0.288
0.295
0.3425
0.363
0.3395
0.332
0.295
0.2715
0.2985
0.246
0.1975
0.1955
0.204
0.21
0.1905
0.191
0.219
0.267
0.2585
0.2365
0.2355
0.2135
0.189
0.18
0.2135
0.2395
0.211
0.204
0.2015
0.167
0.144
0.1195
0.1285
0.132
0.1245
0.1425
0.142
0.1355
0.12
0.14
0.23
0.2735
0.2415
0.2165
0.158
0.158
0.2165
0.2145
0.211
0.2025
0.231
0.272
0.2505
0.1925
0.149
0.1615
0.163
0.1595
0.1775
0.1745
0.1575
0.133
0.132
0.142
0.158
0.163
0.1675
0.193
0.1745
0.165
0.151
0.1255
0.16
0.2035
0.212
0.2
0.182
0.1675
0.1695
0.1655
0.152
0.1455
0.145
0.1395
0.1635
0.183
0.134
0.0695
0.002
-0.0165
0.019
-0.0065
-0.0315
-0.046
-0.0905
-0.146
-0.168
-0.127
-0.106
-0.1055
-0.0835
-0.034
-0.0675
-0.111
-0.104
-0.1235
-0.079
-0.0325
-0.002
0.039
0.053
0.1015
0.1515
0.2175
0.2685
0.2815
0.3455
0.411
0.4695
0.5315
0.5935
0.6395
0.6805
0.723
0.7575
0.7905
0.811
0.8295
0.831
0.829
0.834
0.8325
0.8355
0.824
0.7825
0.7455
0.7295
0.6975
0.659
0.6465
0.631
0.6225
0.6035
0.5725
0.5675
0.533
0.4955
0.468
0.4355
0.416
0.3985
0.401
0.38
0.329
0.304
0.2965
0.279
0.238
0.2065
0.1715
0.1365
0.1375
0.131
0.1195
0.103
0.0885
0.077
0.052
0.019
-0.009
-0.0115
-0.0275
-0.0305
-0.0125
-0.025
-0.0445
-0.0825
-0.132
-0.1415
-0.1505
-0.1615
-0.142
-0.128
-0.1495
-0.2
-0.194
-0.179
-0.2035
-0.2165
-0.2175
-0.2285
-0.295
-0.2595
-0.2005
-0.2565
-0.261
-0.2605
-0.3
-0.322
-0.297
-0.2795
-0.264
-0.225
-0.3035
-0.38
-0.3375
-0.231
-0.1495
-0.171
-0.168
-0.1415
-0.1395
-0.105
-0.088
-0.108
-0.1055
-0.099
-0.113
-0.0895
-0.0365
0.032
0.077
0.0455
0.034
0.0455
0.0015
0.01
0.0845
0.1125
0.0975
0.062
0.074
0.104
0.099
0.1025
0.1265
0.16
0.139
0.122
0.1425
0.1355
0.139
0.1655
0.1625
0.1255
0.1175
0.1135
0.1095
0.126
0.1305
0.1505
0.172
0.185
0.195
0.195
0.2145
0.196
0.1535
0.116
0.0855
0.108
0.133
0.148
0.158
0.144
0.103
0.099
0.153
0.179
0.187
0.1945
0.189
0.198
0.1765
0.1705
0.2
0.182
0.152
0.137
0.1495
0.151
0.145
0.157
0.1755
0.1805
0.1475
0.133
0.1445
0.1295
0.138
0.168
0.154
0.1515
0.15
0.154
0.189
0.1765
0.1385
0.1185
0.163
0.175
0.145
0.2025
0.2255
0.2255
0.241
0.234
0.25
0.2535
0.201
0.19
0.2375
0.225
0.178
0.148
0.137
0.175
0.2215
0.213
0.196
0.1975
0.207
0.191
0.1665
0.189
0.216
0.2155
0.223
0.2105
