ECG
-0.2445
-0.2425
-0.2415
-0.241
-0.2315
-0.226
-0.225
-0.2345
-0.2345
-0.2235
-0.2205
-0.227
-0.232
-0.2375
-0.2445
-0.237
-0.224
-0.2265
-0.2265
-0.2275
-0.2325
-0.226
-0.2255
-0.211
-0.2135
-0.2235
-0.22
-0.216
-0.2
-0.1965
-0.1965
-0.209
-0.2385
-0.252
-0.2385
-0.2265
-0.2345
-0.2545
-0.2475
-0.231
-0.23
-0.22
-0.2145
-0.2145
-0.2275
-0.2245
-0.2135
-0.2005
-0.2065
-0.228
-0.219
-0.2155
-0.2155
-0.2215
-0.2315
-0.228
-0.219
-0.221
-0.227
-0.2265
-0.229
-0.2315
-0.2355
-0.2235
-0.2135
-0.216
-0.211
-0.2125
-0.2185
-0.2115
-0.2035
-0.201
-0.2045
-0.2305
-0.233
-0.2175
-0.222
-0.225
-0.2135
-0.2085
-0.2145
-0.2115
-0.2085
-0.208
-0.2105
-0.2155
-0.2115
-0.204
-0.193
-0.1775
-0.2005
-0.19
-0.162
-0.1925
-0.1995
-0.1945
-0.188
-0.194
-0.2125
-0.192
-0.167
-0.1615
-0.168
-0.162
-0.157
-0.166
-0.151
-0.146
-0.1525
-0.146
-0.141
-0.142
-0.145
-0.1605
-0.156
-0.1385
-0.136
-0.137
-0.154
-0.135
-0.1175
-0.1245
-0.125
-0.1385
-0.12
-0.0915
-0.0885
-0.0895
-0.093
-0.0775
-0.078
-0.09
-0.097
-0.0985
-0.094
-0.102
-0.092
-0.092
-0.0815
-0.0755
-0.079
-0.067
-0.072
-0.0585
-0.0525
-0.0505
-0.0485
-0.047
-0.038
-0.0335
-0.014
-0.0195
-0.0285
-0.037
-0.0255
-0.0115
-0.0165
-0.0215
-0.055
-0.0645
-0.04
-0.007
-0.034
-0.0515
-0.03
-0.037
-0.0365
-0.02
0.001
0.0115
0.0055
-0.0165
-0.0235
-0.013
0.003
-0.013
-0.022
-0.021
-0.0325
-0.034
-0.0395
-0.0185
-0.011
-0.011
0.0
-0.0025
-0.0125
-0.0175
-0.018
-0.02
-0.0225
-0.0275
-0.022
-0.031
-0.041
-0.046
-0.046
-0.0415
-0.0385
-0.0265
-0.0345
-0.037
-0.0355
-0.0395
-0.0455
-0.049
-0.04
-0.0265
-0.029
-0.0285
-0.033
-0.0635
-0.0545
-0.0545
-0.0605
-0.0475
-0.0645
-0.0805
-0.0795
-0.0755
-0.0825
-0.076
-0.0745
-0.0775
-0.074
-0.0795
-0.084
-0.083
-0.083
-0.0945
-0.08
-0.079
-0.092
-0.095
-0.086
-0.075
-0.0975
-0.0985
-0.09
-0.1005
-0.1065
-0.1095
-0.116
-0.1105
-0.1015
-0.099
-0.1115
-0.1085
-0.086
-0.0835
-0.102
-0.132
-0.12
-0.1055
-0.1115
-0.1205
-0.1465
-0.1605
-0.137
-0.1315
-0.1425
-0.144
-0.15
-0.1395
-0.13
-0.126
-0.1305
-0.1205
-0.1175
-0.1195
-0.124
-0.1535
-0.161
-0.153
-0.1465
-0.149
-0.16
-0.171
-0.1645
-0.167
-0.157
-0.1345
-0.141
-0.1435
-0.1515
-0.157
-0.16
-0.1395
-0.126
-0.147
-0.1465
-0.152
-0.1625
-0.1705
-0.1715
-0.1645
-0.1835
-0.188
-0.1715
-0.176
-0.172
-0.1675
-0.1725
-0.1705
-0.1665
-0.16
-0.161
-0.168
-0.191
-0.1845
-0.1615
-0.177
-0.1995
-0.1965
-0.1865
-0.1875
-0.184
-0.181
-0.1845
-0.203
-0.1935
-0.1725
-0.1895
-0.1905
-0.1695
-0.164
-0.168
-0.169
-0.1785
-0.172
-0.174
-0.2
-0.204
-0.183
-0.165
-0.1815
-0.171
-0.17
-0.1995
-0.1935
-0.1865
-0.1825
-0.178
-0.174
-0.173
-0.1765
-0.176
-0.1755
-0.179
-0.1745
-0.1785
-0.188
-0.186
-0.1935
-0.194
-0.195
-0.2
-0.1925
-0.1945
-0.1955
-0.1915
-0.1995
-0.1945
-0.1805
-0.181
-0.181
-0.1825
-0.1815
-0.1815
-0.1815
-0.1785
-0.1875
-0.1905
-0.192
-0.2025
-0.1985
-0.198
-0.2005
-0.198
-0.228
-0.2295
-0.229
-0.2175
-0.183
-0.1905
-0.1855
-0.183
-0.1745
-0.1845
-0.1915
-0.181
-0.1955
-0.1935
-0.1965
-0.193
-0.1915
-0.2035
-0.208
-0.194
-0.1955
-0.206
-0.188
-0.185
-0.217
-0.234
-0.175
-0.151
-0.1805
-0.184
-0.1875
-0.1855
-0.1835
-0.1865
-0.19
-0.1945
-0.1935
-0.1895
-0.189
-0.1875
-0.193
-0.18
-0.1735
-0.192
-0.19
-0.173
-0.174
-0.188
-0.1875
-0.1925
-0.1865
-0.1715
-0.1765
-0.177
-0.1715
-0.1765
-0.1815
-0.1925
-0.2015
-0.186
-0.1945
-0.201
-0.1755
-0.1755
-0.187
-0.183
-0.184
-0.174
-0.163
-0.1755
-0.181
-0.1745
-0.174
-0.1795
-0.163
-0.184
-0.195
-0.1845
-0.2015
-0.1825
-0.1845
-0.1895
-0.182
-0.188
-0.184
-0.1675
-0.1555
-0.1555
-0.1605
-0.1685
-0.175
-0.177
-0.174
-0.1865
-0.191
-0.163
-0.146
-0.153
-0.158
-0.1495
-0.149
-0.148
-0.139
-0.143
-0.127
-0.136
-0.139
-0.1185
-0.114
-0.118
-0.112
-0.105
-0.119
-0.0925
-0.0975
-0.101
-0.089
-0.115
-0.1065
-0.101
-0.1295
-0.133
-0.1255
-0.128
-0.1255
-0.128
-0.1295
-0.1375
-0.131
-0.1285
-0.1255
-0.1365
-0.163
-0.157
-0.1425
-0.115
-0.1005
-0.111
-0.116
-0.1075
-0.1105
-0.1105
-0.1075
-0.118
-0.1185
-0.1185
-0.129
-0.14
-0.145
-0.1475
-0.133
-0.137
-0.155
-0.163
-0.1695
-0.175
-0.178
-0.179
-0.1835
-0.1805
-0.182
-0.182
-0.185
-0.182
-0.18
-0.1815
-0.1775
-0.182
-0.188
-0.1855
-0.19
-0.2145
-0.21
-0.189
-0.194
-0.2095
-0.211
-0.2185
-0.2105
-0.2155
-0.241
-0.226
-0.2255
-0.2185
-0.2065
-0.193
-0.189
-0.2095
-0.1955
-0.1935
-0.1875
-0.1725
-0.1875
-0.203
-0.214
-0.2195
-0.2235
-0.22
-0.2065
-0.1975
-0.204
-0.214
-0.2175
-0.212
-0.1965
-0.203
-0.219
-0.209
-0.1995
-0.1995
-0.197
-0.2015
-0.2
-0.2
-0.209
-0.207
-0.208
-0.218
-0.217
-0.217
-0.2285
-0.2325
-0.245
-0.26
-0.265
-0.274
-0.2825
-0.2925
-0.303
-0.318
-0.323
-0.332
-0.344
-0.3585
-0.3685
-0.363
-0.362
-0.352
-0.337
-0.3105
-0.296
-0.273
-0.2405
-0.211
-0.1675
-0.1315
-0.0885
-0.049
-0.018
0.023
0.072
0.1075
0.1535
0.215
0.242
0.271
0.302
0.315
0.325
0.3155
0.3185
0.3375
0.3445
0.3445
0.345
0.3245
0.2815
0.228
0.18
0.1455
0.117
0.122
0.1275
0.118
0.1105
0.1105
0.092
0.053
0.0805
0.0835
0.047
0.051
0.0435
0.006
0.002
-0.0005
-0.045
-0.0425
-0.0575
-0.071
-0.0715
-0.0845
-0.1115
-0.1585
-0.19
-0.2335
-0.256
-0.286
-0.3015
-0.3115
-0.345
-0.3635
-0.3955
-0.4275
-0.432
-0.4425
-0.4535
-0.473
-0.5035
-0.512
-0.531
-0.534
-0.5365
-0.5615
-0.5795
-0.5945
-0.6005
-0.616
-0.6245
-0.6175
-0.607
-0.6085
-0.621
-0.6105
-0.5915
-0.5705
-0.558
-0.5465
-0.529
-0.5025
-0.479
-0.4675
-0.436
-0.4195
-0.421
-0.415
-0.389
-0.351
-0.3365
-0.344
-0.336
-0.306
-0.3105
-0.3055
-0.267
-0.2585
-0.2555
-0.2295
-0.2335
-0.243
-0.2105
-0.2165
-0.2365
-0.216
-0.222
-0.2265
-0.2295
-0.2425
-0.219
-0.2075
-0.224
-0.2135
-0.189
-0.2115
-0.236
-0.2165
-0.1975
-0.1995
-0.197
-0.1925
-0.193
-0.206
-0.217
-0.205
-0.2
-0.205
-0.2085
-0.2255
-0.2155
-0.1905
-0.2155
-0.2245
-0.223
-0.232
-0.2235
-0.2005
-0.182
-0.193
-0.2005
-0.199
-0.1925
-0.2025
-0.205
-0.197
-0.207
-0.2125
-0.21
-0.214
-0.2105
-0.2215
-0.224
-0.1915
-0.2005
-0.205
-0.1985
-0.2055
-0.201
-0.193
-0.1875
-0.2025
-0.1925
-0.1955
-0.204
-0.193
-0.2085
-0.206
-0.2045
-0.2065
-0.201
-0.1985
-0.198
-0.1945
-0.1885
-0.187
-0.181
-0.1905
-0.2025
-0.2075
-0.211
-0.2165
-0.2265
-0.206
-0.1845
-0.165
-0.1795
-0.1975
-0.179
-0.1865
-0.194
-0.2
-0.1945
-0.1885
-0.2005
-0.2025
-0.1665
-0.1545
-0.169
-0.1595
-0.161
-0.1725
-0.174
-0.1655
-0.1635
-0.148
-0.1515
-0.1655
-0.1755
-0.1855
-0.1785
-0.178
-0.169
-0.1585
-0.148
-0.1495
-0.157
-0.139
-0.1295
-0.129
-0.1355
-0.1495
-0.137
-0.13
-0.131
-0.127
-0.1245
-0.1175
-0.114
-0.112
-0.1045
-0.1045
-0.1025
-0.0935
-0.089
-0.085
-0.0675
-0.0615
-0.0885
-0.0855
-0.0745
-0.071
-0.061
-0.0645
-0.0615
-0.0595
-0.055
-0.0575
-0.0555
-0.0535
-0.064
-0.0565
-0.0495
-0.038
-0.042
-0.0215
0.025
0.0165
-0.0165
-0.038
-0.037
-0.0125
0.0145
0.0095
0.0035
0.0
-0.0035
-0.004
-0.0025
0.001
0.005
0.008
0.0075
0.027
0.0295
0.0405
0.0395
0.027
0.02
0.008
0.0255
0.029
0.0335
0.038
0.0395
0.034
0.01
0.0045
0.012
0.008
0.0205
0.058
0.0515
0.0455
0.071
0.07
0.0585
0.0455
0.027
0.029
0.041
0.0395
0.033
0.044
0.0455
0.036
0.0305
0.0045
-0.0005
0.015
0.021
0.0245
0.0325
0.0355
0.0245
0.025
0.0225
0.019
0.0215
0.0165
0.019
0.026
0.0165
-0.021
-0.0125
0.008
-0.0105
-0.0165
-0.0275
-0.0335
-0.028
-0.03
-0.0335
-0.0305
-0.0335
-0.034
-0.033
-0.034
-0.032
-0.033
-0.048
-0.0515
-0.041
-0.051
-0.059
-0.054
-0.0595
-0.0895
-0.098
-0.07
-0.0585
-0.0605
-0.0415
-0.069
-0.0975
-0.084
-0.0685
-0.0555
-0.081
-0.049
-0.033
-0.0775
-0.0915
-0.0985
-0.098
-0.098
-0.091
-0.0975
-0.098
-0.089
-0.0855
-0.099
-0.1125
-0.1055
-0.1085
-0.096
-0.092
-0.0965
-0.093
-0.092
-0.105
-0.1125
-0.109
-0.1095
-0.103
-0.113
-0.1185
-0.12
-0.1255
-0.13
-0.135
-0.1285
-0.1115
-0.1165
-0.1255
-0.122
-0.1255
-0.13
-0.118
-0.1045
-0.124
-0.142
-0.13
-0.132
-0.1325
-0.1225
-0.153
-0.1755
-0.1725
-0.1675
-0.1755
-0.1685
-0.1465
-0.1355
-0.1455
-0.153
-0.148
-0.1655
-0.1615
-0.152
-0.166
-0.1535
-0.131
-0.153
-0.1735
-0.1665
-0.155
-0.1585
-0.174
-0.176
-0.1615
-0.1655
-0.1745
-0.1745
-0.1725
-0.1715
-0.175
-0.1485
-0.143
-0.158
-0.161
-0.169
-0.172
-0.1745
-0.1725
-0.178
-0.182
-0.1815
-0.1845
-0.185
-0.171
-0.1645
-0.175
-0.175
-0.1715
-0.172
-0.1795
-0.1775
-0.1675
-0.1625
-0.151
-0.1545
-0.169
-0.154
-0.1645
-0.1895
-0.189
-0.1795
-0.1695
-0.191
-0.183
-0.182
-0.185
-0.1815
-0.1955
-0.1745
-0.177
-0.1955
-0.197
-0.1815
-0.18
-0.1925
-0.185
-0.1735
-0.1585
-0.1575
-0.169
-0.1785
-0.191
-0.194
-0.181
-0.192
-0.1925
-0.189
-0.1835
-0.178
-0.1865
-0.1665
-0.1465
-0.151
-0.1705
-0.1775
-0.1775
-0.1845
-0.166
-0.149
-0.169
-0.185
-0.1855
-0.1955
-0.188
-0.1925
-0.2015
-0.172
-0.1615
-0.1675
-0.1715
-0.1705
-0.16
-0.1725
-0.193
-0.19
-0.1895
-0.1825
-0.174
-0.171
-0.1755
-0.187
-0.173
-0.175
-0.176
-0.179
-0.1945
-0.184
-0.174
-0.168
-0.1685
-0.163
-0.182
-0.187
-0.1665
-0.1745
-0.1845
-0.181
-0.1635
-0.1815
-0.186
-0.177
-0.1775
-0.173
-0.163
-0.1665
-0.1805
-0.179
-0.169
-0.1565
-0.181
-0.196
-0.189
-0.179
-0.178
-0.1565
-0.1615
-0.1915
-0.1865
-0.201
-0.1815
-0.1695
-0.1825
-0.181
-0.178
-0.1655
-0.1605
-0.1645
-0.165
-0.1635
-0.155
-0.14
-0.152
-0.151
-0.1495
-0.159
-0.1565
-0.18
-0.1695
-0.1505
-0.178
-0.186
-0.174
-0.162
-0.1565
-0.1475
-0.16
-0.179
-0.1665
-0.154
-0.1515
-0.1505
-0.144
-0.137
-0.1405
-0.1325
-0.1255
-0.146
-0.1425
-0.1285
-0.129
-0.1255
-0.1245
-0.127
-0.122
-0.1105
-0.1315
-0.1535
-0.127
-0.111
-0.1255
-0.1325
-0.1325
-0.1305
-0.1105
-0.108
-0.1305
-0.138
-0.141
-0.1305
-0.1305
-0.1385
-0.1265
-0.11
-0.1045
-0.116
-0.1145
-0.111
-0.1055
-0.1085
-0.1115
-0.092
-0.1005
-0.1075
-0.1105
-0.1345
-0.129
-0.1175
-0.149
-0.171
-0.1655
-0.174
-0.1845
-0.184
-0.1855
-0.1925
-0.1915
-0.192
-0.191
-0.177
-0.178
-0.168
-0.1545
-0.1745
-0.2005
-0.201
-0.196
-0.202
-0.207
-0.211
-0.215
-0.216
-0.2115
-0.2205
-0.2075
-0.1965
-0.2095
-0.2055
-0.2075
-0.203
-0.2115
-0.2315
-0.198
-0.1765
-0.1875
-0.1965
-0.2115
-0.245
-0.2405
-0.1745
-0.167
-0.201
-0.1955
-0.197
-0.209
-0.202
-0.1985
-0.1945
-0.1935
-0.1965
-0.1935
-0.191
-0.1795
-0.1785
-0.167
-0.166
-0.179
-0.1715
-0.199
-0.2225
-0.209
-0.191
-0.1905
-0.2
-0.1995
-0.195
-0.197
-0.2105
-0.2125
-0.2115
-0.2175
-0.228
-0.2325
-0.238
-0.2605
-0.2715
-0.2875
-0.3075
-0.3215
-0.344
-0.367
-0.378
-0.384
-0.397
-0.3895
-0.3775
-0.377
-0.3655
-0.347
-0.324
-0.305
-0.282
-0.249
-0.2175
-0.1825
-0.147
-0.122
-0.094
-0.0575
-0.018
0.0325
0.087
0.1325
0.182
0.229
0.2665
0.3005
0.2835
0.274
0.3025
0.3165
0.338
0.362
0.354
0.3345
0.327
0.2715
0.213
0.202
0.1945
0.162
0.1195
0.104
0.1135
0.1525
0.163
0.1435
0.13
0.121
0.1095
0.095
0.0955
0.0735
0.0365
0.014
0.0015
-0.019
-0.0375
-0.055
-0.0735
-0.1025
-0.131
-0.1455
-0.1755
-0.2115
-0.232
-0.2355
-0.271
-0.313
-0.3375
-0.3315
-0.3325
-0.353
-0.3615
-0.4245
-0.4855
-0.5
-0.492
-0.5075
-0.517
-0.544
-0.5765
-0.557
-0.5695
-0.5925
-0.609
-0.608
-0.6065
-0.6095
-0.6185
-0.6255
-0.6125
-0.6165
-0.6015
-0.6045
-0.6125
-0.588
-0.5765
-0.5595
-0.5415
-0.523
-0.5
-0.4815
-0.4585
-0.432
-0.418
-0.406
-0.3815
-0.358
-0.337
-0.321
-0.308
-0.3005
-0.2855
-0.2705
-0.263
-0.246
-0.241
-0.2425
-0.2425
-0.2385
-0.2415
-0.244
-0.2255
-0.2375
-0.2425
-0.232
-0.2305
-0.227
-0.201
-0.1805
-0.202
-0.208
-0.229
-0.229
-0.191
-0.2045
-0.2155
-0.218
-0.22
-0.2015
-0.2065
-0.2035
-0.203
-0.2185
-0.2195
-0.212
-0.2165
-0.235
-0.222
-0.1995
-0.1985
-0.206
-0.21
-0.213
-0.2105
-0.2025
-0.207
-0.2165
-0.2225
-0.2235
-0.22
-0.2285
-0.2225
-0.2115
-0.218
-0.2265
-0.23
-0.22
-0.2065
-0.1835
-0.1935
-0.2065
-0.216
-0.2215
-0.1955
-0.2115
-0.2105
-0.2065
-0.2095
-0.1885
-0.201
-0.2195
-0.214
-0.216
-0.2235
-0.212
-0.21
-0.217
-0.224
-0.1995
-0.172
-0.1815
-0.1935
-0.2005
-0.2
-0.199
-0.197
-0.197
-0.1985
-0.199
-0.206
-0.222
-0.2135
-0.2015
-0.204
-0.1965
-0.197
-0.1985
-0.1935
-0.189
-0.191
-0.1875
-0.1855
-0.1845
-0.179
-0.182
-0.1875
-0.189
-0.1855
-0.186
-0.1925
-0.1955
-0.1905
-0.193
-0.184
-0.1695
-0.18
-0.195
-0.1625
-0.143
-0.1725
-0.173
-0.164
-0.146
-0.167
-0.1695
-0.147
-0.1615
-0.145
-0.1375
-0.132
-0.132
-0.118
-0.1175
-0.1535
-0.134
-0.115
-0.1015
-0.0955
-0.1275
-0.136
-0.1185
-0.112
-0.109
-0.107
-0.113
-0.102
-0.0985
-0.103
-0.0935
-0.0985
-0.1
-0.097
-0.094
-0.0845
-0.085
-0.07
-0.06
-0.0585
-0.0575
-0.0715
-0.0875
-0.064
-0.024
-0.0345
-0.0365
-0.038
-0.057
-0.059
-0.0375
-0.0335
-0.03
-0.034
-0.053
-0.021
-0.0275
-0.045
-0.031
-0.0215
-0.0085
-0.0165
-0.0365
-0.0435
-0.033
-0.008
0.016
0.0025
-0.0155
-0.004
0.005
-0.0025
-0.014
-0.011
-0.002
0.005
0.01
0.0095
0.0145
0.0195
0.023
0.012
0.0175
0.0165
0.0185
0.0365
0.026
0.026
0.02
0.014
0.0125
0.005
0.004
-0.004
-0.001
0.0065
0.0115
0.0065
-0.005
0.0025
0.0165
0.022
0.016
0.0025
0.0075
0.0125
0.003
-0.007
-0.015
-0.011
-0.0075
-0.013
-0.0235
-0.026
-0.039
-0.0405
-0.0205
-0.0205
-0.001
0.0075
-0.0235
-0.025
-0.0085
-0.013
-0.0425
-0.043
-0.018
-0.0295
-0.045
-0.054
-0.06
-0.0625
-0.0435
-0.037
-0.0645
-0.0695
-0.047
-0.041
-0.0625
-0.0495
-0.0545
-0.0675
-0.043
-0.0525
-0.056
-0.0525
-0.065
-0.0665
-0.0665
-0.0685
-0.0685
-0.0695
-0.076
-0.0815
-0.0865
-0.0795
-0.0705
-0.077
-0.0805
-0.081
-0.0775
-0.0765
-0.086
-0.0945
-0.0925
-0.095
-0.108
-0.117
-0.13
-0.1215
-0.123
-0.1445
-0.136
-0.121
-0.1265
-0.1345
-0.1085
-0.1025
-0.0925
-0.086
-0.114
-0.118
-0.1205
-0.116
-0.122
-0.118
-0.1195
-0.1175
-0.1135
-0.131
-0.114
-0.107
-0.1155
-0.132
-0.1505
-0.1225
-0.099
-0.11
-0.116
-0.113
-0.1035
-0.103
-0.109
-0.119
-0.108
-0.092
-0.1255
-0.1395
-0.1355
-0.1405
-0.15
-0.1635
-0.1465
-0.129
-0.1265
-0.128
-0.1335
-0.133
-0.123
-0.1115
-0.1145
-0.127
-0.12
-0.1075
-0.118
-0.127
-0.133
-0.1295
-0.12
-0.1315
-0.129
-0.12
-0.121
-0.1135
-0.1175
-0.1325
-0.135
-0.137
-0.146
-0.114
-0.0985
-0.128
-0.109
-0.082
-0.078
-0.0965
-0.1125
-0.1
-0.1055
-0.1105
-0.115
-0.123
-0.1255
-0.1275
-0.1245
-0.1295
-0.115
-0.1045
-0.111
-0.0965
-0.0915
-0.097
-0.091
-0.0995
-0.099
-0.0835
-0.088
-0.103
-0.1065
-0.112
-0.107
-0.1095
-0.102
-0.091
-0.1245
-0.118
-0.106
-0.1045
-0.0875
-0.0855
-0.0885
-0.0995
-0.094
-0.1
-0.1035
-0.0935
-0.1005
-0.0875
-0.1145
-0.131
-0.108
-0.1085
-0.104
-0.108
-0.105
-0.1015
-0.123
-0.142
-0.128
-0.106
-0.0995
-0.109
-0.1135
-0.1075
-0.098
-0.096
-0.0985
-0.0965
-0.106
-0.114
-0.127
-0.142
-0.125
-0.104
-0.124
-0.1385
-0.15
-0.151
-0.126
-0.1095
-0.1175
-0.123
-0.1175
-0.1425
-0.111
-0.0935
-0.119
-0.103
-0.102
-0.105
-0.1145
-0.1245
-0.1365
-0.126
-0.107
-0.111
-0.115
-0.114
-0.1025
-0.1035
-0.113
-0.109
-0.103
-0.1245
-0.125
-0.1175
-0.1295
-0.1215
-0.1125
-0.103
-0.0985
-0.124
-0.1255
-0.1225
-0.1355
-0.101
-0.107
-0.1275
-0.133
-0.1395
-0.129
-0.1305
-0.1055
-0.084
-0.098
-0.0975
-0.0815
-0.088
-0.086
-0.092
-0.1
-0.091
-0.0925
-0.091
-0.0925
-0.0845
-0.0685
-0.0535
-0.044
-0.038
-0.037
-0.039
-0.0335
-0.034
-0.0395
-0.04
-0.0395
-0.0485
-0.0575
-0.055
-0.053
-0.0475
-0.03
-0.0595
-0.0835
-0.066
-0.0885
-0.0955
-0.0775
-0.0575
-0.031
-0.019
-0.0295
-0.0175
-0.0075
-0.042
-0.041
-0.0455
-0.04
-0.0385
-0.0655
-0.0595
-0.091
-0.0885
-0.0675
-0.0815
-0.0735
-0.0805
-0.093
-0.1025
-0.087
-0.082
-0.088
-0.088
-0.09
-0.1005
-0.1115
-0.087
-0.086
-0.104
-0.119
-0.106
-0.1005
-0.1165
-0.1165
-0.116
-0.1205
-0.1225
-0.113
-0.1205
-0.1205
-0.0965
-0.084
-0.089
-0.0965
-0.112
-0.122
-0.134
-0.1345
-0.131
-0.124
-0.103
-0.107
-0.096
-0.094
-0.1205
-0.12
-0.114
-0.1225
-0.1145
-0.105
-0.1055
-0.1065
-0.1095
-0.112
-0.1245
-0.1155
-0.112
-0.127
-0.1215
-0.1245
-0.128
-0.12
-0.131
-0.134
-0.1145
-0.117
-0.1045
-0.103
-0.116
-0.105
-0.1085
-0.106
-0.097
-0.0895
-0.0985
-0.0975
-0.1135
-0.168
-0.159
-0.159
-0.1815
-0.181
-0.2195
-0.2395
-0.231
-0.244
-0.261
-0.263
-0.277
-0.2885
-0.2895
-0.283
-0.258
-0.2575
-0.276
-0.2655
-0.2455
-0.226
-0.2025
-0.178
-0.149
-0.1195
-0.0855
-0.081
-0.036
0.041
0.091
0.14
0.1865
0.234
0.2675
0.2975
0.3285
0.3515
0.3575
0.3625
0.368
0.36
0.367
0.3975
0.3945
0.3855
0.3625
0.3075
0.271
0.242
0.216
0.1845
0.191
0.214
0.2025
0.208
0.222
0.188
0.1405
0.1275
0.113
0.0985
0.089
0.076
0.055
-0.0005
-0.006
-0.0105
-0.0375
-0.0475
-0.0685
-0.07
-0.084
-0.094
-0.11
-0.1635
-0.211
-0.2175
-0.2305
-0.2525
-0.272
-0.3035
-0.327
-0.347
-0.365
-0.3905
-0.404
-0.4235
-0.4265
-0.427
-0.445
-0.4555
-0.472
-0.4815
-0.485
-0.49
-0.5015
-0.4985
-0.506
-0.5265
-0.54
-0.549
-0.559
-0.5495
-0.5335
-0.5455
-0.5415
-0.535
-0.5095
-0.4815
-0.466
-0.4465
-0.449
-0.4385
-0.4255
-0.3885
-0.3435
-0.34
-0.3395
-0.3125
-0.2965
-0.311
-0.292
-0.271
-0.269
-0.2475
-0.2405
-0.2235
-0.206
-0.2145
-0.1945
-0.1825
-0.1805
-0.1865
-0.2015
-0.1785
-0.159
-0.157
-0.1575
-0.1655
-0.1695
-0.1805
-0.179
-0.159
-0.1615
-0.173
-0.1685
-0.157
-0.1485
-0.1595
-0.16
-0.1485
-0.1425
-0.135
-0.1545
-0.179
-0.1645
-0.1485
-0.152
-0.1495
-0.145
-0.1535
-0.1615
-0.146
-0.162
-0.1865
-0.1775
-0.165
-0.16
-0.16
-0.163
-0.151
-0.1415
-0.145
-0.1325
-0.1695
-0.1725
-0.1435
-0.145
-0.1295
-0.144
-0.1545
-0.149
-0.156
-0.1675
-0.1665
-0.162
-0.1575
-0.145
-0.15
-0.1515
-0.1465
-0.1455
-0.136
-0.1235
-0.13
-0.132
-0.136
-0.156
-0.16
-0.171
-0.1545
-0.139
-0.142
-0.1365
-0.1405
-0.1225
-0.119
-0.1165
-0.1055
-0.1225
-0.1475
-0.1425
-0.1165
-0.121
-0.112
-0.103
-0.1285
-0.1435
-0.1375
-0.119
-0.104
-0.107
-0.13
-0.161
-0.1435
-0.1245
-0.133
-0.13
-0.1455
-0.136
-0.108
-0.0895
-0.0975
-0.1075
-0.1015
-0.091
-0.079
-0.1095
-0.117
-0.116
-0.116
-0.109
-0.114
-0.1035
-0.102
-0.1095
-0.108
-0.093
-0.081
-0.088
-0.09
-0.0735
-0.0695
-0.0675
-0.0775
-0.0725
-0.045
-0.0535
-0.065
-0.0685
-0.0615
-0.051
-0.0515
-0.055
-0.0535
-0.0515
-0.062
-0.0525
-0.039
-0.041
-0.031
-0.0205
-0.032
-0.047
-0.0255
0.002
0.017
0.0085
0.0025
0.0135
-0.02
-0.03
-0.0195
-0.0265
-0.0195
0.0115
0.027
-0.0095
-0.034
-0.0165
0.004
0.014
0.0265
0.027
0.0345
0.0415
0.04
0.043
0.0415
0.0365
0.032
0.033
0.022
0.02
0.0275
0.022
0.047
0.0625
0.048
0.0415
0.043
0.0515
0.0605
0.0685
0.0545
0.048
0.054
0.054
0.0525
0.0425
0.023
0.0245
0.04
0.0275
0.039
0.0595
0.068
0.065
0.0595
0.0585
0.077
0.083
0.0315
0.024
0.044
0.053
0.0535
0.022
0.026
0.0365
0.019
0.013
0.02
0.0415
0.036
0.025
0.0175
0.007
0.013
-0.0005
-0.0035
0.0145
0.0115
0.005
0.0105
0.0165
0.028
0.0155
0.005
0.016
0.004
-0.006
-0.013
-0.0295
-0.013
-0.0065
-0.015
-0.0025
-0.0115
-0.007
0.005
0.0055
-0.0055
-0.0065
0.0145
-0.003
-0.0125
-0.0285
-0.044
-0.0215
-0.0205
-0.035
-0.0435
-0.043
-0.0185
-0.0185
-0.0435
-0.0515
-0.052
-0.0485
-0.051
-0.054
-0.0495
-0.0365
-0.0415
-0.0465
-0.0575
-0.0655
-0.058
-0.0635
-0.053
-0.058
-0.073
-0.073
-0.0705
-0.068
-0.0685
-0.0625
-0.0575
-0.0445
-0.0555
-0.0765
-0.074
-0.077
-0.0645
-0.0585
-0.0815
-0.1125
-0.0905
-0.067
-0.096
-0.096
-0.0955
-0.08
-0.0685
-0.0845
-0.0815
-0.0935
-0.108
-0.084
-0.0775
-0.0835
-0.089
-0.093
-0.089
-0.0695
-0.0645
-0.093
-0.093
-0.103
-0.0995
-0.091
-0.1025
-0.097
-0.0895
-0.0895
-0.1
-0.097
-0.091
-0.0825
-0.0725
-0.0755
-0.078
-0.084
-0.09
-0.089
-0.0815
-0.096
-0.099
-0.075
-0.089
-0.114
-0.1135
-0.1025
-0.0905
-0.09
-0.0855
-0.0955
-0.104
-0.079
-0.0795
-0.072
-0.0665
-0.094
-0.092
-0.0645
-0.0615
-0.07
-0.0835
-0.096
-0.082
-0.093
-0.0885
-0.0925
-0.099
-0.073
-0.066
-0.0655
-0.0795
-0.072
-0.0665
-0.074
-0.07
-0.069
-0.0725
-0.075
-0.072
-0.0785
-0.082
-0.081
-0.083
-0.0865
-0.087
-0.0865
-0.095
-0.0885
-0.0855
-0.0795
-0.0775
-0.0915
-0.0825
-0.0885
-0.0945
-0.0865
-0.084
-0.062
-0.049
-0.074
-0.0975
-0.1035
-0.1
-0.0905
-0.086
-0.0805
-0.103
-0.1355
-0.153
-0.114
-0.066
-0.087
-0.094
-0.0905
-0.114
-0.133
-0.086
-0.0435
-0.0665
-0.08
-0.084
-0.093
-0.0975
-0.1025
-0.103
-0.096
-0.0895
-0.095
-0.1055
-0.101
-0.102
-0.101
-0.096
-0.095
-0.0955
-0.098
-0.1045
-0.104
-0.1015
-0.1065
-0.107
-0.1085
-0.113
-0.098
-0.1035
-0.135
-0.119
-0.108
-0.121
-0.126
-0.121
-0.1165
-0.116
-0.103
-0.0965
-0.1
-0.102
-0.097
-0.0985
-0.088
-0.0835
-0.105
-0.103
-0.098
-0.1065
-0.1035
-0.0955
-0.1095
-0.1165
-0.1105
-0.107
-0.0885
-0.0915
-0.091
-0.081
-0.084
-0.096
-0.1005
-0.095
-0.097
-0.094
-0.097
-0.1105
-0.11
-0.096
-0.1035
-0.105
-0.094
-0.0945
-0.0895
-0.0795
-0.0735
-0.0695
-0.0655
-0.046
-0.047
-0.076
-0.064
-0.039
-0.054
-0.075
-0.077
-0.0735
-0.0545
-0.045
-0.0575
-0.051
-0.045
-0.06
-0.063
-0.0565
-0.042
-0.036
-0.0485
-0.046
-0.053
-0.061
-0.062
-0.0685
-0.072
-0.0685
-0.047
-0.059
-0.0635
-0.051
-0.0605
-0.0455
-0.0505
-0.0525
-0.039
-0.03
-0.033
-0.0465
-0.0485
-0.053
-0.059
-0.0695
-0.0765
-0.079
-0.0855
-0.084
-0.0645
-0.097
-0.142
-0.142
-0.1335
-0.127
-0.125
-0.1325
-0.131
-0.115
-0.1195
-0.1215
-0.123
-0.1225
-0.123
-0.1375
-0.14
-0.1405
-0.141
-0.147
-0.1405
-0.1495
-0.1605
-0.1395
-0.166
-0.176
-0.158
-0.163
-0.165
-0.167
-0.1635
-0.159
-0.156
-0.155
-0.158
-0.1645
-0.159
-0.1565
-0.166
-0.1705
-0.17
-0.169
-0.174
-0.185
-0.1725
-0.171
-0.185
-0.18
-0.1725
-0.1575
-0.1615
-0.166
-0.1715
-0.179
-0.1675
-0.1575
-0.1625
-0.1715
-0.168
-0.1645
-0.159
-0.156
-0.159
-0.168
-0.1685
-0.172
-0.1835
-0.173
-0.17
-0.1805
-0.1835
-0.179
-0.1955
-0.241
-0.2605
-0.264
-0.2485
-0.2415
-0.281
-0.313
-0.311
-0.308
-0.3145
-0.3235
-0.3135
-0.2885
-0.2985
-0.2745
-0.249
-0.2165
-0.159
-0.152
-0.1335
-0.0965
-0.07
-0.0515
-0.001
0.0495
0.0895
0.1465
0.196
0.232
0.2675
0.3175
0.338
0.343
0.35
0.3625
0.367
0.3495
0.353
0.344
0.331
0.341
0.291
0.237
0.2265
0.192
0.161
0.155
0.1435
0.1335
0.136
0.1295
0.125
0.1015
0.079
0.079
0.082
0.0725
0.054
0.041
0.0175
0.014
-0.0065
-0.0485
-0.0805
-0.083
-0.06
-0.084
-0.1165
-0.1495
-0.177
-0.177
-0.2205
-0.2645
-0.283
-0.312
-0.3305
-0.352
-0.372
-0.387
-0.4025
-0.4345
-0.4585
-0.453
-0.4655
-0.487
-0.5025
-0.5215
-0.5365
-0.546
-0.558
-0.5655
-0.569
-0.574
-0.5945
-0.623
-0.624
-0.6155
-0.581
-0.57
-0.588
-0.5905
-0.595
-0.5555
-0.5155
-0.492
-0.477
-0.4825
-0.446
-0.4275
-0.4215
-0.4035
-0.387
-0.366
-0.3695
-0.3495
-0.323
-0.3255
-0.314
-0.2825
-0.2655
-0.245
-0.243
-0.245
-0.234
-0.2485
-0.244
-0.2345
-0.2285
-0.2245
-0.2325
-0.229
-0.2355
-0.2295
-0.2255
-0.2105
-0.1915
-0.2065
-0.206
-0.198
-0.1905
-0.1925
-0.197
-0.209
-0.2035
-0.19
-0.217
-0.2165
-0.204
-0.2055
-0.211
-0.2225
-0.2135
-0.204
-0.216
-0.209
-0.212
-0.2175
-0.188
-0.174
-0.16
-0.1665
-0.18
-0.176
-0.177
-0.178
-0.1785
-0.181
-0.1865
-0.1885
-0.1875
-0.1905
-0.197
-0.1855
-0.1895
-0.195
-0.185
-0.184
-0.176
-0.1645
-0.183
-0.1895
-0.171
-0.1895
-0.203
-0.201
-0.197
-0.1975
-0.201
-0.1995
-0.204
-0.203
-0.1965
-0.2025
-0.2175
-0.2025
-0.1895
-0.185
-0.184
-0.185
-0.181
-0.1845
-0.2005
-0.2065
-0.158
-0.17
-0.2135
-0.202
-0.207
-0.21
-0.2165
-0.233
-0.197
-0.1705
-0.2045
-0.2075
-0.186
-0.1735
-0.1585
-0.1605
-0.1615
-0.159
-0.158
-0.1375
-0.1565
-0.189
-0.168
-0.16
-0.172
-0.172
-0.1655
-0.164
-0.1655
-0.162
-0.1715
-0.166
-0.158
-0.1565
-0.153
-0.1465
-0.136
-0.142
-0.1465
-0.1435
-0.1375
-0.142
-0.144
-0.1345
-0.1335
-0.1285
-0.1325
-0.1435
-0.1385
-0.127
-0.1175
-0.1015
-0.108
-0.1185
-0.102
-0.0895
-0.085
-0.081
-0.0785
-0.0865
-0.0805
-0.0785
-0.0855
-0.0685
-0.0745
-0.07
-0.0625
-0.085
-0.083
-0.0785
-0.103
-0.0765
-0.037
-0.059
-0.0375
-0.0485
-0.0685
-0.0215
-0.0135
-0.037
-0.047
-0.0345
-0.017
-0.0125
-0.0165
-0.0255
-0.026
-0.0325
-0.0375
-0.0185
-0.009
0.0005
0.0145
0.0225
0.0265
0.0225
0.0165
0.003
0.004
0.023
0.024
0.014
-0.011
-0.014
0.0235
0.018
0.005
0.0195
0.0285
0.0215
0.0105
0.0275
0.0295
0.0165
0.013
0.024
0.0475
0.041
0.0365
0.0295
0.0165
0.0145
0.0105
0.019
0.026
0.0235
0.022
0.0135
0.01
0.011
0.01
0.0185
0.015
0.011
0.013
0.0135
0.0135
0.017
0.0185
0.01
0.0195
0.0045
-0.0135
-0.007
-0.0085
-0.0205
-0.04
-0.0475
-0.0335
-0.047
-0.081
-0.045
-0.0165
-0.0345
-0.0155
-0.01
-0.0485
-0.0405
-0.032
-0.0465
-0.03
-0.0195
-0.0295
-0.051
-0.067
-0.058
-0.0505
-0.077
-0.075
-0.0705
-0.103
-0.0985
-0.08
-0.081
-0.0735
-0.0755
-0.0675
-0.071
-0.076
-0.0705
-0.088
-0.091
-0.08
-0.0805
-0.101
-0.105
-0.1015
-0.1045
-0.1005
-0.1125
-0.1205
-0.111
-0.1195
-0.121
-0.1045
-0.1035
-0.107
-0.1095
-0.113
-0.109
-0.1065
-0.1195
-0.12
-0.1205
-0.128
-0.1295
-0.133
-0.135
-0.1335
-0.136
-0.1475
-0.141
-0.1445
-0.1475
-0.13
-0.121
-0.12
-0.122
-0.129
-0.131
-0.1245
-0.132
-0.133
-0.1425
-0.1475
-0.134
-0.1355
-0.142
-0.151
-0.15
-0.1545
-0.146
-0.1265
-0.1355
-0.1365
-0.137
-0.147
-0.1445
-0.1375
-0.126
-0.128
-0.139
-0.127
-0.1315
-0.124
-0.1125
-0.156
-0.1635
-0.149
-0.1495
-0.16
-0.1725
-0.138
-0.1105
-0.1255
-0.1325
-0.12
-0.122
-0.1325
-0.138
-0.1275
-0.135
-0.1445
-0.118
-0.1135
-0.1345
-0.15
-0.1605
-0.152
-0.1405
-0.1405
-0.1355
-0.1435
-0.153
-0.1405
-0.1305
-0.1335
-0.132
-0.1395
-0.141
-0.119
-0.1145
-0.126
-0.1305
-0.1315
-0.1315
-0.135
-0.129
-0.1265
-0.138
-0.1275
-0.117
-0.1215
-0.1315
-0.1345
-0.1255
-0.118
-0.1005
-0.1055
-0.106
-0.107
-0.134
-0.135
-0.1185
-0.11
-0.1315
-0.1515
-0.143
-0.1255
-0.128
-0.147
-0.136
-0.1225
-0.104
-0.1125
-0.1315
-0.127
-0.146
-0.115
-0.088
-0.111
-0.1225
-0.1335
-0.1085
-0.098
-0.118
-0.1085
-0.129
-0.132
-0.105
-0.119
-0.113
-0.108
-0.112
-0.1155
-0.1435
-0.13
-0.094
-0.086
-0.0785
-0.0885
-0.104
-0.105
-0.104
-0.1005
-0.1075
-0.1235
-0.119
-0.1125
-0.114
-0.105
-0.1075
-0.1205
-0.1175
-0.098
-0.0985
-0.1145
-0.0885
-0.066
-0.086
-0.0895
-0.065
-0.0865
-0.105
-0.088
-0.108
-0.106
-0.088
-0.09
-0.0955
-0.0965
-0.1055
-0.1075
-0.086
-0.0955
-0.092
-0.0715
-0.073
-0.0875
-0.1
-0.094
-0.085
-0.08
-0.088
-0.1025
-0.102
-0.0975
-0.099
-0.0955
-0.1005
-0.1005
-0.084
-0.0785
-0.092
-0.0845
-0.072
-0.086
-0.0805
-0.071
-0.0745
-0.0735
-0.086
-0.0955
-0.099
-0.105
-0.0915
-0.086
-0.0945
-0.0785
-0.067
-0.077
-0.089
-0.096
-0.081
-0.0765
-0.086
-0.1015
-0.108
-0.1065
-0.0965
-0.059
-0.052
-0.0585
-0.0635
-0.064
-0.039
-0.05
-0.0725
-0.054
-0.0495
-0.0545
-0.0435
-0.0485
-0.055
-0.0505
-0.051
-0.0595
-0.0525
-0.0495
-0.0455
-0.05
-0.0795
-0.0745
-0.0695
-0.072
-0.064
-0.07
-0.077
-0.083
-0.07
-0.0635
-0.062
-0.0325
-0.022
-0.0345
-0.0435
-0.048
-0.057
-0.068
-0.086
-0.068
-0.053
-0.074
-0.088
-0.098
-0.097
-0.105
-0.1225
-0.127
-0.1
-0.0925
-0.1055
-0.109
-0.1145
-0.108
-0.109
-0.1115
-0.1125
-0.122
-0.116
-0.12
-0.136
-0.135
-0.142
-0.1505
-0.153
-0.1625
-0.1725
-0.1735
-0.1655
-0.1605
-0.161
-0.1585
-0.158
-0.157
-0.1545
-0.1515
-0.155
-0.1635
-0.1555
-0.159
-0.164
-0.1555
-0.162
-0.166
-0.169
-0.1715
-0.1745
-0.1755
-0.1745
-0.176
-0.174
-0.1765
-0.1755
-0.157
-0.1495
-0.157
-0.1605
-0.1655
-0.158
-0.156
-0.161
-0.163
-0.1625
-0.1635
-0.163
-0.1565
-0.1505
-0.1645
-0.1845
-0.168
-0.169
-0.163
-0.157
-0.177
-0.19
-0.181
-0.1575
-0.181
-0.2045
-0.209
-0.2345
-0.244
-0.255
-0.282
-0.2945
-0.3155
-0.327
-0.308
-0.325
-0.3485
-0.3395
-0.329
-0.33
-0.338
-0.312
-0.2715
-0.251
-0.2395
-0.2075
-0.176
-0.1535
-0.1145
-0.0825
-0.052
-0.03
0.0035
0.0695
0.1385
0.183
0.222
0.2625
0.2985
0.329
0.3455
0.3565
0.3585
0.367
0.361
0.3525
0.344
0.3495
0.332
0.288
0.253
0.207
0.175
0.1465
0.1245
0.109
0.124
0.1435
0.153
0.147
0.109
0.091
0.1075
0.1015
0.076
0.064
0.033
0.008
0.0165
-0.015
-0.0675
-0.0835
-0.1045
-0.1225
-0.133
-0.152
-0.16
-0.1715
-0.194
-0.2125
-0.2325
-0.2735
-0.328
-0.3105
-0.3215
-0.398
-0.4255
-0.4385
-0.449
-0.464
-0.4825
-0.4885
-0.506
-0.557
-0.585
-0.565
-0.5555
-0.557
-0.571
-0.584
-0.597
-0.6215
-0.622
-0.6165
-0.616
-0.6275
-0.6165
-0.578
-0.586
-0.595
-0.5805
-0.556
-0.529
-0.512
-0.4905
-0.4755
-0.4525
-0.4255
-0.4365
-0.413
-0.3545
-0.345
-0.3335
-0.3135
-0.3185
-0.3205
-0.3105
-0.2965
-0.289
-0.286
-0.2765
-0.2745
-0.266
-0.2655
-0.2675
-0.267
-0.259
-0.2475
-0.258
-0.257
-0.2495
-0.224
-0.209
-0.221
-0.234
-0.239
-0.226
-0.2305
-0.2255
-0.215
-0.215
-0.1975
-0.216
-0.2435
-0.241
-0.239
-0.2275
-0.231
-0.238
-0.2215
-0.2265
-0.2285
-0.219
-0.206
-0.196
-0.22
-0.2325
-0.2105
-0.2025
-0.236
-0.2425
-0.225
-0.223
-0.2355
-0.2475
-0.252
-0.251
-0.217
-0.2195
-0.2375
-0.224
-0.2375
-0.2515
-0.2325
-0.2135
-0.2125
-0.2295
-0.236
-0.237
-0.254
-0.2415
-0.2195
-0.2305
-0.2445
-0.248
-0.2425
-0.234
-0.2425
-0.237
-0.2095
-0.216
-0.2295
-0.2275
-0.229
-0.2345
-0.226
-0.2245
-0.2335
-0.229
-0.24
-0.2355
-0.2235
-0.2335
-0.231
-0.2285
-0.224
-0.221
-0.227
-0.2335
-0.231
-0.224
-0.218
-0.184
-0.1815
-0.2135
-0.2105
-0.2135
-0.214
-0.206
-0.216
-0.2175
-0.228
-0.235
-0.228
-0.224
-0.2195
-0.2145
-0.206
-0.199
-0.208
-0.2035
-0.2
-0.1935
-0.1685
-0.1685
-0.1565
-0.1835
-0.213
-0.1945
-0.1745
-0.167
-0.168
-0.1705
-0.165
-0.167
-0.168
-0.123
-0.1335
-0.1485
-0.1325
-0.1315
-0.115
-0.106
-0.0995
-0.0945
-0.0975
-0.113
-0.1225
-0.1105
-0.107
-0.1095
-0.0935
-0.097
-0.105
-0.0985
-0.0955
-0.0825
-0.07
-0.0535
-0.058
-0.0705
-0.0595
-0.068
-0.083
-0.071
-0.0565
-0.045
-0.0525
-0.0645
-0.053
-0.0395
-0.0545
-0.066
-0.025
-0.019
-0.047
-0.044
-0.042
-0.034
-0.0135
-0.002
-0.0075
-0.006
-0.0015
-0.005
-0.0055
-0.02
-0.015
-0.0155
-0.0425
-0.012
0.0215
-0.0135
-0.032
-0.018
-0.0215
-0.013
0.0055
-0.0235
-0.0325
-0.0105
-0.01
0.017
0.021
0.0085
0.012
0.0035
0.0015
-0.0065
-0.009
-0.008
-0.0165
-0.0185
-0.022
-0.0155
-0.013
-0.017
-0.013
-0.017
-0.0255
-0.0195
-0.0035
-0.0325
-0.034
0.017
0.0215
-0.0185
-0.043
-0.0385
-0.0665
-0.058
-0.0105
-0.034
-0.059
-0.0405
-0.0285
-0.0285
-0.035
-0.036
-0.035
-0.037
-0.0375
-0.02
-0.022
-0.062
-0.0615
-0.0595
-0.0635
-0.0565
-0.0835
-0.1125
-0.0875
-0.062
-0.078
-0.0815
-0.0895
-0.0915
-0.086
-0.073
-0.0655
-0.0695
-0.0725
-0.082
-0.08
-0.08
-0.0875
-0.1095
-0.096
-0.096
-0.1185
-0.1005
-0.1005
-0.105
-0.092
-0.091
-0.079
-0.1025
-0.1355
-0.1145
-0.119
-0.1175
-0.118
-0.1205
-0.116
-0.1145
-0.1015
-0.1155
-0.1105
-0.0905
-0.117
-0.127
-0.1175
-0.138
-0.126
-0.1105
-0.1215
-0.1195
-0.1195
-0.121
-0.1145
-0.1145
-0.1125
-0.1175
-0.1225
-0.1105
-0.1035
-0.106
-0.1035
-0.106
-0.143
-0.1475
-0.133
-0.137
-0.135
-0.143
-0.145
-0.147
-0.1405
-0.131
-0.1255
-0.1235
-0.1325
-0.133
-0.1405
-0.1345
-0.135
-0.167
-0.1785
-0.1525
-0.141
-0.177
-0.1815
-0.158
-0.171
-0.165
-0.15
-0.153
-0.146
-0.1535
-0.156
-0.1445
-0.1245
-0.1305
-0.158
-0.168
-0.155
-0.1345
-0.143
-0.152
-0.1665
-0.1855
-0.179
-0.171
-0.164
-0.1615
-0.1615
-0.1595
-0.163
-0.158
-0.1525
-0.149
-0.1475
-0.1475
-0.1435
-0.1355
-0.131
-0.1465
-0.1525
-0.148
-0.15
-0.1565
-0.1575
-0.1595
-0.1575
-0.1475
-0.1435
-0.1405
-0.147
-0.1585
-0.1525
-0.1405
-0.1395
-0.1445
-0.15
-0.148
-0.149
-0.16
-0.153
-0.125
-0.134
-0.165
-0.1695
-0.161
-0.1425
-0.147
-0.1595
-0.151
-0.1435
-0.1525
-0.138
-0.1065
-0.1405
-0.151
-0.1475
-0.1685
-0.1605
-0.143
-0.128
-0.144
-0.149
-0.1505
-0.154
-0.145
-0.1565
-0.158
-0.1475
-0.142
-0.167
-0.1665
-0.139
-0.132
-0.1325
-0.1375
-0.146
-0.145
-0.1385
-0.152
-0.158
-0.182
-0.1495
-0.1145
-0.152
-0.166
-0.157
-0.151
-0.1605
-0.161
-0.1435
-0.12
-0.136
-0.1715
-0.1615
-0.13
-0.1035
-0.109
-0.1525
-0.1735
-0.1625
-0.1305
-0.1205
-0.144
-0.154
-0.1575
-0.1445
-0.146
-0.151
-0.149
-0.1455
-0.13
-0.1385
-0.1345
-0.1205
-0.113
-0.114
-0.1105
-0.107
-0.1175
-0.127
-0.1515
-0.1535
-0.133
-0.129
-0.1435
-0.137
-0.117
-0.1165
-0.1195
-0.1195
-0.112
-0.1055
-0.1005
-0.0935
-0.103
-0.11
-0.0985
-0.091
-0.0915
-0.117
-0.131
-0.135
-0.1255
-0.1195
-0.148
-0.1515
-0.147
-0.124
-0.1075
-0.113
-0.0985
-0.092
-0.1045
-0.126
-0.0905
-0.056
-0.082
-0.087
-0.0915
-0.0545
-0.0625
-0.087
-0.0505
-0.0645
-0.068
-0.0715
-0.0625
-0.047
-0.051
-0.0435
-0.0405
-0.037
-0.034
-0.05
-0.0455
-0.028
-0.0375
-0.0435
-0.061
-0.074
-0.0835
-0.0595
-0.0545
-0.0745
-0.079
-0.0945
-0.0765
-0.0735
-0.0725
-0.063
-0.0565
-0.046
-0.0585
-0.0565
-0.0365
-0.045
-0.0535
-0.0435
-0.052
-0.0615
-0.071
-0.0855
-0.092
-0.102
-0.117
-0.116
-0.1015
-0.1055
-0.112
-0.1185
-0.12
-0.1185
-0.13
-0.127
-0.1095
-0.112
-0.124
-0.1135
-0.114
-0.1245
-0.126
-0.117
-0.1095
-0.1365
-0.1695
-0.1715
-0.16
-0.154
-0.158
-0.183
-0.1845
-0.152
-0.14
-0.1365
-0.1325
-0.156
-0.1535
-0.121
-0.1185
-0.1395
-0.167
-0.164
-0.148
-0.1435
-0.1545
-0.155
-0.1275
-0.1545
-0.167
-0.1505
-0.1555
-0.141
-0.1325
-0.143
-0.1325
-0.112
-0.12
-0.1215
-0.158
-0.1615
-0.1375
-0.159
-0.16
-0.1515
-0.1495
-0.145
-0.1535
-0.1725
-0.1595
-0.158
-0.1525
-0.1325
-0.1375
-0.1405
-0.144
-0.158
-0.1665
-0.1665
-0.1835
-0.1985
-0.215
-0.2415
-0.2525
-0.2795
-0.291
-0.2975
-0.314
-0.3365
-0.3505
-0.359
-0.392
-0.3385
-0.276
-0.283
-0.2905
-0.272
-0.245
-0.233
-0.211
-0.183
-0.144
-0.1155
-0.1075
-0.0735
-0.0085
0.033
0.0635
0.1325
0.1885
0.242
0.295
0.331
0.3415
0.343
0.386
0.379
0.3495
0.3655
0.3795
0.3665
0.3605
0.34
0.302
0.273
0.21
0.177
0.169
0.1575
0.1715
0.183
0.1895
0.1975
0.1865
0.1585
0.1375
0.1255
0.122
0.109
0.086
0.0575
0.0215
-0.0035
-0.027
-0.0395
-0.0455
-0.0615
-0.093
-0.107
-0.1105
-0.144
-0.17
-0.203
-0.2215
-0.2355
-0.2625
-0.2795
-0.2995
-0.3225
-0.356
-0.373
-0.3995
-0.4255
-0.4465
-0.486
-0.4835
-0.468
-0.4995
-0.525
-0.524
-0.5335
-0.529
-0.54
-0.5565
-0.5595
-0.5655
-0.5645
-0.5835
-0.607
-0.619
-0.609
-0.579
-0.5635
-0.5705
-0.57
-0.554
-0.527
-0.4725
-0.4525
-0.475
-0.489
-0.46
-0.405
-0.3845
-0.377
-0.3575
-0.339
-0.333
-0.3205
-0.316
-0.3105
-0.2965
-0.2875
-0.2725
-0.2655
-0.2515
-0.2375
-0.238
-0.2355
-0.2305
-0.2235
-0.217
-0.206
-0.211
-0.2095
-0.194
-0.196
-0.1905
-0.2
-0.2095
-0.2115
-0.2295
-0.2145
-0.1925
-0.191
-0.204
-0.202
-0.1855
-0.192
-0.2055
-0.195
-0.1635
-0.18
-0.1965
-0.1885
-0.1885
-0.1925
-0.208
-0.189
-0.1655
-0.188
-0.1925
-0.198
-0.211
-0.206
-0.209
-0.196
-0.195
-0.1975
-0.2
-0.1845
-0.194
-0.238
-0.212
-0.1875
-0.1865
-0.1765
-0.1735
-0.194
-0.2125
-0.1955
-0.1825
-0.1905
-0.1955
-0.207
-0.22
-0.198
-0.1775
-0.1865
-0.194
-0.1855
-0.1885
-0.2
-0.182
-0.1715
-0.191
-0.199
-0.182
-0.175
-0.1765
-0.188
-0.21
-0.201
-0.164
-0.178
-0.213
-0.177
-0.1815
-0.1985
-0.165
-0.175
-0.1735
-0.176
-0.193
-0.172
-0.1725
-0.1675
-0.1695
-0.1875
-0.184
-0.1885
-0.188
-0.1885
-0.191
-0.19
-0.18
-0.162
-0.163
-0.1665
-0.158
-0.1625
-0.1555
-0.1395
-0.137
-0.1155
-0.117
-0.124
-0.089
-0.107
-0.148
-0.141
-0.123
-0.121
-0.12
-0.11
-0.121
-0.13
-0.1245
-0.121
-0.1235
-0.147
-0.1375
-0.092
-0.1025
-0.0915
-0.06
-0.0735
-0.0685
-0.0635
-0.0835
-0.08
-0.071
-0.086
-0.066
-0.0565
-0.0615
-0.0515
-0.0555
-0.0535
-0.0395
-0.022
-0.03
-0.0375
-0.0215
-0.0235
-0.0375
-0.018
-0.0005
-0.012
-0.02
-0.0255
-0.017
-0.0095
-0.0125
-0.018
-0.02
-0.0135
-0.019
0.0005
0.0075
0.001
0.0045
0.001
0.0115
0.015
0.0205
0.0145
0.0205
0.018
-0.002
0.009
0.0195
0.015
0.0115
0.0215
0.0195
0.019
0.026
0.004
0.021
0.0495
0.046
0.031
0.02
0.02
0.038
0.08
0.052
0.026
0.0415
0.0355
0.041
0.031
0.003
0.0185
0.035
0.0355
0.0515
0.0205
0.0015
0.026
0.027
0.0275
0.025
0.032
0.0575
0.034
0.025
0.027
0.01
0.014
0.0065
0.0035
0.0045
-0.0035
-0.003
0.012
0.0125
0.012
0.0145
0.0065
0.0045
0.0035
0.008
0.0205
0.0135
0.0045
0.004
-0.013
-0.0015
-0.0075
-0.023
-0.013
-0.0115
-0.019
-0.013
-0.004
-0.015
-0.009
-0.0195
-0.018
-0.006
-0.017
-0.025
-0.0345
-0.0215
-0.014
-0.0185
-0.013
-0.0225
-0.0325
-0.041
-0.0395
-0.0275
-0.0355
-0.0435
-0.0355
-0.0285
-0.035
-0.047
-0.0585
-0.0455
-0.0285
-0.056
-0.0655
-0.0545
-0.0595
-0.057
-0.048
-0.0405
-0.0605
-0.0705
-0.077
-0.0815
-0.0735
-0.0845
-0.067
-0.0665
-0.0575
-0.033
-0.057
-0.0745
-0.092
-0.1035
-0.0995
-0.0945
-0.102
-0.113
-0.0785
-0.069
-0.082
-0.098
-0.102
-0.083
-0.0965
-0.101
-0.101
-0.115
-0.108
-0.0925
-0.0895
-0.084
-0.08
-0.0905
-0.086
-0.076
-0.0845
-0.09
-0.0875
-0.081
-0.079
-0.082
-0.093
-0.112
-0.0995
-0.079
-0.091
-0.101
-0.096
-0.083
-0.079
-0.08
-0.064
-0.061
-0.075
-0.071
-0.073
-0.0665
-0.05
-0.064
-0.0775
-0.078
-0.0755
-0.081
-0.091
-0.0955
-0.0835
-0.0765
-0.0765
-0.071
-0.07
-0.0715
-0.065
-0.062
-0.069
-0.0725
-0.0795
-0.0685
-0.0555
-0.046
-0.0505
-0.062
-0.0705
-0.108
-0.1105
-0.0615
-0.045
-0.0645
-0.0635
-0.051
-0.045
-0.054
-0.063
-0.057
-0.064
-0.043
-0.0185
-0.0375
-0.0465
-0.055
-0.066
-0.067
-0.062
-0.0515
-0.0455
-0.048
-0.0455
-0.075
-0.091
-0.0675
-0.08
-0.056
-0.032
-0.04
-0.0535
-0.067
-0.053
-0.0545
-0.0445
-0.0345
-0.0445
-0.0485
-0.0575
-0.059
-0.061
-0.0715
-0.0735
-0.0735
-0.077
-0.075
-0.0875
-0.0975
-0.069
-0.0555
-0.0515
-0.0415
-0.0565
-0.061
-0.0425
-0.047
-0.049
-0.046
-0.082
-0.0715
-0.035
-0.038
-0.0355
-0.053
-0.061
-0.055
-0.064
-0.0655
-0.08
-0.078
-0.0685
-0.0715
-0.0665
-0.051
-0.058
-0.072
-0.0595
-0.0655
-0.0715
-0.0735
-0.081
-0.076
-0.0745
-0.088
-0.084
-0.065
-0.0615
-0.057
-0.0595
-0.07
-0.0735
-0.0825
-0.077
-0.062
-0.0675
-0.071
-0.072
-0.0755
-0.078
-0.0785
-0.0745
-0.075
-0.0765
-0.073
-0.058
-0.0535
-0.062
-0.058
-0.063
-0.062
-0.049
-0.028
-0.0025
-0.0335
-0.074
-0.1065
-0.113
-0.065
-0.0595
-0.085
-0.093
-0.1035
-0.078
-0.053
-0.0605
-0.0625
-0.044
-0.034
-0.057
-0.043
-0.025
-0.0145
-0.0005
-0.0075
-0.0215
-0.0155
-0.0115
-0.013
-0.0165
-0.0235
-0.0095
-0.016
-0.0095
-0.0175
-0.0245
-0.02
-0.026
-0.031
-0.0265
-0.004
-0.022
-0.0335
-0.027
-0.0255
-0.0215
-0.0295
-0.0305
-0.0125
0.0
-0.0135
-0.0095
0.0
-0.0005
-0.009
-0.036
-0.049
-0.047
-0.032
-0.0155
-0.0245
-0.0305
-0.0545
-0.079
-0.0385
-0.031
-0.056
-0.0735
-0.0795
-0.076
-0.1065
-0.123
-0.112
-0.1025
-0.088
-0.089
-0.106
-0.106
-0.1085
-0.0935
-0.086
-0.0935
-0.096
-0.116
-0.095
-0.0885
-0.1065
-0.098
-0.1395
-0.1515
-0.1175
-0.1375
-0.1405
-0.11
-0.1055
-0.1065
-0.1015
-0.1125
-0.129
-0.119
-0.1115
-0.1035
-0.091
-0.103
-0.115
-0.143
-0.1345
-0.1105
-0.1285
-0.1335
-0.124
-0.1305
-0.1405
-0.134
-0.145
-0.1205
-0.118
-0.1455
-0.134
-0.1275
-0.117
-0.1185
-0.1275
-0.12
-0.11
-0.122
-0.1245
-0.115
-0.1225
-0.1525
-0.1535
-0.14
-0.1505
-0.1525
-0.167
-0.177
-0.1695
-0.169
-0.188
-0.203
-0.2065
-0.2155
-0.2205
-0.241
-0.2805
-0.303
-0.3015
-0.316
-0.314
-0.3085
-0.3195
-0.3065
-0.281
-0.2625
-0.252
-0.22
-0.1755
-0.1535
-0.1265
-0.114
-0.1005
-0.007
0.048
0.076
0.112
0.138
0.192
0.2125
0.244
0.2925
0.321
0.3415
0.351
0.3525
0.353
0.3615
0.371
0.3645
0.3555
0.3395
0.287
0.239
0.227
0.2125
0.183
0.1655
0.164
0.175
0.1875
0.176
0.168
0.138
0.1045
0.1
0.077
0.0855
0.082
0.0435
0.0185
0.006
-0.0095
-0.0335
-0.0425
-0.047
-0.0395
-0.072
-0.123
-0.142
-0.177
-0.209
-0.2355
-0.262
-0.2735
-0.2765
-0.2985
-0.331
-0.356
-0.379
-0.3935
-0.4045
-0.4155
-0.425
-0.4345
-0.4415
-0.4785
-0.5235
-0.5135
-0.522
-0.5505
-0.565
-0.575
-0.5785
-0.584
-0.5945
-0.607
-0.6025
-0.614
-0.586
-0.5615
-0.5715
-0.557
-0.554
-0.578
-0.5455
-0.4665
-0.461
-0.468
-0.449
-0.4365
-0.429
-0.3995
-0.3855
-0.386
-0.3715
-0.3605
-0.329
-0.3115
-0.298
-0.28
-0.2705
-0.248
-0.2335
-0.227
-0.2225
-0.2355
-0.2445
-0.2325
-0.2335
-0.2335
-0.2265
-0.234
-0.2295
-0.2095
-0.2135
-0.218
-0.211
-0.217
-0.213
-0.2095
-0.21
-0.2095
-0.202
-0.205
-0.2025
-0.176
-0.166
-0.1715
-0.182
-0.176
-0.1995
-0.2235
-0.2105
-0.2085
-0.1675
-0.156
-0.175
-0.1825
-0.196
-0.196
-0.1945
-0.165
-0.1655
-0.174
-0.1685
-0.17
-0.1685
-0.179
-0.1855
-0.1925
-0.19
-0.165
-0.152
-0.172
-0.1895
-0.187
-0.1885
-0.192
-0.179
-0.1695
-0.1585
-0.163
-0.1725
-0.169
-0.1655
-0.17
-0.1805
-0.1795
-0.195
-0.1835
-0.1635
-0.1685
-0.18
-0.1825
-0.186
-0.196
-0.1775
-0.178
-0.1865
-0.1815
-0.168
-0.159
-0.156
-0.15
-0.16
-0.1635
-0.176
-0.183
-0.211
-0.212
-0.155
-0.1415
-0.144
-0.1695
-0.1805
-0.18
-0.1795
-0.168
-0.166
-0.161
-0.152
-0.1495
-0.156
-0.157
-0.16
-0.152
-0.1545
-0.1565
-0.1545
-0.1545
-0.145
-0.1575
-0.166
-0.1615
-0.1545
-0.146
-0.1465
-0.1485
-0.132
-0.114
-0.1155
-0.096
-0.0815
-0.12
-0.1425
-0.1155
-0.096
-0.0945
-0.104
-0.109
-0.1175
-0.1025
-0.0905
-0.1055
-0.1105
-0.1235
-0.107
-0.082
-0.074
-0.071
-0.0605
-0.0535
-0.055
-0.069
-0.07
-0.0575
-0.072
-0.055
-0.034
-0.0565
-0.066
-0.058
-0.0585
-0.053
-0.042
-0.029
-0.026
-0.033
-0.034
-0.012
-0.0075
-0.023
-0.0215
-0.0065
0.009
0.001
-0.011
-0.012
-0.0175
-0.031
-0.0255
-0.0075
-0.011
-0.011
0.0005
0.0095
0.012
-0.0025
-0.0095
0.0015
0.014
0.017
0.02
0.0095
0.008
0.0245
0.0215
0.028
0.0115
0.0005
0.0165
0.0095
0.0035
-0.001
0.001
0.014
0.0215
0.0205
0.027
0.0265
0.003
0.017
0.0175
0.0015
0.019
0.008
0.0045
0.0045
-0.021
-0.0015
0.0095
-0.006
-0.0005
-0.0005
0.0
-0.0065
-0.035
-0.029
0.0265
0.025
0.005
0.0045
-0.0055
0.0
-0.003
0.014
-0.0025
-0.0355
-0.027
-0.016
-0.015
-0.0195
-0.0055
-0.016
-0.042
-0.061
-0.047
-0.032
-0.0585
-0.0585
-0.036
-0.0265
-0.0315
-0.047
-0.052
-0.0475
-0.0565
-0.06
-0.0635
-0.064
-0.068
-0.066
-0.069
-0.0765
-0.0725
-0.0815
-0.069
-0.0695
-0.08
-0.0595
-0.0645
-0.086
-0.0535
-0.033
-0.0565
-0.064
-0.077
-0.0735
-0.077
-0.0865
-0.0855
-0.0945
-0.0835
-0.0595
-0.067
-0.087
-0.0905
-0.105
-0.1005
-0.102
-0.0915
-0.074
-0.078
-0.1085
-0.1315
-0.094
-0.092
-0.0965
-0.0995
-0.114
-0.132
-0.149
-0.1185
-0.0975
-0.1
-0.11
-0.112
-0.109
-0.111
-0.103
-0.1005
-0.0995
-0.0945
-0.1035
-0.1085
-0.097
-0.111
-0.1165
-0.114
-0.1395
-0.14
-0.1215
-0.105
-0.1015
-0.117
-0.1325
-0.1255
-0.134
-0.118
-0.084
-0.095
-0.0955
-0.097
-0.1035
-0.1235
-0.1165
-0.0975
-0.0955
-0.062
-0.0705
-0.1225
-0.1355
-0.1315
-0.1205
-0.1085
-0.1035
-0.099
-0.11
-0.107
-0.101
-0.0945
-0.095
-0.1
-0.091
-0.088
-0.092
-0.099
-0.0985
-0.0895
-0.0935
-0.092
-0.089
-0.1
-0.096
-0.0945
-0.106
-0.108
-0.0865
-0.084
-0.083
-0.0735
-0.071
-0.079
-0.1055
-0.098
-0.0975
-0.085
-0.0775
-0.101
-0.095
-0.085
-0.0805
-0.09
-0.087
-0.081
-0.0735
-0.0905
-0.0935
-0.063
-0.0845
-0.078
-0.0745
-0.0865
-0.0895
-0.0785
-0.057
-0.0795
-0.079
-0.071
-0.0795
-0.083
-0.0775
-0.08
-0.086
-0.0825
-0.0825
-0.071
-0.0635
-0.063
-0.0645
-0.0665
-0.0625
-0.063
-0.0695
-0.069
-0.066
-0.074
-0.078
-0.0785
-0.0805
-0.084
-0.086
-0.0865
-0.09
-0.0885
-0.0845
-0.08
-0.0805
-0.0795
-0.0745
-0.0715
-0.0605
-0.0545
-0.0865
-0.0995
-0.082
-0.0845
-0.0865
-0.0975
-0.1315
-0.119
-0.0785
-0.0795
-0.095
-0.0935
-0.0605
-0.0725
-0.103
-0.095
-0.101
-0.081
-0.045
-0.054
-0.054
-0.0455
-0.094
-0.109
-0.0945
-0.098
-0.098
-0.101
-0.0935
-0.0985
-0.1015
-0.095
-0.087
-0.0935
-0.097
-0.0765
-0.082
-0.0805
-0.078
-0.077
-0.068
-0.0765
-0.076
-0.0755
-0.078
-0.079
-0.081
-0.081
-0.085
-0.089
-0.0855
-0.092
-0.0925
-0.0885
-0.093
-0.0905
-0.086
-0.078
-0.0825
-0.1055
-0.127
-0.105
-0.069
-0.078
-0.095
-0.0995
-0.104
-0.0855
-0.0805
-0.1
-0.0995
-0.101
-0.088
-0.076
-0.079
-0.0805
-0.0675
-0.071
-0.0725
-0.0595
-0.073
-0.0455
-0.041
-0.066
-0.0575
-0.053
-0.0335
-0.0285
-0.049
-0.0685
-0.0455
-0.0215
-0.048
-0.0395
-0.051
-0.059
-0.0375
-0.041
-0.043
-0.0315
-0.022
-0.0455
-0.05
-0.0645
-0.085
-0.08
-0.0855
-0.0845
-0.0745
-0.0695
-0.072
-0.072
-0.054
-0.0495
-0.0175
0.0075
-0.0175
-0.0215
-0.041
-0.042
-0.044
-0.0475
-0.0485
-0.061
-0.0435
-0.0585
-0.0875
-0.0975
-0.094
-0.1185
-0.141
-0.1275
-0.1295
-0.129
-0.125
-0.123
-0.1015
-0.083
-0.096
-0.109
-0.11
-0.1025
-0.099
-0.098
-0.093
-0.123
-0.1455
-0.1505
-0.1425
-0.1295
-0.129
-0.1275
-0.1385
-0.1335
-0.131
-0.1185
-0.107
-0.122
-0.1
-0.107
-0.129
-0.1185
-0.1155
-0.1175
-0.1275
-0.122
-0.1205
-0.118
-0.111
-0.1135
-0.1055
-0.1095
-0.128
-0.135
-0.1355
-0.12
-0.13
-0.1245
-0.1155
-0.1375
-0.105
-0.111
-0.1135
-0.1025
-0.13
-0.125
-0.132
-0.1525
-0.1485
-0.131
-0.128
-0.1395
-0.138
-0.1385
-0.1505
-0.1515
-0.164
-0.178
-0.1975
-0.2125
-0.2065
-0.2105
-0.226
-0.242
-0.2215
-0.2325
-0.289
-0.311
-0.312
-0.294
-0.2875
-0.272
-0.257
-0.287
-0.263
-0.2435
-0.2125
-0.125
-0.0955
-0.0865
-0.0655
-0.0305
0.011
0.0385
0.0855
0.135
0.1765
0.2255
0.268
0.3115
0.3515
0.3715
0.385
0.4
0.406
0.416
0.421
0.4225
0.416
0.396
0.377
0.3365
0.2775
0.2335
0.2115
0.1885
0.1675
0.1485
0.152
0.1685
0.1625
0.1435
0.137
0.123
0.092
0.0725
0.043
0.043
0.038
0.0225
0.042
0.0195
-0.019
-0.022
-0.037
-0.0625
-0.0785
-0.102
-0.116
-0.151
-0.1905
-0.22
-0.2505
-0.262
-0.2765
-0.2955
-0.324
-0.3465
-0.357
-0.377
-0.408
-0.4315
-0.4385
-0.4515
-0.4735
-0.488
-0.5035
-0.516
-0.528
-0.5445
-0.548
-0.5565
-0.5655
-0.5695
-0.586
-0.593
-0.5805
-0.568
-0.563
-0.545
-0.5275
-0.5065
-0.484
-0.48
-0.4535
-0.4525
-0.4405
-0.402
-0.3955
-0.378
-0.358
-0.331
-0.312
-0.3195
-0.3195
-0.311
-0.291
-0.2525
-0.227
-0.221
-0.2525
-0.246
-0.2065
-0.196
-0.1825
-0.2145
-0.2045
-0.2075
-0.2305
-0.21
-0.213
-0.201
-0.204
-0.1945
-0.171
-0.1825
-0.1935
-0.1855
-0.1795
-0.1915
-0.189
-0.172
-0.1825
-0.1925
-0.1855
-0.1815
-0.1895
-0.1925
-0.202
-0.217
-0.2125
-0.2095
-0.2
-0.19
-0.194
-0.1905
-0.1745
-0.174
-0.182
-0.186
-0.191
-0.188
-0.187
-0.1865
-0.1885
-0.195
-0.205
-0.2095
-0.2045
-0.204
-0.205
-0.2085
-0.2055
-0.202
-0.2035
-0.1975
-0.198
-0.2
-0.193
-0.1885
-0.207
-0.207
-0.205
-0.2065
-0.1745
-0.1845
-0.213
-0.221
-0.2165
-0.224
-0.2295
-0.233
-0.21
-0.1625
-0.209
-0.24
-0.222
-0.2205
-0.1775
-0.173
-0.2085
-0.2175
-0.211
-0.1965
-0.2015
-0.1995
-0.1975
-0.2045
-0.205
-0.2065
-0.203
-0.208
-0.213
-0.2095
-0.2045
-0.197
-0.1995
-0.2005
-0.1915
-0.1875
-0.196
-0.1945
-0.1895
-0.195
-0.1915
-0.1785
-0.1685
-0.171
-0.181
-0.1955
-0.206
-0.2015
-0.1895
-0.1765
-0.189
-0.196
-0.1735
-0.172
-0.162
-0.1525
-0.1625
-0.1635
-0.161
-0.153
-0.1515
-0.1685
-0.1715
-0.1415
-0.1525
-0.181
-0.172
-0.1695
-0.145
-0.121
-0.117
-0.122
-0.113
-0.098
-0.094
-0.095
-0.105
-0.087
-0.08
-0.0805
-0.075
-0.0795
-0.0875
-0.0835
-0.073
-0.0835
-0.079
-0.0575
-0.052
-0.057
-0.038
-0.0205
-0.041
-0.066
-0.0575
-0.026
-0.012
-0.017
-0.0255
-0.0415
-0.0365
-0.018
-0.034
-0.0295
-0.0205
-0.0285
-0.02
-0.028
-0.0345
0.0085
0.0355
-0.003
-0.008
-0.0025
-0.021
-0.007
-0.0025
0.009
0.0225
0.003
-0.0095
-0.0175
-0.018
-0.0045
0.0
-0.002
0.0075
0.022
0.0175
0.0035
0.0
0.0015
0.0055
0.004
0.003
0.001
0.002
0.0
0.014
0.0305
0.004
-0.0195
-0.026
-0.023
-0.016
-0.003
0.007
-0.003
-0.0045
-0.016
-0.014
-0.0055
-0.0075
-0.0115
-0.0175
-0.023
-0.0235
0.001
-0.0035
-0.0195
-0.023
-0.0235
-0.038
-0.0545
-0.0615
-0.0645
-0.0305
-0.016
-0.0335
-0.0455
-0.045
-0.0455
-0.0425
-0.03
-0.032
-0.041
-0.044
-0.0335
-0.039
-0.046
-0.047
-0.054
-0.058
-0.0685
-0.0815
-0.099
-0.0985
-0.097
-0.094
-0.0865
-0.087
-0.0815
-0.0785
-0.0805
-0.084
-0.087
-0.0915
-0.086
-0.096
-0.1015
-0.1
-0.111
-0.101
-0.107
-0.118
-0.1175
-0.1165
-0.117
-0.1085
-0.099
-0.105
-0.108
-0.109
-0.1205
-0.1265
-0.095
-0.0955
-0.1245
-0.1535
-0.142
-0.085
-0.105
-0.116
-0.0985
-0.1105
-0.116
-0.097
-0.079
-0.078
-0.099
-0.127
-0.1045
-0.105
-0.1265
-0.118
-0.1115
-0.1035
-0.097
-0.1175
-0.128
-0.122
-0.127
-0.119
-0.1325
-0.1435
-0.1325
-0.126
-0.134
-0.1415
-0.1325
-0.1295
-0.1285
-0.1365
-0.1435
-0.1345
-0.1335
-0.1355
-0.1295
-0.1335
-0.137
-0.1365
-0.136
-0.1325
-0.1305
-0.146
-0.152
-0.142
-0.146
-0.1395
-0.137
-0.1365
-0.13
-0.1265
-0.1265
-0.1255
-0.1315
-0.1405
-0.1295
-0.132
-0.133
-0.13
-0.137
-0.1405
-0.1445
-0.1475
-0.1465
-0.1465
-0.149
-0.147
-0.152
-0.1515
-0.1455
-0.143
-0.1455
-0.149
-0.1495
-0.159
-0.147
-0.141
-0.1475
-0.1215
-0.126
-0.1655
-0.175
-0.165
-0.161
-0.1575
-0.157
-0.149
-0.1415
-0.137
-0.136
-0.1445
-0.133
-0.1395
-0.156
-0.1605
-0.154
-0.16
-0.1745
-0.1845
-0.178
-0.1515
-0.1605
-0.135
-0.131
-0.162
-0.1535
-0.158
-0.14
-0.143
-0.1545
-0.1265
-0.121
-0.13
-0.1425
-0.1345
-0.1335
-0.1475
-0.133
-0.157
-0.174
-0.1585
-0.158
-0.1555
-0.161
-0.155
-0.151
-0.1595
-0.1475
-0.1335
-0.1285
-0.146
-0.156
-0.119
-0.116
-0.1415
-0.146
-0.15
-0.154
-0.1385
-0.143
-0.1725
-0.166
-0.1465
-0.1395
-0.1525
-0.172
-0.1505
-0.159
-0.1595
-0.148
-0.1605
-0.136
-0.127
-0.1305
-0.141
-0.1445
-0.1305
-0.136
-0.145
-0.1435
-0.155
-0.1555
-0.1505
-0.148
-0.134
-0.145
-0.128
-0.1145
-0.142
-0.1435
-0.1275
-0.1345
-0.1365
-0.1355
-0.155
-0.1575
-0.154
-0.1355
-0.141
-0.1535
-0.144
-0.14
-0.135
-0.1285
-0.134
-0.155
-0.16
-0.1665
-0.1595
-0.133
-0.1295
-0.134
-0.1225
-0.1305
-0.138
-0.131
-0.144
-0.158
-0.162
-0.1665
-0.1445
-0.142
-0.1655
-0.1595
-0.1545
-0.1565
-0.143
-0.1135
-0.1125
-0.113
-0.0995
-0.0945
-0.089
-0.095
-0.095
-0.0855
-0.094
-0.088
-0.0555
-0.0615
-0.105
-0.123
-0.0985
-0.064
-0.0505
-0.0665
-0.067
-0.0785
-0.0895
-0.0535
-0.0555
-0.0825
-0.084
-0.086
-0.0885
-0.083
-0.089
-0.108
-0.131
-0.128
-0.106
-0.098
-0.09
-0.0865
-0.086
-0.0795
-0.0725
-0.065
-0.0665
-0.0815
-0.088
-0.055
-0.0395
-0.0675
-0.077
-0.0745
-0.0795
-0.0815
-0.1005
-0.117
-0.1135
-0.114
-0.1205
-0.1405
-0.1625
-0.1605
-0.1435
-0.144
-0.136
-0.1185
-0.1355
-0.1445
-0.137
-0.1525
-0.158
-0.1525
-0.148
-0.1635
-0.1745
-0.1715
-0.1765
-0.1825
-0.188
-0.1995
-0.205
-0.1855
-0.1865
-0.162
-0.1345
-0.144
-0.13
-0.126
-0.141
-0.15
-0.154
-0.141
-0.1405
-0.1575
-0.1525
-0.1495
-0.1595
-0.148
-0.145
-0.1515
-0.137
-0.149
-0.167
-0.161
-0.1395
-0.1475
-0.175
-0.14
-0.129
-0.1625
-0.1675
-0.167
-0.1635
-0.1615
-0.166
-0.1695
-0.174
-0.17
-0.1755
-0.1765
-0.177
-0.1715
-0.1605
-0.174
-0.18
-0.1795
-0.1785
-0.1815
-0.192
-0.203
-0.2165
-0.2465
-0.265
-0.263
-0.292
-0.331
-0.336
-0.325
-0.337
-0.34
-0.347
-0.35
-0.3465
-0.355
-0.34
-0.312
-0.2805
-0.271
-0.248
-0.2165
-0.1835
-0.137
-0.1205
-0.101
-0.054
-0.032
-0.016
0.055
0.127
0.181
0.231
0.2545
0.278
0.296
0.307
0.346
0.3635
0.372
0.407
0.388
0.364
0.381
0.3655
0.313
0.2515
0.2065
0.151
0.1375
0.163
0.1765
0.198
0.192
0.1905
0.174
0.149
0.1505
0.152
0.159
0.144
0.1145
0.077
0.031
0.0015
0.0
-0.0105
-0.038
-0.0565
-0.079
-0.0985
-0.0955
-0.1025
-0.1515
-0.2135
-0.256
-0.277
-0.2915
-0.2895
-0.2965
-0.338
-0.375
-0.399
-0.423
-0.4375
-0.446
-0.467
-0.4805
-0.4975
-0.523
-0.5265
-0.5395
-0.5605
-0.5635
-0.5645
-0.562
-0.568
-0.592
-0.603
-0.616
-0.601
-0.5835
-0.6055
-0.6185
-0.6045
-0.5685
-0.5545
-0.525
-0.489
-0.491
-0.482
-0.4545
-0.442
-0.418
-0.3815
-0.374
-0.359
-0.344
-0.333
-0.3055
-0.2815
-0.2735
-0.2775
-0.2705
-0.2695
-0.2635
-0.2335
-0.2325
-0.261
-0.2465
-0.2355
-0.2445
-0.242
-0.226
-0.216
-0.218
-0.203
-0.19
-0.1705
-0.168
-0.172
-0.18
-0.1845
-0.191
-0.194
-0.1855
-0.196
-0.202
-0.202
-0.1755
-0.1565
-0.19
-0.2335
-0.2285
-0.2285
-0.2375
-0.198
-0.19
-0.196
-0.1795
-0.174
-0.18
-0.1755
-0.1755
-0.2025
-0.209
-0.2215
-0.237
-0.2135
-0.1985
-0.201
-0.2015
-0.1965
-0.1945
-0.184
-0.1765
-0.207
-0.2195
-0.209
-0.203
-0.184
-0.186
-0.196
-0.204
-0.212
-0.199
-0.192
-0.18
-0.189
-0.2145
-0.22
-0.2195
-0.207
-0.2015
-0.198
-0.2165
-0.2175
-0.178
-0.1685
-0.173
-0.178
-0.195
-0.2
-0.1945
-0.1905
-0.1795
-0.186
-0.2055
-0.2035
-0.2
-0.1965
-0.191
-0.183
-0.1795
-0.172
-0.158
-0.1915
-0.2055
-0.1885
-0.1835
-0.172
-0.1815
-0.1805
-0.17
-0.178
-0.1785
-0.165
-0.1625
-0.1735
-0.179
-0.1745
-0.184
-0.1905
-0.1765
-0.1555
-0.155
-0.1575
-0.1565
-0.169
-0.1555
-0.1355
-0.1315
-0.132
-0.135
-0.1405
-0.146
-0.1105
-0.1045
-0.1275
-0.0965
-0.1005
-0.1095
-0.126
-0.146
-0.107
-0.098
-0.107
-0.1085
-0.0935
-0.085
-0.1045
-0.0945
-0.066
-0.056
-0.07
-0.0735
-0.068
-0.077
-0.0835
-0.072
-0.0655
-0.0655
-0.062
-0.0555
-0.045
-0.0445
-0.0485
-0.045
-0.03
-0.027
-0.031
-0.0365
-0.031
-0.0245
-0.03
-0.028
-0.019
-0.0215
-0.0265
-0.0215
-0.024
-0.0115
-0.005
0.0025
0.0175
0.0255
0.019
0.0005
0.0185
0.014
0.0135
0.0515
0.0455
0.02
0.022
0.018
0.013
0.0265
0.0355
0.0185
0.0105
0.0325
0.0235
0.013
0.0155
0.023
0.042
0.028
0.017
0.0285
0.041
0.053
0.072
0.0555
0.017
0.0275
0.0385
0.023
0.0225
0.0325
0.021
0.0225
0.0305
0.0165
0.013
0.0215
0.0285
0.0165
0.011
0.0185
0.029
0.0315
0.0305
0.0295
0.0045
0.0085
-0.0025
-0.014
0.0085
0.0025
-0.01
-0.0195
-0.0145
0.0015
0.013
0.001
0.003
-0.0015
-0.0235
-0.02
-0.016
-0.0245
-0.0235
-0.0235
-0.03
-0.0265
-0.04
-0.0425
-0.04
-0.0775
-0.0895
-0.043
-0.028
-0.047
-0.0575
-0.0735
-0.074
-0.064
-0.058
-0.055
-0.047
-0.023
-0.0295
-0.077
-0.0905
-0.0775
-0.071
-0.0575
-0.067
-0.07
-0.07
-0.08
-0.0715
-0.0685
-0.069
-0.07
-0.061
-0.0475
-0.0695
-0.0905
-0.0845
-0.0755
-0.0575
-0.0695
-0.0775
-0.085
-0.0975
-0.0675
-0.0775
-0.0995
-0.094
-0.0895
-0.0915
-0.095
-0.091
-0.0815
-0.0755
-0.092
-0.093
-0.076
-0.0765
-0.071
-0.063
-0.078
-0.058
-0.0495
-0.078
-0.085
-0.0915
-0.095
-0.095
-0.109
-0.133
-0.111
-0.0735
-0.071
-0.077
-0.065
-0.0625
-0.081
-0.0815
-0.067
-0.058
-0.068
-0.08
-0.089
-0.092
-0.082
-0.088
-0.0905
-0.0855
-0.0915
-0.097
-0.0815
-0.0895
-0.116
-0.0755
-0.0535
-0.068
-0.103
-0.112
-0.0755
-0.0655
-0.076
-0.094
-0.0875
-0.082
-0.097
-0.103
-0.109
-0.1065
-0.0985
-0.1135
-0.102
-0.091
-0.0955
-0.0915
-0.0785
-0.0645
-0.0775
-0.0905
-0.0895
-0.078
-0.0875
-0.096
-0.0885
-0.0925
-0.0935
-0.091
-0.0845
-0.085
-0.0975
-0.096
-0.0895
-0.087
-0.082
-0.0805
-0.0915
-0.0955
-0.1015
-0.104
-0.099
-0.098
-0.066
-0.0565
-0.0745
-0.0745
-0.076
-0.0645
-0.061
-0.0845
-0.0915
-0.095
-0.075
-0.0615
-0.089
-0.0815
-0.0905
-0.0805
-0.0425
-0.07
-0.09
-0.0855
-0.089
-0.092
-0.087
-0.0845
-0.095
-0.105
-0.095
-0.0975
-0.1025
-0.0905
-0.0955
-0.086
-0.0755
-0.073
-0.071
-0.0695
-0.0605
-0.071
-0.0825
-0.0815
-0.072
-0.061
-0.061
-0.0655
-0.0735
-0.0705
-0.073
-0.0765
-0.0585
-0.0665
-0.083
-0.0915
-0.0935
-0.0785
-0.073
-0.076
-0.083
-0.0885
-0.0805
-0.0685
-0.0745
-0.0755
-0.058
-0.0655
-0.089
-0.0865
-0.0795
-0.1035
-0.1015
-0.073
-0.0895
-0.121
-0.106
-0.0785
-0.061
-0.044
-0.0595
-0.063
-0.066
-0.0665
-0.0475
-0.059
-0.0725
-0.081
-0.074
-0.066
-0.0815
-0.084
-0.074
-0.0765
-0.091
-0.086
-0.067
-0.063
-0.058
-0.045
-0.0585
-0.11
-0.0885
-0.023
-0.0515
-0.044
-0.0415
-0.053
-0.023
-0.027
-0.012
-0.0185
0.002
0.004
-0.007
0.0
-0.0255
-0.015
-0.009
-0.0125
0.005
0.015
-0.0075
-0.0195
-0.021
-0.023
-0.0325
-0.009
0.0115
-0.0205
-0.0595
-0.076
-0.059
-0.058
-0.0415
-0.0365
-0.037
-0.0255
-0.0155
-0.0035
-0.005
0.001
-0.0145
-0.0235
-0.0165
-0.031
-0.0475
-0.0445
-0.0495
-0.057
-0.0685
-0.0785
-0.0875
-0.1105
-0.0865
-0.0835
-0.106
-0.108
-0.0845
-0.057
-0.0865
-0.1085
-0.112
-0.096
-0.0915
-0.092
-0.0955
-0.104
-0.092
-0.111
-0.122
-0.1185
-0.1045
-0.0975
-0.1115
-0.0995
-0.1075
-0.124
-0.1155
-0.1025
-0.0945
-0.1075
-0.115
-0.103
-0.0985
-0.092
-0.0895
-0.102
-0.1095
-0.1205
-0.126
-0.1185
-0.111
-0.1185
-0.1235
-0.1085
-0.1065
-0.11
-0.103
-0.1045
-0.0965
-0.0925
-0.102
-0.0945
-0.1065
-0.109
-0.11
-0.119
-0.1145
-0.1135
-0.1275
-0.1305
-0.1125
-0.1175
-0.1205
-0.1205
-0.12
-0.1145
-0.108
-0.1085
-0.1165
-0.1255
-0.1265
-0.1325
-0.145
-0.1485
-0.1715
-0.1915
-0.2065
-0.225
-0.2305
-0.246
-0.262
-0.2695
-0.2705
-0.265
-0.281
-0.2955
-0.271
-0.262
-0.264
-0.2415
-0.2215
-0.1845
-0.1635
-0.1455
-0.1085
-0.0875
-0.06
-0.0295
0.008
0.0495
0.079
0.1175
0.168
0.24
0.2965
0.3265
0.3545
0.376
0.4085
0.421
0.4335
0.4515
0.428
0.4175
0.4185
0.401
0.3695
0.3255
0.2945
0.2735
0.2485
0.228
0.223
0.2235
0.2215
0.229
0.2395
0.2305
0.218
0.1775
0.1505
0.154
0.1345
0.114
0.081
0.0595
0.0485
0.022
0.0025
-0.009
-0.0275
-0.0495
-0.0645
-0.0845
-0.1125
-0.152
-0.187
-0.2035
-0.216
-0.2355
-0.2475
-0.2515
-0.28
-0.312
-0.3325
-0.3685
-0.3785
-0.3865
-0.416
-0.423
-0.4455
-0.45
-0.4425
-0.465
-0.4735
-0.483
-0.492
-0.5045
-0.5115
-0.498
-0.536
-0.525
-0.4905
-0.5275
-0.5225
-0.512
-0.522
-0.5225
-0.508
-0.4945
-0.49
-0.4715
-0.437
-0.407
-0.415
-0.3845
-0.3365
-0.3155
-0.2915
-0.2835
-0.2735
-0.276
-0.2675
-0.2235
-0.206
-0.21
-0.23
-0.239
-0.212
-0.1785
-0.1785
-0.173
-0.162
-0.184
-0.165
-0.1325
-0.1305
-0.131
-0.126
-0.1405
-0.147
-0.1365
-0.144
-0.142
-0.134
-0.136
-0.144
-0.1445
-0.159
-0.153
-0.1345
-0.1445
-0.1275
-0.1405
-0.1485
-0.154
-0.1445
-0.111
-0.12
-0.1065
-0.1255
-0.13
-0.116
-0.122
-0.122
-0.1425
-0.1415
-0.147
-0.1695
-0.151
-0.1415
-0.126
-0.1
-0.1155
-0.145
-0.161
-0.131
-0.14
-0.1415
-0.107
-0.112
-0.1175
-0.12
-0.1265
-0.1285
-0.1275
-0.146
-0.144
-0.1415
-0.1335
-0.1005
-0.1085
-0.1355
-0.1445
-0.1425
-0.1305
-0.117
-0.1255
-0.1335
-0.117
-0.097
-0.1075
-0.101
-0.0935
-0.1295
-0.1285
-0.118
-0.1245
-0.132
-0.1355
-0.1325
-0.1345
-0.116
-0.1065
-0.1045
-0.1065
-0.1075
-0.089
-0.0975
-0.098
-0.0895
-0.099
-0.11
-0.1125
-0.092
-0.091
-0.099
-0.0975
-0.098
-0.085
-0.0865
-0.094
-0.0895
-0.09
-0.083
-0.0685
-0.066
-0.063
-0.0555
-0.056
-0.055
-0.05
-0.054
-0.0485
-0.0505
-0.058
-0.0625
-0.0715
-0.0435
-0.0305
-0.0595
-0.0685
-0.052
-0.047
-0.0435
-0.0325
-0.0265
-0.02
-0.012
-0.0185
-0.004
0.0045
-0.0235
-0.0135
-0.005
-0.008
-0.0035
-0.009
-0.0065
0.0035
-0.005
-0.017
-0.0085
-0.016
-0.0135
0.0015
0.0175
0.045
0.0415
0.04
0.0315
0.0505
0.058
0.0285
0.044
0.065
0.072
0.058
0.0505
0.0505
0.0525
0.0495
0.058
0.0835
0.0835
0.0815
0.0865
0.0925
0.095
0.0895
0.091
0.096
0.09
0.091
0.0945
0.0935
0.1045
0.1075
0.104
0.1
0.091
0.09
0.0965
0.11
0.1155
0.13
0.132
0.1065
0.1115
0.0975
0.083
0.0955
0.0955
0.1005
0.103
0.1085
0.099
0.091
0.093
0.092
0.098
0.096
0.099
0.0955
0.097
0.125
0.118
0.085
0.083
0.0855
0.085
0.0905
0.0895
0.093
0.0925
0.093
0.086
0.0785
0.079
0.0625
0.0585
0.0625
0.0675
0.0695
0.0695
0.076
0.0765
0.072
0.076
0.084
0.072
0.053
0.045
0.0545
0.0385
0.006
0.0
0.016
0.0335
0.039
0.0155
0.016
0.0405
0.028
0.024
0.014
0.029
0.041
0.0175
0.017
0.033
0.027
0.0275
0.037
-0.0105
-0.0095
0.0275
0.006
-0.0055
0.01
0.015
0.0045
-0.0085
-0.007
-0.0035
-0.018
-0.021
-0.0135
-0.0085
-0.0125
-0.018
-0.0235
-0.0245
-0.021
-0.033
-0.029
-0.016
-0.03
-0.039
-0.026
-0.0415
-0.0265
-0.0055
-0.032
-0.058
-0.0945
-0.062
0.004
-0.0075
-0.0445
-0.048
-0.0375
-0.033
-0.0265
-0.0365
-0.06
-0.0695
-0.0645
-0.048
-0.0555
-0.074
-0.0495
-0.0415
-0.0535
-0.061
-0.0535
-0.033
-0.0355
-0.0325
-0.043
-0.053
-0.066
-0.051
-0.04
-0.0665
-0.062
-0.069
-0.0885
-0.08
-0.056
-0.054
-0.0635
-0.072
-0.056
-0.0285
-0.04
-0.04
-0.026
-0.0495
-0.0595
-0.042
-0.0435
-0.057
-0.076
-0.07
-0.045
-0.0615
-0.0725
-0.065
-0.066
-0.0625
-0.0465
-0.0465
-0.064
-0.0555
-0.0445
-0.0375
-0.0355
-0.0335
-0.038
-0.0315
-0.0395
-0.067
-0.0485
-0.0515
-0.0675
-0.0675
-0.07
-0.068
-0.057
-0.047
-0.0495
-0.045
-0.0495
-0.032
-0.029
-0.0525
-0.0405
-0.0465
-0.0645
-0.051
-0.033
-0.048
-0.0695
-0.067
-0.065
-0.0635
-0.0685
-0.0735
-0.072
-0.07
-0.051
-0.045
-0.0555
-0.049
-0.0465
-0.043
-0.0475
-0.0505
-0.047
-0.0485
-0.039
-0.0515
-0.0525
-0.046
-0.054
-0.046
-0.047
-0.0615
-0.064
-0.061
-0.059
-0.0555
-0.0525
-0.042
-0.0345
-0.0295
-0.029
-0.0385
-0.038
-0.033
-0.039
-0.044
-0.054
-0.0575
-0.0545
-0.078
-0.071
-0.049
-0.0575
-0.0535
-0.0665
-0.06
-0.018
-0.044
-0.0565
-0.0325
-0.043
-0.0245
-0.0145
-0.028
-0.028
-0.029
-0.0385
-0.0415
-0.0385
-0.0625
-0.066
-0.054
-0.0585
-0.0655
-0.058
-0.046
-0.029
-0.0245
-0.038
-0.0475
-0.0595
-0.065
-0.0585
-0.0375
-0.0375
-0.05
-0.058
-0.0575
-0.0365
-0.0525
-0.073
-0.058
-0.0475
-0.074
-0.0795
-0.047
-0.0525
-0.0455
-0.04
-0.059
-0.063
-0.0605
-0.0555
-0.058
-0.056
-0.0555
-0.059
-0.0485
-0.039
-0.0425
-0.057
-0.0585
-0.0485
-0.0465
-0.0455
-0.0475
-0.024
-0.002
-0.009
0.01
0.0185
0.0145
0.02
0.0225
0.0205
0.0165
0.0125
0.0065
0.0175
0.0005
-0.0125
-0.021
-0.0345
-0.0205
-0.013
-0.0085
-0.012
-0.0105
-0.009
-0.017
-0.021
-0.024
-0.021
-0.012
-0.0115
-0.0145
-0.006
-0.007
-0.008
-0.0115
-0.0195
-0.0165
-0.0455
-0.0575
-0.0385
-0.0295
-0.012
-0.009
-0.001
-0.0435
-0.0825
-0.045
-0.0385
-0.0495
-0.0555
-0.054
-0.047
-0.068
-0.0945
-0.086
-0.076
-0.0505
-0.0535
-0.104
-0.0895
-0.098
-0.1055
-0.0835
-0.081
-0.0585
-0.06
-0.078
-0.096
-0.098
-0.0895
-0.0835
-0.078
-0.0945
-0.1025
-0.1015
-0.108
-0.1125
-0.114
-0.1205
-0.1155
-0.0905
-0.0865
-0.0905
-0.082
-0.0885
-0.0985
-0.1155
-0.109
-0.082
-0.1115
-0.1345
-0.133
-0.118
-0.125
-0.126
-0.0995
-0.109
-0.1085
-0.11
-0.1045
-0.106
-0.103
-0.099
-0.0975
-0.0905
-0.088
-0.0855
-0.1185
-0.1115
-0.0985
-0.096
-0.0825
-0.088
-0.0905
-0.128
-0.1725
-0.171
-0.147
-0.1675
-0.188
-0.1665
-0.1795
-0.221
-0.236
-0.232
-0.221
-0.2385
-0.2685
-0.239
-0.2305
-0.27
-0.303
-0.299
-0.2475
-0.212
-0.2245
-0.209
-0.1585
-0.1405
-0.0955
-0.034
-0.028
0.02
0.0945
0.1015
0.138
0.2
0.244
0.2945
0.33
0.3615
0.3845
0.3985
0.3965
0.398
0.4105
0.4045
0.412
0.422
0.409
0.3815
0.3445
0.288
0.259
0.2455
0.2105
0.192
0.1975
0.2145
0.2085
0.209
0.2015
0.1695
0.142
0.1165
0.1255
0.1225
0.1105
0.089
0.0435
0.016
0.0175
0.0205
-0.012
-0.008
-0.0175
-0.067
-0.078
-0.0835
-0.1185
-0.151
-0.189
-0.2165
-0.2145
-0.259
-0.313
-0.3455
-0.3555
-0.363
-0.3735
-0.3795
-0.3985
-0.4045
-0.416
-0.426
-0.4315
-0.4435
-0.469
-0.49
-0.5145
-0.5555
-0.532
-0.5105
-0.542
-0.5695
-0.572
-0.549
-0.5525
-0.534
-0.516
-0.522
-0.504
-0.4765
-0.446
-0.432
-0.416
-0.4015
-0.396
-0.376
-0.346
-0.3175
-0.3255
-0.325
-0.301
-0.292
-0.281
-0.267
-0.247
-0.2345
-0.221
-0.212
-0.19
-0.184
-0.206
-0.1955
-0.184
-0.184
-0.191
-0.179
-0.17
-0.1815
-0.182
-0.182
-0.1625
-0.1635
-0.1795
-0.1675
-0.1765
-0.1875
-0.176
-0.173
-0.1695
-0.142
-0.125
-0.1265
-0.129
-0.142
-0.1545
-0.146
-0.1445
-0.1355
-0.1415
-0.1665
-0.1575
-0.1835
-0.194
-0.1555
-0.1545
-0.1675
-0.1645
-0.157
-0.1575
-0.1535
-0.1555
-0.1535
-0.1395
-0.146
-0.1625
-0.161
-0.1545
-0.1515
-0.142
-0.1485
-0.155
-0.164
-0.162
-0.17
-0.1635
-0.166
-0.174
-0.132
-0.1525
-0.153
-0.1275
-0.138
-0.144
-0.141
-0.159
-0.1565
-0.133
-0.152
-0.1685
-0.1915
-0.1905
-0.174
-0.16
-0.1505
-0.152
-0.189
-0.1935
-0.146
-0.1585
-0.157
-0.1405
-0.139
-0.132
-0.149
-0.1625
-0.1555
-0.158
-0.164
-0.159
-0.155
-0.157
-0.163
-0.138
-0.127
-0.1625
-0.177
-0.163
-0.1465
-0.141
-0.1355
-0.1355
-0.138
-0.1185
-0.128
-0.1445
-0.1315
-0.1325
-0.141
-0.1375
-0.1285
-0.1275
-0.1265
-0.1275
-0.129
-0.141
-0.1505
-0.126
-0.1035
-0.098
-0.104
-0.1035
-0.093
-0.093
-0.094
-0.1035
-0.1
-0.079
-0.0715
-0.0675
-0.0695
-0.08
-0.0815
-0.077
-0.064
-0.0605
-0.061
-0.0555
-0.0615
-0.051
-0.034
-0.0365
-0.0405
-0.031
-0.015
-0.01
-0.014
-0.0145
-0.01
-0.028
-0.0465
-0.0265
0.007
-0.0005
-0.0275
-0.0385
-0.0105
0.04
0.0155
-0.0025
0.012
0.03
0.0525
0.0615
0.0675
0.031
0.014
0.025
0.044
0.0705
0.058
0.0295
0.028
0.036
0.035
0.033
0.0265
0.036
0.0495
0.056
0.055
0.0495
0.047
0.048
0.0475
0.0455
0.0315
0.036
0.0425
0.026
0.0405
0.0395
0.0425
0.0415
0.047
0.041
0.0225
0.0375
0.0325
0.044
0.0535
0.0555
0.047
0.0425
0.057
0.042
0.041
0.0365
0.0325
0.029
0.019
0.037
0.0415
0.024
0.018
0.012
-0.0105
0.019
0.0495
0.026
0.037
0.0425
0.0285
0.036
0.028
0.0195
0.0115
0.0145
0.024
0.011
0.0175
0.0135
0.0
0.0075
0.0045
0.003
0.0015
-0.015
-0.019
-0.0015
-0.001
-0.0035
-0.0045
-0.0055
-0.016
-0.0265
-0.003
-0.0125
-0.026
-0.0425
-0.037
-0.017
-0.0445
-0.0825
-0.087
-0.0465
-0.051
-0.061
-0.048
-0.0505
-0.0555
-0.0495
-0.063
-0.0415
-0.0245
-0.058
-0.0635
-0.0565
-0.037
-0.0545
-0.0475
-0.065
-0.109
-0.098
-0.1155
-0.107
-0.0845
-0.071
-0.073
-0.0995
-0.0875
-0.0725
-0.063
-0.0665
-0.1
-0.0865
-0.0715
-0.0925
-0.0835
-0.068
-0.065
-0.081
-0.09
-0.0855
-0.0895
-0.0815
-0.083
-0.093
-0.083
-0.073
-0.0905
-0.091
-0.0725
-0.0695
-0.071
-0.0785
-0.073
-0.0905
-0.0975
-0.074
-0.0805
-0.091
-0.096
-0.0965
-0.101
-0.117
-0.127
-0.102
-0.0855
-0.1035
-0.1
-0.071
-0.075
-0.092
-0.081
-0.088
-0.0975
-0.0945
-0.0965
-0.1
-0.0955
-0.091
-0.1025
-0.1155
-0.1095
-0.105
-0.098
-0.104
-0.148
-0.1315
-0.0875
-0.073
-0.092
-0.091
-0.0505
-0.073
-0.095
-0.107
-0.1295
-0.1225
-0.1125
-0.1125
-0.114
-0.1215
-0.1045
-0.1015
-0.1285
-0.117
-0.1115
-0.1055
-0.0925
-0.091
-0.088
-0.0855
-0.0925
-0.1035
-0.0955
-0.0845
-0.0775
-0.0905
-0.0985
-0.093
-0.1
-0.107
-0.1055
-0.106
-0.1045
-0.1075
-0.107
-0.0985
-0.1015
-0.0925
-0.093
-0.0885
-0.09
-0.104
-0.0845
-0.082
-0.106
-0.108
-0.117
-0.1115
-0.075
-0.0845
-0.105
-0.109
-0.1165
-0.115
-0.125
-0.1105
-0.0955
-0.098
-0.083
-0.079
-0.092
-0.103
-0.0975
-0.0945
-0.0955
-0.104
-0.1165
-0.1155
-0.103
-0.0995
-0.108
-0.111
-0.1125
-0.104
-0.102
-0.11
-0.107
-0.1145
-0.111
-0.0865
-0.091
-0.0925
-0.1
-0.1105
-0.0955
-0.0975
-0.1055
-0.1265
-0.1265
-0.1155
-0.121
-0.1205
-0.12
-0.073
-0.064
-0.137
-0.1765
-0.1365
-0.095
-0.0975
-0.121
-0.1215
-0.1105
-0.1205
-0.0955
-0.097
-0.1245
-0.133
-0.1445
-0.132
-0.105
-0.1075
-0.122
-0.112
-0.111
-0.109
-0.1035
-0.1115
-0.1165
-0.1185
-0.134
-0.1275
-0.116
-0.112
-0.1075
-0.1095
-0.089
-0.089
-0.109
-0.113
-0.105
-0.1095
-0.1165
-0.1185
-0.114
-0.1005
-0.107
-0.116
-0.0845
-0.058
-0.088
-0.1005
-0.092
-0.09
-0.083
-0.0835
-0.083
-0.0855
-0.082
-0.0775
-0.0735
-0.0705
-0.067
-0.048
-0.0385
-0.039
-0.0445
-0.0365
-0.024
-0.0335
-0.054
-0.035
0.0015
-0.017
-0.0325
-0.0305
-0.0545
-0.0805
-0.0675
-0.0515
-0.0585
-0.0915
-0.128
-0.08
-0.0505
-0.062
-0.0595
-0.073
-0.0555
-0.043
-0.034
-0.025
-0.0385
-0.0365
-0.0255
-0.0405
-0.0465
-0.0295
-0.03
-0.046
-0.0595
-0.065
-0.0665
-0.0815
-0.0895
-0.067
-0.061
-0.0775
-0.0855
-0.09
-0.104
-0.11
-0.1215
-0.1225
-0.1185
-0.0955
-0.087
-0.1355
-0.1385
-0.117
-0.1165
-0.137
-0.1485
-0.138
-0.148
-0.1275
-0.122
-0.1325
-0.1085
-0.1045
-0.0995
-0.1195
-0.1415
-0.1395
-0.134
-0.1215
-0.1345
-0.1475
-0.1565
-0.163
-0.137
-0.1165
-0.117
-0.124
-0.1265
-0.115
-0.1105
-0.109
-0.1055
-0.1
-0.116
-0.137
-0.1235
-0.1195
-0.1055
-0.102
-0.1425
-0.145
-0.133
-0.1305
-0.129
-0.1245
-0.128
-0.1445
-0.141
-0.131
-0.114
-0.1195
-0.1165
-0.1055
-0.14
-0.146
-0.1425
-0.1525
-0.1565
-0.1665
-0.165
-0.175
-0.1835
-0.2175
-0.2375
-0.234
-0.2375
-0.2385
-0.2565
-0.2745
-0.2895
-0.2855
-0.2945
-0.2905
-0.2875
-0.292
-0.281
-0.2805
-0.264
-0.248
-0.2375
-0.1955
-0.163
-0.138
-0.097
-0.08
-0.0205
0.0275
0.055
0.119
0.176
0.218
0.2515
0.291
0.3365
0.382
0.3995
0.405
0.4145
0.411
0.403
0.3965
0.4125
0.41
0.386
0.3525
0.291
0.2585
0.236
0.209
0.203
0.2
0.1925
0.189
0.195
0.195
0.172
0.155
0.14
0.122
0.1215
0.114
0.091
0.0605
0.0325
0.022
0.026
0.0175
-0.0055
-0.011
-0.0205
-0.0625
-0.0945
-0.124
-0.16
-0.154
-0.1705
-0.228
-0.2665
-0.2925
-0.325
-0.337
-0.3335
-0.3655
-0.389
-0.4145
-0.4425
-0.449
-0.4555
-0.456
-0.452
-0.4695
-0.499
-0.5175
-0.536
-0.535
-0.5255
-0.561
-0.61
-0.5995
-0.588
-0.5725
-0.5605
-0.56
-0.523
-0.5245
-0.5235
-0.496
-0.4405
-0.3835
-0.389
-0.369
-0.369
-0.377
-0.346
-0.322
-0.294
-0.276
-0.266
-0.2625
-0.256
-0.254
-0.2385
-0.214
-0.2185
-0.2135
-0.198
-0.1965
-0.1955
-0.1785
-0.1565
-0.1575
-0.1595
-0.159
-0.163
-0.1505
-0.143
-0.144
-0.141
-0.1445
-0.1515
-0.149
-0.1515
-0.159
-0.143
-0.154
-0.161
-0.138
-0.1565
-0.1505
-0.1345
-0.1445
-0.115
-0.1155
-0.1385
-0.138
-0.1335
-0.1285
-0.133
-0.1405
-0.1515
-0.142
-0.141
-0.132
-0.1225
-0.1455
-0.1485
-0.1345
-0.134
-0.14
-0.138
-0.118
-0.1225
-0.146
-0.146
-0.134
-0.111
-0.12
-0.1305
-0.1005
-0.116
-0.1495
-0.1565
-0.1575
-0.1445
-0.156
-0.176
-0.1685
-0.144
-0.1385
-0.146
-0.135
-0.1245
-0.1275
-0.1445
-0.139
-0.136
-0.126
-0.118
-0.1275
-0.1235
-0.136
-0.1375
-0.1525
-0.14
-0.126
-0.1335
-0.098
-0.0995
-0.099
-0.114
-0.1365
-0.121
-0.1095
-0.1085
-0.1155
-0.118
-0.1285
-0.1345
-0.1435
-0.138
-0.1165
-0.1255
-0.1355
-0.129
-0.1295
-0.1225
-0.1135
-0.1105
-0.1145
-0.1215
-0.1105
-0.106
-0.112
-0.107
-0.1025
-0.106
-0.107
-0.105
-0.1085
-0.11
-0.1115
-0.1065
-0.0895
-0.089
-0.121
-0.1055
-0.067
-0.0885
-0.091
-0.094
-0.0735
-0.033
-0.0295
-0.0305
-0.045
-0.0305
-0.0335
-0.0665
-0.074
-0.0595
-0.051
-0.049
-0.0395
-0.051
-0.053
-0.038
-0.03
-0.038
-0.0445
-0.0425
-0.0225
-0.0155
-0.029
-0.008
-0.001
0.0015
-0.001
-0.0025
0.0035
-0.013
-0.008
-0.015
-0.015
0.01
0.0145
0.0155
0.019
0.016
0.018
0.0225
0.02
0.0285
0.026
0.037
0.049
0.0355
0.0615
0.0545
0.017
0.012
0.008
0.001
-0.0035
0.0005
0.039
0.054
0.023
0.0355
0.057
0.066
0.0615
0.051
0.05
0.0465
0.0735
0.07
0.0525
0.068
0.0545
0.0325
0.045
0.0495
0.0365
0.036
0.0415
0.045
0.04
0.048
0.056
0.0455
0.043
0.0505
0.0595
0.0515
0.038
0.04
0.0455
0.042
0.0275
0.02
0.0235
0.024
0.017
0.0185
0.018
0.025
0.04
0.0315
0.0125
0.0225
0.0445
0.0435
0.027
0.015
0.011
0.0235
0.025
-0.005
-0.0115
0.0025
0.006
-0.0085
-0.025
-0.014
0.0065
0.013
0.008
0.0035
0.0025
-0.0055
0.0085
0.0135
-0.003
0.003
0.001
-0.0145
-0.0175
-0.0175
-0.0165
-0.0145
-0.019
-0.029
-0.0455
-0.0375
-0.062
-0.067
-0.014
0.0045
-0.003
-0.0185
-0.018
-0.0125
-0.0265
-0.023
-0.0215
-0.021
0.0075
-0.0315
-0.052
-0.032
-0.0385
-0.024
-0.0225
-0.034
-0.0455
-0.034
-0.0215
-0.033
-0.053
-0.0505
-0.042
-0.04
-0.019
-0.022
-0.0295
-0.0305
-0.0345
-0.048
-0.041
-0.029
-0.057
-0.063
-0.049
-0.044
-0.0565
-0.0605
-0.039
-0.0585
-0.077
-0.0595
-0.038
-0.037
-0.05
-0.016
-0.025
-0.0665
-0.066
-0.0635
-0.0625
-0.061
-0.06
-0.0635
-0.0595
-0.0625
-0.058
-0.0575
-0.0735
-0.057
-0.055
-0.051
-0.037
-0.047
-0.0495
-0.055
-0.0585
-0.042
-0.039
-0.0725
-0.0815
-0.062
-0.076
-0.085
-0.0725
-0.0685
-0.067
-0.0465
-0.0465
-0.0535
-0.0485
-0.048
-0.0385
-0.029
-0.0345
-0.044
-0.045
-0.056
-0.056
-0.0535
-0.06
-0.06
-0.0605
-0.064
-0.0665
-0.055
-0.0475
-0.0485
-0.0495
-0.0445
-0.0335
-0.0405
-0.034
-0.027
-0.0325
-0.0445
-0.047
-0.0305
-0.0545
-0.064
-0.06
-0.0485
-0.047
-0.0585
-0.016
0.0065
-0.0285
-0.051
-0.0515
-0.07
-0.076
-0.0475
-0.028
-0.047
-0.046
-0.017
-0.0225
-0.037
-0.0275
-0.0325
-0.048
-0.0605
-0.0645
-0.0575
-0.0595
-0.059
-0.053
-0.0415
-0.044
-0.052
-0.0435
-0.0325
-0.0235
-0.019
-0.035
-0.0405
-0.033
-0.0435
-0.0465
-0.047
-0.057
-0.062
-0.0685
-0.0775
-0.065
-0.054
-0.0525
-0.0535
-0.062
-0.062
-0.0555
-0.0475
-0.0445
-0.0295
-0.0235
-0.041
-0.0505
-0.0615
-0.0605
-0.0575
-0.0775
-0.0715
-0.0705
-0.075
-0.053
-0.076
-0.097
-0.07
-0.051
-0.046
-0.0335
-0.025
-0.0265
-0.029
-0.0335
-0.047
-0.05
-0.052
-0.0395
-0.014
-0.0145
-0.0375
-0.058
-0.048
-0.056
-0.0355
-0.017
-0.0285
-0.033
-0.05
-0.044
-0.053
-0.0535
-0.0375
-0.0435
-0.041
-0.0415
-0.0355
-0.028
-0.0275
-0.0325
-0.043
-0.0445
-0.0475
-0.0165
-0.01
-0.0265
-0.0185
-0.0215
-0.0075
-0.0035
-0.01
-0.0215
-0.005
0.0295
0.0305
0.035
0.0275
0.0195
0.0375
0.023
-0.0015
0.0075
0.0095
0.0255
0.01
-0.019
-0.009
-0.0125
-0.015
-0.0075
-0.007
0.014
0.014
-0.007
0.0
-0.003
-0.0125
-0.019
0.0105
0.0335
0.0175
-0.0015
-0.024
-0.012
-0.0035
-0.017
-0.0195
-0.026
-0.033
-0.042
-0.0505
-0.051
-0.0355
-0.044
-0.0595
-0.0535
-0.0615
-0.061
-0.067
-0.071
-0.073
-0.0765
-0.077
-0.0645
-0.0695
-0.0925
-0.095
-0.092
-0.0775
-0.0755
-0.08
-0.087
-0.057
-0.063
-0.0835
-0.07
-0.109
-0.104
-0.099
-0.12
-0.109
-0.112
-0.1165
-0.1015
-0.1045
-0.1075
-0.0865
-0.081
-0.0805
-0.0765
-0.1025
-0.1125
-0.0845
-0.0865
-0.101
-0.1365
-0.132
-0.0695
-0.0715
-0.0995
-0.091
-0.0895
-0.123
-0.1035
-0.102
-0.1135
-0.058
-0.0585
-0.086
-0.0955
-0.098
-0.0805
-0.0685
-0.0835
-0.095
-0.0785
-0.0725
-0.0725
-0.0765
-0.089
-0.0995
-0.1135
-0.128
-0.1355
-0.15
-0.1655
-0.16
-0.158
-0.169
-0.1915
-0.198
-0.1995
-0.216
-0.219
-0.2325
-0.253
-0.265
-0.273
-0.2785
-0.277
-0.243
-0.218
-0.2055
-0.1855
-0.1535
-0.114
-0.0725
-0.0335
-0.0185
0.033
0.087
0.1185
0.1615
0.201
0.272
0.3285
0.3615
0.379
0.377
0.396
0.3995
0.37
0.3605
0.413
0.4385
0.4385
0.4305
0.395
0.352
0.3145
0.3075
0.2945
0.267
0.269
0.2905
0.2785
0.2595
0.2545
0.241
0.2155
0.2005
0.193
0.1805
0.163
0.127
0.107
0.116
0.0875
0.0705
0.086
0.063
0.0185
-0.0075
-0.0245
-0.0525
-0.0835
-0.1165
-0.151
-0.1625
-0.172
-0.2065
-0.2305
-0.2715
-0.3085
-0.333
-0.3355
-0.325
-0.3555
-0.373
-0.3795
-0.402
-0.4155
-0.4215
-0.441
-0.45
-0.4715
-0.483
-0.4935
-0.5115
-0.5235
-0.5455
-0.5365
-0.551
-0.5695
-0.5515
-0.531
-0.5275
-0.528
-0.5155
-0.494
-0.4745
-0.4475
-0.42
-0.414
-0.3985
-0.3945
-0.384
-0.3545
-0.3375
-0.3395
-0.333
-0.311
-0.2855
-0.2745
-0.264
-0.218
-0.211
-0.2205
-0.1975
-0.192
-0.1805
-0.1605
-0.17
-0.1735
-0.158
-0.1585
-0.1595
-0.1625
-0.155
-0.143
-0.151
-0.142
-0.152
-0.1415
-0.122
-0.153
-0.1515
-0.1625
-0.1565
-0.1155
-0.1095
-0.1085
-0.1315
-0.132
-0.1255
-0.1415
-0.1305
-0.122
-0.1345
-0.1505
-0.1405
-0.1305
-0.1365
-0.126
-0.14
-0.1375
-0.1465
-0.156
-0.104
-0.101
-0.108
-0.1115
-0.1105
-0.1075
-0.096
-0.0885
-0.128
-0.1225
-0.1025
-0.104
-0.11
-0.107
-0.1025
-0.125
-0.159
-0.145
-0.1175
-0.1215
-0.109
-0.1015
-0.096
-0.0955
-0.104
-0.1035
-0.09
-0.094
-0.1015
-0.0955
-0.1025
-0.101
-0.1015
-0.106
-0.1065
-0.104
-0.0985
-0.0735
-0.067
-0.0975
-0.1015
-0.0865
-0.079
-0.0725
-0.073
-0.0915
-0.066
-0.056
-0.08
-0.0895
-0.1125
-0.108
-0.0905
-0.115
-0.131
-0.062
-0.0605
-0.0835
-0.0435
-0.075
-0.0915
-0.067
-0.0865
-0.0855
-0.05
-0.05
-0.0515
-0.035
-0.039
-0.0575
-0.048
-0.0435
-0.0565
-0.059
-0.0755
-0.0685
-0.0565
-0.051
-0.055
-0.0635
-0.053
-0.0385
-0.011
-0.0005
-0.014
-0.009
0.0115
-0.0025
-0.023
-0.016
-0.009
-0.0085
0.0025
0.003
-0.0075
-0.005
0.0065
0.011
-0.006
0.001
0.016
0.0105
0.028
0.0575
0.056
0.047
0.0695
0.0585
0.028
0.044
0.051
0.0445
0.043
0.039
0.0455
0.053
0.0485
0.051
0.052
0.061
0.0775
0.0775
0.067
0.065
0.0775
0.075
0.0795
0.092
0.0955
0.1055
0.0865
0.054
0.06
0.0735
0.092
0.0905
0.06
0.076
0.087
0.0625
0.078
0.0915
0.086
0.109
0.135
0.087
0.0285
0.0925
0.134
0.1075
0.125
0.1345
0.104
0.0895
0.0955
0.0845
0.0755
0.088
0.097
0.097
0.1025
0.106
0.0925
0.082
0.089
0.101
0.1
0.084
0.09
0.091
0.083
0.0775
0.078
0.0835
0.0645
0.0595
0.0625
0.069
0.0595
0.0345
0.062
0.069
0.0595
0.0875
0.0805
0.0655
0.0665
0.0645
0.05
0.043
0.061
0.059
0.042
0.0295
0.029
0.036
0.028
0.01
0.009
0.0355
0.0495
0.0335
0.0345
0.0425
0.0395
0.0295
0.0275
0.0435
0.037
0.0465
0.0485
-0.0115
-0.0115
0.015
0.0045
0.01
0.017
0.019
0.028
0.0065
-0.03
-0.0335
-0.011
0.0095
-0.002
-0.012
0.0015
0.021
0.02
0.0015
-0.005
-0.005
-0.006
-0.0115
-0.0135
-0.011
-0.0035
-0.0125
-0.022
-0.0125
-0.0105
-0.008
-0.004
-0.002
-0.013
-0.019
-0.007
-0.0065
-0.012
-0.0175
-0.0185
-0.014
-0.0285
-0.0305
-0.01
-0.0095
-0.0235
-0.027
-0.012
-0.0145
-0.029
-0.0075
0.0025
-0.021
-0.019
-0.001
-0.008
-0.0205
-0.012
0.0035
-0.012
-0.034
-0.024
-0.0305
-0.0205
-0.004
-0.0295
-0.025
-0.0415
-0.034
0.009
0.01
0.005
-0.0035
0.0025
0.0075
0.0125
0.003
0.012
0.034
0.003
-0.024
-0.03
-0.017
-0.002
0.0
-0.007
0.0045
0.022
0.0125
0.023
0.0295
0.004
0.0025
0.016
0.03
0.0165
-0.0075
0.0015
-0.0045
-0.005
0.0045
-0.011
-0.0025
0.01
-0.003
0.015
0.0205
0.006
0.0065
-0.006
-0.0135
-0.002
0.0275
0.0245
0.008
0.0175
0.0035
0.0115
0.0235
0.006
-0.004
-0.017
-0.032
-0.0235
-0.0095
-0.033
-0.0145
-0.0055
-0.022
0.001
-0.0155
0.0065
0.066
0.054
0.0045
-0.0055
0.008
0.005
-0.0005
0.01
0.0165
0.0145
0.0195
0.009
0.007
-0.0195
-0.0125
0.019
0.004
0.0185
0.0
-0.013
0.0085
0.0135
0.0255
0.0305
0.0205
0.017
0.011
-0.007
0.0075
0.0235
0.014
-0.006
0.0015
0.0165
0.0115
0.013
0.012
0.0105
0.0075
0.0115
0.0225
0.0145
0.0045
0.0025
0.001
0.0045
0.007
0.005
0.002
0.0065
-0.001
-0.002
0.0145
0.02
0.0135
0.0165
0.0245
0.0115
0.018
0.0305
0.022
0.027
0.016
0.001
0.012
0.021
0.018
0.006
0.007
0.006
-0.0185
-0.008
0.009
-0.003
0.002
0.003
-0.003
-0.0085
-0.0065
-0.0025
0.034
0.0595
0.0435
0.043
0.03
0.0365
0.0275
0.0305
0.038
0.043
0.067
0.0525
0.0715
0.0705
0.064
0.057
0.0725
0.1035
0.0895
0.0835
0.073
0.0805
0.0795
0.084
0.0895
0.0785
0.0715
0.0665
0.0595
0.054
0.042
0.0285
0.04
0.039
0.048
0.052
0.0555
0.066
0.0705
0.08
0.0715
0.0865
0.0905
0.079
0.0845
0.0765
0.0635
0.0565
0.045
0.043
0.0435
0.0185
0.016
0.029
0.0295
0.0215
0.022
0.0225
0.013
-0.006
-0.0135
-0.0155
-0.0205
-0.0225
-0.022
-0.004
-0.0065
-0.0355
-0.049
0.0025
0.009
-0.0425
-0.033
-0.034
-0.0505
-0.017
-0.0065
-0.0135
-0.0065
-0.005
0.0185
0.005
-0.0305
-0.0385
-0.056
-0.0505
-0.0365
-0.037
-0.033
-0.039
-0.0435
-0.044
-0.039
-0.039
-0.0445
-0.0335
-0.032
-0.0365
-0.022
-0.028
-0.043
-0.043
-0.0345
-0.0305
-0.041
-0.043
-0.0385
-0.04
-0.0455
-0.0535
-0.058
-0.049
-0.0525
-0.0335
-0.0235
-0.048
-0.0475
-0.038
-0.0275
-0.03
-0.0395
-0.0495
-0.063
-0.0555
-0.051
-0.069
-0.097
-0.1295
-0.1355
-0.14
-0.1525
-0.1535
-0.172
-0.194
-0.1895
-0.2315
-0.259
-0.226
-0.2245
-0.209
-0.1965
-0.1835
-0.152
-0.1445
-0.1495
-0.1095
-0.053
-0.008
0.0235
0.044
0.088
0.1305
0.18
0.2345
0.2925
0.339
0.367
0.39
0.413
0.4275
0.4535
0.484
0.482
0.4685
0.4685
0.4715
0.457
0.4575
0.413
0.359
0.3375
0.309
0.291
0.2695
0.27
0.274
0.276
0.2825
0.293
0.2585
0.222
0.227
0.2125
0.2325
0.2265
0.163
0.1205
0.0935
0.0785
0.0755
0.069
0.039
0.028
0.0335
0.0015
-0.0235
-0.034
-0.074
-0.1175
-0.1265
-0.149
-0.1535
-0.149
-0.176
-0.203
-0.243
-0.2865
-0.328
-0.3515
-0.324
-0.299
-0.328
-0.3405
-0.3685
-0.4245
-0.4505
-0.4635
-0.4455
-0.429
-0.4385
-0.4375
-0.4305
-0.4495
-0.472
-0.4745
-0.479
-0.4765
-0.474
-0.474
-0.4625
-0.4445
-0.3975
-0.3745
-0.372
-0.3395
-0.34
-0.342
-0.3085
-0.2995
-0.2845
-0.269
-0.251
-0.2105
-0.2175
-0.1975
-0.1625
-0.186
-0.1965
-0.183
-0.16
-0.145
-0.1325
-0.127
-0.129
-0.1145
-0.103
-0.104
-0.109
-0.102
-0.098
-0.0975
-0.0845
-0.081
-0.0885
-0.092
-0.0825
-0.0855
-0.0905
-0.096
-0.086
-0.0625
-0.071
-0.087
-0.0945
-0.0825
-0.078
-0.085
-0.0845
-0.0745
-0.0675
-0.064
-0.0835
-0.091
-0.0775
-0.065
-0.0485
-0.0655
-0.0775
-0.081
-0.0975
-0.1
-0.084
-0.0875
-0.1135
-0.1005
-0.05
-0.0605
-0.076
-0.073
-0.087
-0.06
-0.069
-0.0815
-0.0755
-0.077
-0.0745
-0.0875
-0.0905
-0.0885
-0.0865
-0.102
-0.096
-0.065
-0.0705
-0.073
-0.062
-0.0685
-0.0715
-0.0705
-0.063
-0.0495
-0.0545
-0.061
-0.0545
-0.0645
-0.074
-0.078
-0.0865
-0.0795
-0.0745
-0.086
-0.0785
-0.078
-0.095
-0.08
-0.0685
-0.061
-0.057
-0.0705
-0.0745
-0.067
-0.0645
-0.0565
-0.0595
-0.0705
-0.0565
-0.064
-0.0555
-0.026
-0.058
-0.0925
-0.0795
-0.08
-0.1055
-0.102
-0.0215
0.0215
-0.007
0.0015
-0.025
-0.044
-0.0425
-0.042
-0.0175
-0.0185
-0.007
-0.0245
-0.033
-0.018
-0.024
-0.02
-0.0235
-0.0155
-0.0025
0.0005
0.001
0.0015
0.025
0.031
0.0235
0.0325
0.0235
0.041
0.0495
0.0215
0.0195
0.027
0.0265
0.0215
0.031
0.0395
0.039
0.045
0.057
0.0785
0.0695
0.0565
0.073
0.0805
0.095
0.1005
0.097
0.111
0.1075
0.102
0.097
0.102
0.112
0.0945
0.092
0.092
0.092
0.081
0.075
0.1085
0.118
0.1
0.114
0.1395
0.1235
0.1015
0.1055
0.134
0.1415
0.1275
0.1235
0.098
0.1025
0.1115
0.1135
0.124
0.122
0.126
0.1165
0.116
0.1025
0.115
0.138
0.1395
0.1535
0.128
0.105
0.1335
0.1625
0.156
0.121
0.109
0.126
0.123
0.113
0.109
0.1125
0.1155
0.124
0.1315
0.126
0.121
0.1175
0.127
0.136
0.1315
0.1065
0.108
0.1305
0.1195
0.113
0.1055
0.0965
0.098
0.0975
0.0965
0.0975
0.093
0.084
0.0835
0.0835
0.0915
0.0965
0.0945
0.0925
0.0895
0.0825
0.0745
0.0715
0.0735
0.072
0.0515
0.044
0.0475
0.0455
0.048
0.05
0.045
0.0485
0.0415
0.034
0.063
0.0815
0.1
0.1035
0.087
0.0445
0.0055
0.0305
0.036
0.0135
-0.001
0.006
0.029
0.028
0.019
0.0195
0.013
0.013
0.0125
-0.003
-0.0155
-0.007
0.028
0.028
0.009
0.0205
0.032
0.018
-0.012
-0.0045
0.0195
0.0115
0.0085
-0.0175
-0.0315
-0.022
-0.0365
-0.018
-0.0095
-0.005
0.0005
-0.004
-0.0015
-0.013
-0.0065
-0.0015
-0.007
-0.005
-0.0165
-0.0165
-0.014
-0.0315
-0.0365
-0.0345
-0.031
-0.023
-0.0285
-0.0325
-0.0305
-0.0325
-0.0365
-0.0355
-0.0265
-0.0275
-0.0315
-0.0395
-0.0405
-0.0225
-0.026
-0.0245
-0.022
-0.0465
-0.056
-0.065
-0.05
-0.0355
-0.035
-0.0245
-0.023
-0.0195
-0.0295
-0.0085
-0.0005
-0.027
-0.0345
-0.0435
-0.037
-0.0335
-0.0495
-0.0395
-0.0395
-0.01
-0.0035
-0.077
-0.0725
-0.0435
-0.051
-0.0475
-0.048
-0.031
-0.0265
-0.051
-0.054
-0.0385
-0.0455
-0.0345
-0.0355
-0.0545
-0.0475
-0.0675
-0.086
-0.0775
-0.0425
-0.038
-0.0535
-0.059
-0.0635
-0.059
-0.071
-0.056
-0.0485
-0.051
-0.029
-0.0205
-0.036
-0.0515
-0.0575
-0.072
-0.0645
-0.0365
-0.0385
-0.0545
-0.0645
-0.0685
-0.0645
-0.055
-0.052
-0.0535
-0.0475
-0.0405
-0.0385
-0.0455
-0.0555
-0.028
-0.0155
-0.0575
-0.0805
-0.0575
-0.0375
-0.0455
-0.053
-0.057
-0.057
-0.065
-0.0695
-0.0675
-0.0645
-0.053
-0.0535
-0.0515
-0.0375
-0.0405
-0.0445
-0.0455
-0.046
-0.0565
-0.039
-0.033
-0.067
-0.042
-0.066
-0.098
-0.074
-0.07
-0.0595
-0.0595
-0.069
-0.057
-0.0335
-0.0335
-0.05
-0.06
-0.053
-0.0315
-0.051
-0.0615
-0.0385
-0.049
-0.03
-0.03
-0.0535
-0.063
-0.0905
-0.069
-0.0505
-0.0595
-0.0375
-0.0255
-0.047
-0.058
-0.044
-0.037
-0.041
-0.0355
-0.068
-0.1015
-0.0565
-0.0175
-0.0325
-0.054
-0.052
-0.052
-0.0645
-0.0685
-0.0695
-0.0585
-0.0485
-0.0415
-0.0385
-0.0425
-0.0505
-0.05
-0.046
-0.053
-0.0495
-0.044
-0.031
-0.032
-0.035
-0.0315
-0.035
-0.0295
-0.037
-0.033
-0.0185
-0.014
-0.0155
-0.0115
-0.001
0.016
0.0255
0.0175
0.017
0.022
0.0225
0.024
0.0265
0.026
0.048
0.035
0.0025
0.0
0.021
0.0205
-0.0245
-0.032
-0.036
-0.05
-0.0405
-0.012
-0.0215
-0.041
-0.0255
-0.0325
-0.034
-0.0135
0.0005
-0.0005
0.011
0.0155
-0.0075
-0.0045
0.0055
-0.018
-0.0085
-0.002
-0.0435
-0.053
-0.048
-0.048
-0.048
-0.046
-0.0445
-0.052
-0.0555
-0.051
-0.053
-0.068
-0.0725
-0.0695
-0.071
-0.075
-0.0795
-0.079
-0.0795
-0.0875
-0.0895
-0.0745
-0.072
-0.081
-0.0815
-0.0815
-0.073
-0.0685
-0.0705
-0.0705
-0.0655
-0.0775
-0.092
-0.086
-0.0875
-0.0805
-0.072
-0.0645
-0.0635
-0.087
-0.0785
-0.0625
-0.066
-0.0695
-0.0785
-0.076
-0.079
-0.071
-0.0725
-0.0825
-0.0735
-0.07
-0.081
-0.069
-0.053
-0.0765
-0.0685
-0.0785
-0.1045
-0.102
-0.093
-0.083
-0.086
-0.072
-0.0585
-0.069
-0.0895
-0.042
-0.0315
-0.0785
-0.0715
-0.0725
-0.0665
-0.095
-0.1095
-0.0785
-0.1015
-0.128
-0.136
-0.152
-0.176
-0.1765
-0.177
-0.2145
-0.206
-0.1825
-0.2145
-0.228
-0.214
-0.22
-0.2325
-0.2315
-0.206
-0.183
-0.1745
-0.1595
-0.125
-0.0765
-0.0315
-0.0025
0.0045
0.035
0.092
0.14
0.1895
0.2285
0.265
0.3145
0.361
0.3965
0.4205
0.4185
0.414
0.425
0.434
0.435
0.441
0.4465
0.439
0.4125
0.357
0.304
0.283
0.2545
0.2275
0.2165
0.225
0.2355
0.2175
0.2355
0.2275
0.1675
0.1575
0.152
0.168
0.2275
0.1945
0.092
0.0555
0.07
0.06
0.0305
0.0075
-0.0005
-0.012
-0.033
-0.0375
-0.055
-0.1015
-0.1095
-0.1235
-0.1845
-0.2165
-0.2295
-0.247
-0.27
-0.3065
-0.334
-0.332
-0.3515
-0.381
-0.404
-0.4005
-0.3935
-0.4175
-0.4255
-0.479
-0.495
-0.4745
-0.49
-0.496
-0.517
-0.5395
-0.5605
-0.553
-0.551
-0.5505
-0.529
-0.512
-0.505
-0.499
-0.478
-0.4585
-0.4415
-0.418
-0.4035
-0.376
-0.3265
-0.318
-0.31
-0.298
-0.289
-0.2775
-0.3015
-0.2825
-0.246
-0.2285
-0.206
-0.222
-0.245
-0.22
-0.191
-0.1885
-0.178
-0.175
-0.188
-0.19
-0.174
-0.1705
-0.167
-0.165
-0.168
-0.154
-0.155
-0.146
-0.1375
-0.155
-0.1695
-0.1625
-0.1535
-0.159
-0.164
-0.1605
-0.158
-0.166
-0.1515
-0.1355
-0.136
-0.1505
-0.1585
-0.1425
-0.1395
-0.143
-0.1425
-0.148
-0.1535
-0.1535
-0.155
-0.1515
-0.1585
-0.1595
-0.1545
-0.159
-0.1495
-0.149
-0.151
-0.1545
-0.159
-0.1615
-0.152
-0.1425
-0.164
-0.1615
-0.155
-0.156
-0.1615
-0.1785
-0.1815
-0.2065
-0.1875
-0.1325
-0.154
-0.172
-0.138
-0.1385
-0.1535
-0.1405
-0.1445
-0.162
-0.153
-0.1425
-0.1435
-0.138
-0.1385
-0.15
-0.1575
-0.148
-0.154
-0.1595
-0.1475
-0.1605
-0.1635
-0.153
-0.141
-0.12
-0.1215
-0.1255
-0.1225
-0.124
-0.1355
-0.143
-0.135
-0.1285
-0.141
-0.1545
-0.139
-0.13
-0.1375
-0.136
-0.1485
-0.1615
-0.14
-0.109
-0.1035
-0.117
-0.1185
-0.118
-0.1185
-0.111
-0.1085
-0.1175
-0.1235
-0.1255
-0.1195
-0.119
-0.1105
-0.1275
-0.1545
-0.104
-0.097
-0.122
-0.0915
-0.084
-0.079
-0.0735
-0.0765
-0.0695
-0.0665
-0.063
-0.048
-0.044
-0.0635
-0.065
-0.085
-0.0625
-0.0225
-0.0355
-0.0225
-0.0165
-0.037
-0.0415
-0.033
-0.023
-0.0215
-0.029
0.0045
0.021
-0.004
0.0025
0.0065
0.002
0.017
0.023
0.002
-0.003
0.014
0.0055
-0.012
-0.0035
0.0235
0.028
0.0375
0.0365
0.021
0.0535
0.045
0.024
0.036
0.0315
0.02
0.05
0.093
0.077
0.0685
0.0885
0.082
0.0665
0.067
0.066
0.076
0.0795
0.0655
0.077
0.0825
0.0805
0.088
0.0835
0.089
0.089
0.1005
0.0925
0.056
0.085
0.1085
0.073
0.06
0.049
0.059
0.095
0.0595
0.0575
0.08
0.0655
0.0665
0.084
0.091
0.073
0.0725
0.0665
0.0805
0.0785
0.064
0.0755
0.0665
0.0705
0.066
0.0585
0.066
0.0605
0.0385
0.033
0.0485
0.0625
0.0755
0.068
0.0595
0.0495
0.0545
0.07
0.062
0.0345
0.0315
0.056
0.0365
0.0105
0.0035
0.0155
0.0145
0.0145
0.0025
-0.013
0.0085
0.008
0.0145
0.015
0.0065
0.002
0.012
0.01
-0.006
0.0035
0.002
-0.01
-0.0235
-0.0275
-0.022
-0.024
-0.029
-0.0305
-0.0445
-0.045
-0.0315
-0.021
-0.008
-0.012
-0.018
-0.0185
-0.0185
-0.023
-0.017
-0.013
-0.019
-0.016
-0.024
-0.036
-0.05
-0.0715
-0.0665
-0.035
-0.0425
-0.051
-0.047
-0.0355
-0.009
-0.008
-0.0155
-0.038
-0.0405
-0.0305
-0.028
-0.031
-0.034
-0.035
-0.043
-0.0485
-0.0475
-0.046
-0.043
-0.051
-0.0395
-0.0225
-0.05
-0.053
-0.0535
-0.0325
-0.0335
-0.085
-0.085
-0.057
-0.051
-0.052
-0.047
-0.08
-0.1015
-0.0835
-0.078
-0.0705
-0.0795
-0.077
-0.0765
-0.1035
-0.088
-0.079
-0.077
-0.066
-0.0765
-0.0765
-0.0665
-0.0635
-0.0565
-0.0595
-0.0645
-0.0635
-0.0715
-0.1
-0.1025
-0.068
-0.072
-0.0785
-0.077
-0.069
-0.067
-0.072
-0.0605
-0.0715
-0.075
-0.066
-0.0435
-0.0555
-0.063
-0.046
-0.058
-0.055
-0.0525
-0.0555
-0.052
-0.047
-0.07
-0.0705
-0.063
-0.0715
-0.0535
-0.0745
-0.089
-0.0825
-0.0635
-0.019
-0.009
-0.0485
-0.054
-0.04
-0.076
-0.105
-0.1165
-0.076
-0.0445
-0.065
-0.063
-0.07
-0.087
-0.0795
-0.0685
-0.056
-0.0495
-0.0535
-0.059
-0.0565
-0.051
-0.0575
-0.055
-0.0525
-0.0555
-0.059
-0.0625
-0.074
-0.0705
-0.0745
-0.0935
-0.0895
-0.075
-0.052
-0.0545
-0.0695
-0.0755
-0.071
-0.0585
-0.05
-0.0435
-0.053
-0.0475
-0.0475
-0.061
-0.0715
-0.06
-0.0495
-0.0615
-0.0695
-0.0745
-0.063
-0.067
-0.073
-0.074
-0.059
-0.045
-0.0675
-0.0705
-0.047
-0.0495
-0.079
-0.0595
-0.042
-0.0545
-0.057
-0.064
-0.0675
-0.074
-0.0715
-0.0705
-0.065
-0.049
-0.048
-0.0495
-0.048
-0.0505
-0.051
-0.0505
-0.0575
-0.0445
-0.023
-0.0275
-0.0535
-0.0635
-0.057
-0.06
-0.0655
-0.062
-0.0615
-0.06
-0.0465
-0.054
-0.0565
-0.057
-0.0525
-0.0485
-0.043
-0.0515
-0.066
-0.032
-0.024
-0.0315
-0.058
-0.078
-0.075
-0.0695
-0.0565
-0.041
-0.033
-0.042
-0.026
-0.047
-0.035
-0.001
-0.0215
-0.0215
-0.0215
0.004
0.0285
0.038
0.0235
-0.002
0.011
0.0065
0.013
0.043
0.068
0.0475
0.0065
0.0115
0.0195
0.0125
0.017
0.014
0.0135
0.0235
0.031
0.018
0.019
0.0215
0.0235
0.048
0.01
-0.0295
-0.031
-0.0245
-0.0165
-0.016
-0.016
-0.019
-0.0075
0.0125
0.021
0.017
0.007
0.014
0.033
0.018
-0.003
-0.018
-0.0255
-0.018
-0.031
-0.0465
-0.0435
-0.068
-0.077
-0.0695
-0.0705
-0.0385
-0.016
-0.0405
-0.0725
-0.0655
-0.072
-0.083
-0.085
-0.0655
-0.0595
-0.0875
-0.0855
-0.0875
-0.099
-0.1055
-0.0985
-0.0835
-0.0905
-0.11
-0.1025
-0.111
-0.106
-0.072
-0.082
-0.098
-0.1135
-0.104
-0.0485
-0.0565
-0.079
-0.059
-0.058
-0.052
-0.0635
-0.1005
-0.086
-0.069
-0.0985
-0.0985
-0.0875
-0.0955
-0.12
-0.12
-0.0705
-0.0625
-0.081
-0.0765
-0.0585
-0.057
-0.0685
-0.0725
-0.068
-0.0665
-0.0885
-0.095
-0.077
-0.066
-0.084
-0.098
-0.0975
-0.1005
-0.102
-0.119
-0.1225
-0.099
-0.102
-0.1285
-0.1445
-0.1575
-0.1615
-0.1735
-0.1935
-0.196
-0.229
-0.2575
-0.252
-0.261
-0.2745
-0.263
-0.2485
-0.2485
-0.2505
-0.2345
-0.206
-0.193
-0.1775
-0.154
-0.13
-0.071
-0.009
0.015
0.04
0.054
0.084
0.139
0.2235
0.3105
0.3105
0.322
0.3665
0.391
0.4205
0.4255
0.411
0.41
0.422
0.4505
0.467
0.4465
0.415
0.3575
0.292
0.265
0.242
0.2135
0.2145
0.2315
0.233
0.214
0.2025
0.213
0.219
0.209
0.1715
0.1515
0.16
0.1445
0.116
0.101
0.1035
0.0725
0.029
0.025
0.012
-0.0105
-0.0235
-0.051
-0.077
-0.0955
-0.1255
-0.1525
-0.1795
-0.207
-0.227
-0.2605
-0.283
-0.2945
-0.3075
-0.324
-0.349
-0.374
-0.4015
-0.4155
-0.435
-0.4615
-0.4815
-0.4785
-0.4805
-0.4925
-0.529
-0.569
-0.551
-0.5385
-0.5275
-0.538
-0.55
-0.526
-0.5085
-0.503
-0.507
-0.498
-0.475
-0.447
-0.4275
-0.4185
-0.399
-0.36
-0.328
-0.325
-0.3435
-0.324
-0.2795
-0.2815
-0.2745
-0.2575
-0.2135
-0.188
-0.224
-0.224
-0.198
-0.1775
-0.1845
-0.1895
-0.179
-0.1705
-0.166
-0.167
-0.17
-0.1685
-0.1645
-0.161
-0.1545
-0.154
-0.1445
-0.139
-0.1385
-0.135
-0.136
-0.136
-0.1315
-0.138
-0.1355
-0.1305
-0.1295
-0.123
-0.137
-0.1345
-0.1295
-0.1365
-0.137
-0.133
-0.129
-0.1335
-0.13
-0.127
-0.14
-0.1435
-0.1275
-0.1275
-0.1265
-0.128
-0.1305
-0.1195
-0.118
-0.1175
-0.1275
-0.1325
-0.1495
-0.176
-0.1455
-0.108
-0.1115
-0.1295
-0.158
-0.1285
-0.101
-0.122
-0.1005
-0.1255
-0.123
-0.117
-0.1235
-0.131
-0.173
-0.095
-0.075
-0.117
-0.1155
-0.119
-0.136
-0.1505
-0.145
-0.148
-0.128
-0.1305
-0.1375
-0.1105
-0.0955
-0.1015
-0.1115
-0.1195
-0.1065
-0.0935
-0.1055
-0.113
-0.11
-0.1065
-0.11
-0.1105
-0.1105
-0.111
-0.1095
-0.1135
-0.111
-0.1035
-0.1105
-0.114
-0.1065
-0.0985
-0.082
-0.0905
-0.12
-0.109
-0.074
-0.0765
-0.089
-0.104
-0.1295
-0.1165
-0.094
-0.086
-0.086
-0.0935
-0.0795
-0.0755
-0.0795
-0.0635
-0.0335
-0.043
-0.0615
-0.074
-0.096
-0.0595
-0.066
-0.0635
-0.043
-0.074
-0.068
-0.0595
-0.0705
-0.0505
-0.039
-0.0635
-0.0565
-0.0425
-0.0345
-0.023
-0.0265
-0.0205
-0.0175
-0.0155
0.0145
0.0275
0.003
-0.008
0.01
-0.0085
-0.021
-0.0015
0.016
0.0165
0.0035
0.002
0.009
0.026
0.017
0.029
0.039
0.033
0.0445
0.0415
0.0585
0.0585
0.035
0.0295
0.0355
0.056
0.0545
0.0405
0.041
0.049
0.0505
0.051
0.054
0.058
0.0625
0.0645
0.098
0.099
0.0675
0.061
0.078
0.0965
0.0835
0.078
0.0815
0.088
0.095
0.084
0.076
0.0695
0.069
0.0645
0.0725
0.0745
0.0765
0.1085
0.0945
0.1035
0.108
0.057
0.058
0.06
0.0695
0.071
0.047
0.0425
0.0355
0.0545
0.062
0.063
0.073
0.0715
0.071
0.066
0.0645
0.053
0.056
0.069
0.065
0.0565
0.055
0.05
0.039
0.0345
0.0285
0.049
0.0455
0.0255
0.0315
0.032
0.0225
0.0205
0.024
0.023
0.0275
0.028
0.0315
0.03
0.029
0.0185
0.0145
-0.0125
-0.046
-0.034
0.0
0.0485
0.038
0.0065
0.003
-0.006
-0.0375
-0.0295
0.0035
-0.0195
-0.03
-0.021
-0.018
-0.001
-0.002
-0.0175
-0.006
-0.008
-0.014
-0.0215
-0.047
-0.044
-0.0385
-0.0505
-0.053
-0.051
-0.0595
-0.058
-0.051
-0.0495
-0.044
-0.0415
-0.0405
-0.0445
-0.0445
-0.044
-0.0375
-0.044
-0.056
-0.053
-0.0605
-0.0625
-0.056
-0.0595
-0.0655
-0.06
-0.06
-0.076
-0.074
-0.062
-0.055
-0.05
-0.052
-0.0505
-0.055
-0.057
-0.063
-0.0705
-0.058
-0.0535
-0.053
-0.044
-0.055
-0.0735
-0.101
-0.0885
-0.043
-0.062
-0.058
-0.0265
-0.0355
-0.061
-0.0545
-0.028
-0.064
-0.082
-0.0515
-0.039
-0.027
-0.014
-0.0425
-0.092
-0.0805
-0.059
-0.0655
-0.0565
-0.0495
-0.059
-0.0595
-0.052
-0.049
-0.042
-0.038
-0.0445
-0.049
-0.0525
-0.052
-0.061
-0.061
-0.034
-0.0315
-0.0485
-0.0555
-0.0425
-0.047
-0.0545
-0.0555
-0.079
-0.056
-0.027
-0.045
-0.0645
-0.0575
-0.0315
-0.017
-0.016
-0.0225
-0.031
-0.026
-0.029
-0.0525
-0.0645
-0.051
-0.047
-0.0595
-0.067
-0.072
-0.061
-0.053
-0.0255
0.001
-0.0285
-0.024
-0.017
-0.03
-0.05
-0.055
-0.037
-0.048
-0.0385
-0.0435
-0.0665
-0.062
-0.038
-0.032
-0.0365
-0.047
-0.033
-0.015
-0.041
-0.028
-0.023
-0.0295
-0.025
-0.0285
-0.026
-0.0335
-0.023
-0.0385
-0.0565
-0.0485
-0.041
-0.0455
-0.0475
-0.0065
-0.018
-0.0585
-0.0525
-0.042
-0.029
-0.0245
-0.03
-0.031
-0.028
-0.026
-0.031
-0.0275
-0.032
-0.049
-0.0375
-0.033
-0.041
-0.051
-0.0705
-0.0465
-0.035
-0.047
-0.05
-0.068
-0.0645
-0.0615
-0.0575
-0.0255
-0.02
-0.0295
-0.0115
-0.0135
-0.059
-0.059
-0.0385
-0.041
-0.0355
-0.043
-0.0375
-0.0335
-0.033
-0.0435
-0.0525
-0.0455
-0.0465
-0.0355
-0.031
-0.0225
-0.009
-0.0105
-0.0145
-0.0175
-0.024
-0.036
-0.0455
-0.025
-0.0205
-0.0325
-0.027
-0.0295
-0.0305
-0.0355
-0.0345
-0.0265
-0.0235
-0.0115
-0.009
-0.0095
0.004
0.011
0.035
0.0365
-0.01
0.0
0.0035
-0.005
0.0175
0.0235
0.033
0.031
0.0345
0.0265
0.011
0.0135
0.023
0.027
0.031
0.04
0.002
-0.0135
-0.0155
-0.028
0.001
0.002
0.0015
0.0105
0.0
-0.0045
0.009
0.025
0.028
0.0215
0.027
0.0565
0.0335
0.0005
0.006
0.0295
0.0385
0.0185
0.0045
-0.019
-0.0175
-0.009
-0.0265
-0.0365
-0.055
-0.078
-0.0755
-0.064
-0.025
-0.0085
-0.036
-0.047
-0.052
-0.0425
-0.0355
-0.0415
-0.0365
-0.0435
-0.065
-0.052
-0.038
-0.047
-0.054
-0.061
-0.0585
-0.0585
-0.0575
-0.0585
-0.0605
-0.071
-0.0765
-0.0745
-0.0655
-0.031
-0.025
-0.0475
-0.081
-0.0785
-0.054
-0.028
-0.016
-0.0365
-0.034
-0.0555
-0.0605
-0.027
-0.0425
-0.057
-0.037
-0.073
-0.081
-0.05
-0.0375
-0.0255
-0.05
-0.059
-0.0525
-0.041
-0.035
-0.035
-0.0355
-0.034
-0.038
-0.045
-0.062
-0.0795
-0.055
-0.053
-0.046
-0.04
-0.0615
-0.0755
-0.0775
-0.0725
-0.083
-0.1045
-0.1255
-0.136
-0.159
-0.172
-0.1805
-0.201
-0.203
-0.2095
-0.2245
-0.233
-0.2395
-0.2495
-0.2595
-0.2565
-0.2375
-0.2275
-0.2015
-0.1275
-0.1045
-0.11
-0.057
-0.026
-0.01
0.0355
0.079
0.118
0.1645
0.2015
0.2415
0.319
0.3595
0.3625
0.3875
0.408
0.4215
0.4205
0.4255
0.441
0.4625
0.4845
0.4725
0.421
0.3565
0.3245
0.3
0.272
0.252
0.235
0.2465
0.252
0.253
0.2615
0.2455
0.2275
0.2125
0.204
0.1945
0.177
0.171
0.137
0.1075
0.11
0.1115
0.0895
0.0365
0.0055
-0.03
-0.044
-0.0675
-0.1085
-0.099
-0.12
-0.1545
-0.184
-0.198
-0.216
-0.249
-0.2685
-0.2895
-0.313
-0.342
-0.3575
-0.387
-0.38
-0.3855
-0.419
-0.4315
-0.4535
-0.44
-0.4545
-0.498
-0.4905
-0.492
-0.508
-0.5235
-0.528
-0.517
-0.5235
-0.5215
-0.5225
-0.512
-0.4945
-0.4835
-0.4875
-0.495
-0.4325
-0.402
-0.416
-0.4045
-0.386
-0.3625
-0.346
-0.3375
-0.321
-0.291
-0.2635
-0.225
-0.193
-0.2045
-0.221
-0.204
-0.204
-0.187
-0.167
-0.1785
-0.1615
-0.1665
-0.168
-0.1485
-0.1285
-0.124
-0.1305
-0.124
-0.1325
-0.121
-0.116
-0.1165
-0.1255
-0.127
-0.105
-0.1045
-0.108
-0.1035
-0.084
-0.089
-0.0985
-0.0925
-0.103
-0.1075
-0.1045
-0.1035
-0.106
-0.1105
-0.1135
-0.1125
-0.1165
-0.116
-0.105
-0.1015
-0.105
-0.111
-0.1035
-0.108
-0.127
-0.136
-0.113
-0.0975
-0.1115
-0.124
-0.1225
-0.1265
-0.125
-0.079
-0.1015
-0.119
-0.103
-0.105
-0.095
-0.107
-0.077
-0.059
-0.0995
-0.113
-0.096
-0.0925
-0.0955
-0.104
-0.119
-0.083
-0.0665
-0.118
-0.1375
-0.125
-0.1215
-0.1155
-0.109
-0.1045
-0.0955
-0.095
-0.0985
-0.0935
-0.0945
-0.095
-0.0875
-0.095
-0.095
-0.0975
-0.114
-0.108
-0.0995
-0.1055
-0.1085
-0.112
-0.1045
-0.089
-0.095
-0.0835
-0.0515
-0.069
-0.0885
-0.076
-0.0915
-0.0905
-0.065
-0.0675
-0.084
-0.0895
-0.0835
-0.087
-0.0895
-0.095
-0.092
-0.0835
-0.0865
-0.079
-0.062
-0.058
-0.059
-0.064
-0.0725
-0.0565
-0.0475
-0.0365
-0.0365
-0.0415
-0.029
-0.0375
-0.036
-0.038
-0.0395
-0.033
-0.0155
-0.0205
-0.045
-0.0285
-0.0205
-0.0135
-0.008
-0.0095
0.003
0.0115
0.0135
0.018
0.025
0.029
0.0215
0.0005
0.008
0.0265
0.0285
0.0235
0.023
0.0225
0.0135
0.0305
0.0715
0.0285
-0.018
-0.0075
0.013
0.0675
0.0675
0.0755
0.0825
0.0585
0.06
0.064
0.0575
0.054
0.0785
0.076
0.073
0.0835
0.078
0.074
0.0785
0.091
0.0945
0.0975
0.0905
0.095
0.1095
0.1185
0.12
0.091
0.0875
0.094
0.083
0.075
0.0845
0.09
0.089
0.0985
0.0905
0.091
0.0965
0.0985
0.091
0.099
0.107
0.1
0.1015
0.101
0.104
0.091
0.0855
0.095
0.0945
0.084
0.08
0.059
0.0725
0.089
0.0655
0.0655
0.056
0.052
0.0585
0.0785
0.077
0.0815
0.087
0.059
0.07
0.085
0.0695
0.0445
0.038
0.0445
0.0395
0.059
0.066
0.036
0.011
0.001
0.032
0.0435
0.0465
0.0505
0.031
0.0385
0.0255
0.015
0.0285
0.029
0.0215
0.0105
0.002
0.0
0.0075
-0.018
-0.024
-0.02
-0.027
0.0015
0.014
0.029
0.024
0.006
-0.007
-0.0225
-0.016
-0.01
0.0065
0.009
-0.011
-0.0205
-0.04
-0.0375
-0.0175
-0.0505
-0.037
-0.0095
-0.0455
-0.044
-0.0345
-0.018
0.003
-0.0145
-0.026
-0.0275
-0.0355
-0.0345
-0.0315
-0.0345
-0.0245
-0.0165
-0.031
-0.0545
-0.068
-0.07
-0.063
-0.054
-0.053
-0.0575
-0.0535
-0.0445
-0.038
-0.0415
-0.04
-0.0285
-0.032
-0.0395
-0.04
-0.0415
-0.039
-0.04
-0.0445
-0.049
-0.052
-0.052
-0.049
-0.05
-0.0405
-0.0365
-0.074
-0.045
-0.011
-0.0315
-0.034
-0.0285
-0.029
-0.037
-0.0165
-0.023
-0.031
-0.0295
-0.0315
-0.001
-0.0095
-0.0615
-0.083
-0.0575
-0.042
-0.0385
-0.031
-0.04
-0.049
-0.0455
-0.0365
-0.0165
-0.014
-0.0215
-0.0195
-0.0185
-0.019
-0.023
-0.011
-0.032
-0.055
-0.0475
-0.0215
0.0005
-0.017
-0.0295
-0.026
-0.0135
-0.0215
0.0025
0.0185
0.0075
0.0065
-0.0095
0.0195
0.0225
-0.018
-0.027
-0.0295
-0.0225
-0.017
-0.0215
-0.0225
-0.032
-0.031
-0.023
-0.022
-0.017
-0.008
-0.003
-0.0035
-0.001
-0.005
-0.012
-0.013
-0.007
-0.006
-0.008
-0.0085
-0.0255
-0.0325
-0.0485
-0.042
-0.0145
-0.003
-0.0025
-0.028
-0.012
0.004
-0.004
0.0125
0.0105
-0.0035
-0.017
-0.0255
-0.0095
-0.0145
-0.025
-0.021
-0.0225
-0.0305
-0.03
-0.018
-0.0295
-0.025
-0.015
-0.022
-0.0145
-0.007
0.003
0.0095
0.015
0.002
-0.0065
-0.006
-0.015
-0.015
-0.0165
-0.008
-0.011
-0.013
-0.0175
-0.0175
-0.0155
-0.0185
-0.013
-0.004
0.0035
-0.005
-0.0065
-0.0045
0.007
0.021
0.0225
0.0325
0.0045
-0.012
-0.0075
-0.036
-0.027
-0.018
-0.015
-0.0165
-0.023
0.0015
-0.001
-0.016
-0.0095
0.001
0.0005
-0.001
-0.0025
-0.0075
-0.004
-0.0125
-0.018
0.006
0.0075
-0.0065
0.0005
0.0015
-0.0045
-0.001
0.008
0.0095
0.0495
0.0555
0.0265
0.0535
0.0655
0.089
0.0935
0.059
0.0655
0.073
0.063
0.082
0.088
0.067
0.06
0.0675
0.079
0.0745
0.0645
0.067
0.072
0.0605
0.0635
0.0715
0.067
0.0585
0.0515
0.0565
0.053
0.0625
0.057
0.0595
0.072
0.066
0.07
0.0505
0.0715
0.0965
0.0555
0.028
0.065
0.0865
0.0385
0.0405
0.063
0.0485
0.0455
0.044
0.036
0.0195
0.0055
0.0
0.0175
0.0335
0.0085
-0.0165
-0.02
-0.0145
-0.0035
0.0
-0.0005
0.0075
0.0085
-0.002
-0.004
-0.0005
-0.0085
-0.019
-0.0165
-0.019
-0.0295
-0.0395
-0.023
0.0015
-0.0035
-0.014
-0.024
-0.0335
-0.034
-0.023
-0.016
-0.022
-0.031
-0.02
-0.0115
-0.0215
-0.027
-0.0325
-0.002
-0.002
-0.0345
-0.0325
-0.0335
-0.018
-0.0245
-0.041
-0.0505
-0.049
-0.024
-0.017
-0.004
-0.0275
-0.05
-0.0545
-0.0405
0.0075
0.02
0.0085
-0.022
-0.032
-0.0295
-0.0345
-0.042
-0.036
-0.0245
-0.029
-0.024
-0.0235
-0.049
-0.0565
-0.0515
-0.079
-0.07
-0.078
-0.0885
-0.1035
-0.131
-0.142
-0.183
-0.179
-0.177
-0.2065
-0.221
-0.2195
-0.214
-0.213
-0.1975
-0.1715
-0.1595
-0.1515
-0.1295
-0.0995
-0.066
-0.0295
-0.001
0.0415
0.101
0.1225
0.145
0.193
0.2525
0.3055
0.3435
0.382
0.399
0.407
0.4235
0.4325
0.4395
0.4495
0.4575
0.4705
0.479
0.4685
0.4385
0.399
0.3525
0.323
0.3015
0.2765
0.2765
0.268
0.2575
0.267
0.2645
0.249
0.2395
0.228
0.217
0.2205
0.211
0.194
0.168
0.143
0.1315
0.112
0.11
0.1155
0.0715
0.025
0.026
0.0075
-0.0315
-0.065
-0.091
-0.112
-0.135
-0.1515
-0.174
-0.197
-0.22
-0.227
-0.2425
-0.2615
-0.2895
-0.2985
-0.3075
-0.349
-0.334
-0.3545
-0.381
-0.374
-0.4005
-0.429
-0.456
-0.452
-0.434
-0.43
-0.441
-0.45
-0.4535
-0.459
-0.454
-0.448
-0.4455
-0.44
-0.4255
-0.3965
-0.3585
-0.3375
-0.339
-0.335
-0.3345
-0.317
-0.285
-0.271
-0.252
-0.2315
-0.228
-0.2155
-0.2075
-0.1725
-0.141
-0.1575
-0.146
-0.129
-0.1185
-0.105
-0.091
-0.1075
-0.1135
-0.0675
-0.078
-0.1295
-0.131
-0.102
-0.099
-0.1015
-0.08
-0.0785
-0.07
-0.046
-0.0675
-0.0865
-0.0745
-0.0555
-0.064
-0.084
-0.075
-0.0675
-0.0625
-0.063
-0.0635
-0.075
-0.084
-0.075
-0.071
-0.0595
-0.071
-0.0725
-0.06
-0.059
-0.0685
-0.0735
-0.042
-0.034
-0.052
-0.061
-0.0565
-0.069
-0.0705
-0.0535
-0.0555
-0.061
-0.062
-0.0595
-0.076
-0.095
-0.0935
-0.046
-0.043
-0.055
-0.0405
-0.0635
-0.0575
-0.042
-0.042
-0.0455
-0.048
-0.0765
-0.094
-0.069
-0.056
-0.079
-0.0765
-0.0515
-0.052
-0.0385
-0.0445
-0.0515
-0.0515
-0.035
-0.017
-0.036
-0.035
-0.014
-0.0305
-0.0615
-0.0475
-0.0375
-0.036
-0.0125
-0.0165
-0.0385
-0.0775
-0.096
-0.0445
-0.032
-0.054
-0.0465
-0.0445
-0.0395
-0.032
-0.0295
-0.026
-0.025
-0.0165
-0.015
-0.01
-0.0135
-0.03
-0.0325
-0.033
-0.0155
-0.008
-0.0065
-0.002
-0.015
-0.011
0.001
-0.011
-0.024
-0.0145
0.009
0.0245
0.0255
0.0235
0.0255
0.0375
0.0395
0.038
0.0325
0.02
0.0285
0.0495
0.0505
0.0505
0.0255
0.0095
0.066
0.0865
0.07
0.066
0.062
0.0675
0.079
0.0865
0.089
0.085
0.0815
0.099
0.0875
0.0785
0.089
0.0845
0.088
0.103
0.113
0.1055
0.098
0.097
0.1035
0.124
0.128
0.1335
0.1585
0.1475
0.1335
0.132
0.1
0.099
0.1295
0.135
0.1265
0.139
0.139
0.13
0.1465
0.129
0.1215
0.142
0.159
0.1575
0.157
0.1675
0.178
0.1745
0.1535
0.161
0.1575
0.138
0.1385
0.144
0.1455
0.148
0.1465
0.1445
0.143
0.145
0.154
0.1615
0.1665
0.1685
0.1705
0.1755
0.175
0.169
0.17
0.1745
0.169
0.1605
0.156
0.1565
0.1575
0.154
0.1465
0.1505
0.135
0.122
0.143
0.1375
0.138
0.1505
0.153
0.158
0.1455
0.163
0.1775
0.147
0.1295
0.1225
0.1195
0.111
0.0995
0.1015
0.1085
0.1115
0.1065
0.09
0.0915
0.107
0.1065
0.0925
0.092
0.116
0.115
0.1065
0.105
0.096
0.0855
0.0835
0.0755
0.0775
0.081
0.075
0.086
0.0865
0.077
0.07
0.0735
0.0745
0.0815
0.082
0.086
0.0815
0.064
0.0845
0.0895
0.0655
0.0545
0.055
0.049
0.0595
0.063
0.069
0.063
0.039
0.0265
0.0205
0.0445
0.0425
0.0455
0.035
0.038
0.044
0.034
0.057
0.04
0.045
0.056
0.045
0.03
0.026
0.027
0.0235
0.0435
0.06
0.04
0.0275
0.0475
0.041
0.037
0.0355
0.039
0.0555
0.0695
0.06
0.051
0.054
0.042
0.0385
0.0305
0.0535
0.0635
0.057
0.0695
0.0395
0.016
0.033
0.033
0.028
0.0495
0.058
0.037
0.0285
0.0405
0.0575
0.085
0.088
0.0445
0.023
0.047
0.0415
0.0275
0.0365
0.0445
0.0375
0.021
0.0205
0.0265
0.0345
0.015
0.0005
0.052
0.068
0.0485
0.049
0.0445
0.047
0.0475
0.0475
0.0465
0.054
0.061
0.064
0.0535
0.0385
0.038
0.037
0.044
0.0345
0.043
0.053
0.0585
0.0755
0.0595
0.0525
0.068
0.083
0.0695
0.063
0.0575
0.0435
0.0485
0.0475
0.054
0.0505
0.045
0.051
0.0565
0.063
0.067
0.062
0.048
0.0525
0.0615
0.0695
0.0815
0.056
0.0085
0.031
0.105
0.1155
0.079
0.0655
0.054
0.022
0.0165
0.023
0.0435
0.049
0.031
0.032
0.0405
0.055
0.053
0.0525
0.056
0.052
0.0455
0.043
0.043
0.035
0.0235
0.0275
0.031
0.0285
0.0325
0.046
0.0455
0.035
0.045
0.041
0.0455
0.0385
0.03
0.049
0.0565
0.0465
0.0405
0.044
0.0305
0.031
0.039
0.044
0.0485
0.042
0.0375
0.037
0.035
0.0315
0.0385
0.0495
0.054
0.0715
0.0755
0.041
0.042
0.052
0.0595
0.067
0.0415
0.0185
0.017
0.0245
0.028
0.0325
0.028
-0.005
-0.0255
0.0305
0.0865
0.078
0.0585
0.0645
0.0645
0.0425
0.049
0.0455
0.038
0.039
0.0375
0.047
0.0465
0.0395
0.0285
0.041
0.0625
0.074
0.0735
0.0725
0.0595
0.0275
0.021
0.0325
0.026
0.034
0.0475
0.032
0.036
0.054
0.065
0.06
0.053
0.057
0.0565
0.0625
0.064
0.065
0.0795
0.081
0.0805
0.0885
0.1
0.1055
0.103
0.102
0.1055
0.1095
0.104
0.1115
0.1085
0.0985
0.088
0.075
0.0755
0.071
0.0725
0.0715
0.0745
0.0665
0.0645
0.0605
0.056
0.094
0.096
0.0785
0.086
0.0905
0.089
0.0875
0.0835
0.0735
0.0865
0.1095
0.0835
0.0445
0.052
0.0675
0.0675
0.058
0.047
0.0455
0.0665
0.07
0.072
0.0665
0.046
0.038
0.0095
0.012
0.016
0.0025
0.001
0.0045
0.0085
0.01
0.0255
0.022
0.011
0.0085
0.0125
0.0155
0.0215
0.024
0.0265
0.0435
0.038
0.0015
-0.016
0.0035
-0.009
-0.0145
0.002
-0.0085
-0.0065
0.0065
-0.0005
0.0
0.0075
0.01
0.0095
0.0075
0.0105
0.0105
0.0155
0.016
0.0205
0.016
0.011
0.0135
0.001
-0.0045
-0.0065
-0.007
-0.0025
0.018
0.016
-0.0025
0.012
0.016
0.01
0.008
0.0095
0.017
0.016
0.01
0.0095
0.005
-0.011
-0.0095
-0.002
-0.001
-0.0105
-0.02
-0.036
-0.066
-0.08
-0.099
-0.123
-0.116
-0.1035
-0.113
-0.13
-0.1405
-0.1455
-0.162
-0.1615
-0.139
-0.144
-0.1605
-0.1275
-0.1095
-0.1295
-0.115
-0.093
-0.0675
-0.036
0.015
0.052
0.072
0.1195
0.1605
0.2035
0.2625
0.3175
0.375
0.4195
0.4395
0.465
0.484
0.492
0.497
0.5065
0.5035
0.497
0.5295
0.529
0.5
0.4775
0.409
0.36
0.3485
0.318
0.3035
0.2925
0.2825
0.2975
0.3035
0.3055
0.2895
0.2635
0.244
0.221
0.216
0.211
0.195
0.167
0.1475
0.1445
0.116
0.0825
0.078
0.0735
0.0725
0.0745
0.0675
0.031
-0.036
-0.08
-0.0995
-0.1285
-0.1755
-0.189
-0.1775
-0.2135
-0.249
-0.2575
-0.2815
-0.301
-0.324
-0.341
-0.3405
-0.365
-0.3725
-0.386
-0.409
-0.398
-0.4075
-0.4305
-0.445
-0.457
-0.4645
-0.4725
-0.482
-0.4835
-0.467
-0.463
-0.4555
-0.4175
-0.3985
-0.3835
-0.343
-0.328
-0.315
-0.2905
-0.2865
-0.2725
-0.262
-0.2405
-0.2155
-0.203
-0.1945
-0.185
-0.162
-0.169
-0.154
-0.1385
-0.144
-0.139
-0.137
-0.122
-0.1035
-0.1
-0.085
-0.065
-0.071
-0.086
-0.101
-0.07
-0.0695
-0.0645
-0.0495
-0.0545
-0.065
-0.08
-0.0605
-0.0715
-0.0715
-0.06
-0.0635
-0.054
-0.043
-0.042
-0.0445
-0.043
-0.0405
-0.0585
-0.0615
-0.0545
-0.066
-0.041
-0.0415
-0.0705
-0.07
-0.0615
-0.0645
-0.0745
-0.0765
-0.0725
-0.051
-0.034
-0.035
-0.0435
-0.0515
-0.041
-0.033
-0.039
-0.048
-0.0575
-0.0545
-0.048
-0.056
-0.055
-0.0545
-0.059
-0.0445
-0.0445
-0.0485
-0.0415
-0.0585
-0.0565
-0.0365
-0.0435
-0.0475
-0.0445
-0.0445
-0.041
-0.045
-0.0475
-0.047
-0.0515
-0.049
-0.044
-0.0465
-0.052
-0.05
-0.054
-0.0425
-0.03
-0.0385
-0.047
-0.045
-0.0305
-0.036
-0.0455
-0.035
-0.031
-0.04
-0.0335
-0.019
-0.0245
-0.042
-0.0445
-0.04
-0.0335
-0.03
-0.053
-0.0405
-0.018
-0.021
-0.012
-0.0215
-0.022
-0.01
-0.0265
-0.0155
0.0075
-0.0085
-0.0165
-0.0185
-0.008
0.0
-0.0035
-0.003
-0.0035
0.0005
-0.001
0.006
0.0085
0.0145
0.02
0.029
0.036
0.0225
0.035
0.045
0.036
0.0235
0.0435
0.0625
0.0465
0.034
0.0265
0.028
0.042
0.0585
0.06
0.071
0.0775
0.076
0.0725
0.0645
0.0875
0.0965
0.0935
0.0895
0.081
0.0785
0.0845
0.1145
0.1215
0.1065
0.1065
0.1155
0.117
0.1345
0.1245
0.108
0.1235
0.1315
0.139
0.1395
0.14
0.1365
0.147
0.151
0.1455
0.1385
0.143
0.1555
0.1435
0.145
0.1505
0.15
0.1485
0.154
0.156
0.1535
0.156
0.15
0.1675
0.1695
0.169
0.173
0.145
0.171
0.1955
0.177
0.167
0.1675
0.169
0.1515
0.154
0.1705
0.1755
0.168
0.1545
0.1585
0.1735
0.181
0.165
0.166
0.181
0.1615
0.154
0.1595
0.158
0.155
0.1445
0.151
0.1465
0.137
0.1245
0.134
0.159
0.1295
0.1025
0.115
0.125
0.123
0.1375
0.1315
0.1225
0.13
0.1235
0.1215
0.1165
0.113
0.1145
0.107
0.098
0.084
0.0825
0.109
0.114
0.102
0.099
0.098
0.1015
0.1
0.093
0.093
0.0935
0.0925
0.092
0.103
0.099
0.0835
0.0925
0.083
0.073
0.0835
0.078
0.061
0.0565
0.06
0.055
0.049
0.052
0.0655
0.0645
0.084
0.079
0.066
0.068
0.04
0.0405
0.0295
0.031
0.0575
0.0495
0.026
0.014
0.022
0.0405
0.0425
0.0385
0.0405
0.0355
0.032
0.0265
0.0285
0.0335
0.022
0.0255
0.035
0.04
0.022
0.01
0.031
0.0275
0.0175
0.02
0.018
0.0225
0.0365
0.033
0.0265
0.0275
0.0305
0.0305
0.054
0.057
0.0245
0.0215
0.0315
0.028
-0.0045
0.004
0.0325
0.031
0.0025
-0.0235
-0.0155
-0.0045
0.0015
-0.0025
0.0005
0.0065
0.011
0.0155
0.0195
0.0305
0.0335
0.0195
0.005
0.0075
0.0035
0.0
0.004
0.002
-0.0005
-0.0065
-0.0095
-0.007
-0.0175
0.002
0.0265
0.019
0.0165
0.021
0.0335
0.026
0.0235
0.0255
0.016
0.0285
0.0265
0.0255
0.0055
0.0045
0.037
0.0185
0.0185
0.0405
0.04
0.0225
0.0125
0.0195
0.049
0.0575
0.0285
0.017
0.035
0.038
0.013
0.009
0.006
0.006
0.012
0.0105
0.009
0.012
0.016
0.0155
0.008
0.007
0.0195
0.02
0.015
0.014
0.016
0.02
0.0245
0.0215
0.018
0.026
0.022
0.0165
0.017
0.0145
0.01
0.014
0.0135
0.009
0.0145
0.0175
0.014
0.0115
0.02
0.0305
0.0575
0.051
0.016
-0.001
-0.005
0.003
0.027
0.0255
-0.003
0.021
-0.009
-0.027
0.0315
0.0295
0.0035
0.0135
0.0225
0.004
0.0115
0.0115
0.0145
0.04
0.0385
0.012
-0.003
0.008
0.006
-0.006
0.003
0.012
-0.0085
-0.0095
0.004
0.007
0.018
0.001
-0.0055
-0.002
0.0005
0.017
0.019
0.0215
0.0185
0.002
0.002
0.0145
0.004
0.008
0.007
-0.008
-0.003
-0.0035
-0.008
-0.0095
-0.015
-0.0215
-0.0075
0.0055
0.0065
-0.0055
-0.0205
0.0215
0.062
0.029
0.0045
0.0195
0.013
0.0095
0.03
0.027
0.006
0.0105
0.014
0.0175
0.03
0.034
0.042
0.0285
0.0305
0.03
0.01
0.0175
0.0295
0.034
0.0365
0.0425
0.025
0.028
0.0475
0.033
0.0245
0.021
0.0285
0.0675
0.07
0.0475
0.057
0.0675
0.072
0.0735
0.111
0.145
0.114
0.0825
0.081
0.098
0.102
0.1005
0.098
0.0805
0.0845
0.0835
0.0685
0.084
0.0735
0.0655
0.0725
0.0575
0.064
0.0795
0.1015
0.0965
0.081
0.075
0.081
0.0915
0.091
0.1
0.1005
0.094
0.0955
0.106
0.0875
0.078
0.0815
0.06
0.054
0.07
0.0735
0.0675
0.064
0.0605
0.0635
0.056
0.054
0.0445
0.0265
0.017
0.012
0.0135
0.012
0.013
0.0285
0.0395
0.009
0.0
0.008
-0.0015
0.01
0.008
-0.006
0.0085
0.015
0.005
0.005
-0.0005
0.0
0.0105
0.007
-0.008
-0.015
0.0155
0.017
0.008
0.0045
-0.013
-0.0025
-0.003
0.0055
0.0235
0.027
0.0225
0.0195
0.017
0.019
0.0145
0.0085
0.025
0.022
0.019
0.0185
0.011
0.0095
0.0075
0.0075
0.0095
0.005
0.0025
0.0305
0.04
0.0175
0.008
0.0105
0.0005
0.011
0.011
-0.0075
-0.0125
-0.0245
0.011
0.0045
-0.018
-0.0395
-0.052
-0.0305
-0.044
-0.0485
-0.0825
-0.109
-0.1135
-0.1165
-0.1225
-0.126
-0.137
-0.155
-0.158
-0.1595
-0.155
-0.167
-0.1595
-0.132
-0.113
-0.0935
-0.0715
-0.0395
-0.0005
0.039
0.062
0.096
0.152
0.1895
0.24
0.31
0.3605
0.4155
0.4615
0.4825
0.5005
0.505
0.5195
0.541
0.5525
0.5655
0.575
0.555
0.532
0.5335
0.517
0.47
0.4335
0.3935
0.3615
0.359
0.3395
0.346
0.3495
0.357
0.377
0.3455
0.3105
0.2935
0.2695
0.2775
0.291
0.253
0.21
0.1975
0.2065
0.183
0.1505
0.1205
0.1195
0.127
0.106
0.0765
0.0265
0.0035
-0.0205
-0.051
-0.0805
-0.1055
-0.123
-0.1535
-0.1805
-0.2005
-0.21
-0.237
-0.2635
-0.2685
-0.2835
-0.295
-0.3115
-0.3305
-0.334
-0.339
-0.3585
-0.375
-0.388
-0.403
-0.4185
-0.417
-0.414
-0.4265
-0.426
-0.4275
-0.407
-0.394
-0.3875
-0.358
-0.332
-0.315
-0.3145
-0.2935
-0.2665
-0.232
-0.2165
-0.223
-0.212
-0.195
-0.16
-0.147
-0.141
-0.126
-0.111
-0.0945
-0.078
-0.0645
-0.054
-0.0455
-0.049
-0.051
-0.052
-0.0365
-0.03
-0.038
-0.005
0.0135
-0.017
-0.03
-0.017
-0.019
-0.0215
-0.0165
-0.042
-0.033
0.0115
-0.0075
-0.0365
-0.035
-0.0295
-0.023
-0.01
0.001
-0.006
-0.008
-0.016
-0.0195
-0.013
-0.0165
-0.0165
-0.0225
-0.0185
-0.022
-0.026
-0.0145
-0.0245
-0.017
-0.0015
-0.0025
-0.0045
-0.01
-0.0175
-0.0055
0.0065
0.003
0.005
0.009
0.0125
-0.018
-0.0115
-0.0155
-0.017
0.0045
-0.0205
-0.017
-0.012
-0.0055
-0.0095
-0.014
-0.0055
0.0205
0.033
0.013
-0.001
-0.008
0.024
0.0235
0.02
0.0195
0.0105
0.018
0.0025
0.0065
0.0055
0.0
0.015
0.0075
-0.0005
0.003
0.0085
0.0175
0.022
0.027
0.02
0.01
0.01
0.0075
0.0055
0.011
0.011
0.009
0.0105
0.0195
0.023
0.007
0.0005
0.011
0.0285
0.03
0.0305
0.0375
0.039
0.0415
0.0435
0.0465
0.0395
0.0305
0.0255
0.0325
0.037
0.036
0.042
0.047
0.062
0.0695
0.0625
0.0515
0.0405
0.053
0.0565
0.0465
0.0635
0.0775
0.096
0.0895
0.0755
0.098
0.091
0.09
0.106
0.1165
0.1095
0.101
0.1245
0.0995
0.082
0.0975
0.107
0.1245
0.111
0.118
0.1315
0.1215
0.1175
0.1345
0.143
0.132
0.124
0.116
0.1155
0.1195
0.121
0.138
0.1665
0.1365
0.116
0.1455
0.15
0.1555
0.16
0.172
0.1795
0.161
0.161
0.17
0.168
0.1605
0.175
0.1785
0.1465
0.145
0.168
0.1685
0.163
0.1515
0.155
0.159
0.156
0.1775
0.1715
0.187
0.1965
0.2005
0.23
0.2085
0.185
0.182
0.188
0.187
0.2085
0.207
0.1965
0.198
0.172
0.172
0.167
0.1835
0.194
0.189
0.2005
0.2015
0.2065
0.207
0.2095
0.2115
0.2125
0.1945
0.196
0.2175
0.2005
0.17
0.141
0.159
0.175
0.1665
0.149
0.118
0.1715
0.2105
0.1885
0.178
0.1735
0.1705
0.149
0.158
0.1765
0.165
0.1575
0.1495
0.1405
0.141
0.141
0.144
0.146
0.1375
0.1265
0.1295
0.142
0.1375
0.14
0.141
0.1335
0.125
0.125
0.1225
0.11
0.1095
0.106
0.1085
0.0985
0.106
0.099
0.104
0.107
0.0635
0.085
0.0905
0.083
0.0935
0.108
0.104
0.1
0.1225
0.1005
0.065
0.0565
0.1005
0.0955
0.07
0.0765
0.0615
0.0565
0.0525
0.042
0.038
0.0695
0.0755
0.059
0.0645
0.08
0.0855
0.07
0.0725
0.072
0.073
0.0605
0.052
0.059
0.0495
0.036
0.0175
0.032
0.0705
0.0845
0.062
0.051
0.047
0.041
0.065
0.0835
0.0765
0.056
0.0545
0.0655
0.0625
0.0545
0.052
0.0555
0.044
0.038
0.043
0.0355
0.044
0.0545
0.032
0.0205
0.022
0.006
0.046
0.075
0.0485
0.0465
0.039
0.031
0.0485
0.056
0.046
0.05
0.053
0.0475
0.055
0.039
0.0025
0.0095
0.019
0.032
0.0515
0.0365
0.0365
0.05
0.032
0.029
0.0355
0.0435
0.0705
0.055
0.041
0.037
0.0285
0.0585
0.072
0.0505
0.0295
0.0205
0.021
0.025
0.032
0.0365
0.0305
0.045
0.065
0.055
0.0405
0.0365
0.0525
0.045
0.0395
0.043
0.0205
0.0385
0.053
0.0415
0.0415
0.034
0.0425
0.0375
0.025
0.0325
0.038
0.041
0.0275
0.0175
0.019
0.029
0.023
0.01
0.045
0.0385
0.008
0.0175
0.0245
0.029
0.0265
0.0035
-0.0015
0.018
0.034
0.0465
0.0215
0.0205
0.0295
0.042
0.0475
0.031
0.053
0.046
0.0345
0.0545
0.0375
0.031
0.0425
0.026
0.025
0.039
0.0495
0.0565
0.061
0.0425
0.012
0.0175
0.0395
0.0435
0.037
0.046
0.0525
0.0505
0.0455
0.057
0.0615
0.0375
0.0135
-0.002
0.0185
0.0305
0.0275
0.033
0.029
0.042
0.054
0.0465
0.0395
0.036
0.048
0.058
0.0505
0.0305
0.0165
0.026
0.0385
0.0695
0.067
0.044
0.074
0.0505
0.0435
0.0855
0.085
0.0665
0.0545
0.0685
0.0525
0.0675
0.0935
0.0665
0.071
0.0565
0.04
0.0505
0.054
0.0555
0.045
0.043
0.0535
0.076
0.0715
0.069
0.088
0.0835
0.077
0.0865
0.1035
0.0935
0.091
0.1075
0.111
0.109
0.105
0.127
0.1415
0.124
0.124
0.1235
0.1275
0.1395
0.1385
0.152
0.173
0.185
0.1375
0.0615
0.0655
0.109
0.1215
0.13
0.1345
0.1275
0.1135
0.1085
0.102
0.1025
0.099
0.1
0.143
0.1365
0.1275
0.136
0.1285
0.156
0.1705
0.136
0.1095
0.12
0.1225
0.105
0.102
0.1035
0.0885
0.077
0.0765
0.0685
0.0525
0.0545
0.072
0.064
0.0575
0.073
0.0515
0.043
0.058
0.059
0.054
0.0415
0.044
0.055
0.0655
0.058
0.0465
0.042
0.032
0.033
0.052
0.038
0.0245
0.0365
0.0365
0.05
0.053
0.0505
0.0465
0.0365
0.0405
0.0395
0.0425
0.0375
0.0345
0.0545
0.055
0.06
0.0595
0.0455
0.0305
0.015
0.036
0.0345
0.034
0.048
0.0495
0.0565
0.0485
0.0625
0.077
0.0515
0.0375
0.043
0.046
0.0445
0.044
0.0405
0.039
0.043
0.042
0.0335
0.0305
0.0395
0.047
0.053
0.057
0.0555
0.0455
0.029
0.0225
0.019
-0.0105
-0.028
-0.043
-0.0725
-0.081
-0.094
-0.1095
-0.109
-0.099
-0.116
-0.1485
-0.1515
-0.1345
-0.1345
-0.1455
-0.1235
-0.105
-0.082
-0.035
0.0015
0.032
0.041
0.0655
0.118
0.161
0.1985
0.2265
0.266
0.306
0.36
0.442
0.485
0.486
0.459
0.5105
0.565
0.5535
0.576
0.5825
0.582
0.5795
0.584
0.5675
0.516
0.4745
0.4485
0.436
0.399
0.3785
0.386
0.4
0.414
0.397
0.391
0.38
0.3525
0.3405
0.322
0.322
0.3325
0.2835
0.2415
0.22
0.1805
0.1625
0.138
0.126
0.1
0.0895
0.0845
0.028
0.0035
-0.0025
-0.028
-0.059
-0.0785
-0.093
-0.12
-0.143
-0.168
-0.2065
-0.1925
-0.1795
-0.212
-0.2415
-0.2745
-0.2985
-0.308
-0.3085
-0.3325
-0.321
-0.3085
-0.34
-0.3485
-0.3415
-0.338
-0.3665
-0.3905
-0.368
-0.3395
-0.3565
-0.349
-0.35
-0.37
-0.337
-0.33
-0.3145
-0.2955
-0.2985
-0.279
-0.2405
-0.2205
-0.2055
-0.179
-0.1665
-0.148
-0.126
-0.092
-0.094
-0.0905
-0.0705
-0.0655
-0.056
-0.0585
-0.0235
-0.0015
-0.015
-0.028
-0.016
0.009
0.0195
0.0155
0.0125
0.0075
-0.0055
0.009
0.0325
0.0425
0.0465
0.052
0.0415
0.0255
0.0355
0.0425
0.031
0.0225
0.0245
0.032
0.032
0.0295
0.0465
0.077
0.066
0.053
0.0555
0.0405
0.046
0.0455
0.0445
0.055
0.0485
0.041
0.0445
0.051
0.0365
0.0275
0.0485
0.051
0.043
0.028
0.0195
0.024
0.0295
0.0445
0.0395
0.039
0.052
0.054
0.0605
0.065
0.0555
0.048
0.0385
0.031
0.0265
0.024
0.024
0.024
0.0245
0.016
0.0275
0.032
0.028
0.0405
0.044
0.043
0.0345
0.042
0.0515
0.0465
0.042
0.0335
0.0325
0.0385
0.0485
0.048
0.0315
0.033
0.0495
0.042
0.032
0.039
0.035
0.032
0.0435
0.054
0.0655
0.0765
0.0745
0.0495
0.0405
0.055
0.0345
0.049
0.0765
0.0565
0.0585
0.058
0.0555
0.0535
0.0575
0.068
0.059
0.0675
0.068
0.0955
0.123
0.0975
0.082
0.0775
0.096
0.1115
0.0735
0.0595
0.0765
0.0805
0.11
0.1115
0.0835
0.0825
0.1055
0.11
0.103
0.096
0.094
0.1205
0.1235
0.124
0.1395
0.1485
0.1405
0.135
0.1365
0.13
0.1425
0.147
0.134
0.134
0.141
0.126
0.1375
0.147
0.1305
0.1215
0.125
0.1495
0.1835
0.214
0.187
0.1915
0.193
0.183
0.1995
0.1745
0.181
0.187
0.181
0.186
0.191
0.1865
0.2045
0.197
0.1695
0.1855
0.1965
0.212
0.2085
0.197
0.1925
0.21
0.2435
0.2425
0.2155
0.2
0.205
0.2
0.206
0.209
0.2015
0.1995
0.204
0.2125
0.221
0.2235
0.218
0.224
0.219
0.2245
0.2255
0.236
0.2455
0.225
0.2195
0.2115
0.213
0.214
0.203
0.204
0.2165
0.221
0.2115
0.194
0.1945
0.206
0.2225
0.24
0.2315
0.206
0.191
0.2115
0.2285
0.2305
0.201
0.185
0.2015
0.1995
0.1955
0.1875
0.1785
0.183
0.1865
0.185
0.188
0.1865
0.181
0.177
0.175
0.1755
0.1795
0.187
0.191
0.1705
0.1595
0.1605
0.15
0.17
0.1685
0.154
0.138
0.128
0.1475
0.1395
0.147
0.1425
0.13
0.1385
0.129
0.1485
0.1615
0.14
0.1305
0.143
0.1335
0.1165
0.1065
0.098
0.104
0.109
0.1165
0.116
0.128
0.122
0.113
0.0905
0.085
0.1265
0.1445
0.129
0.0975
0.103
0.1125
0.123
0.12
0.103
0.0915
0.0735
0.079
0.086
0.093
0.0975
0.103
0.0935
0.086
0.079
0.073
0.092
0.0655
0.077
0.138
0.1205
0.101
0.11
0.0965
0.0855
0.0815
0.0975
0.0975
0.0815
0.0635
0.0475
0.082
0.094
0.1005
0.0925
0.0835
0.107
0.1075
0.1025
0.0895
0.107
0.113
0.099
0.0905
0.097
0.1045
0.083
0.0625
0.0585
0.083
0.085
0.0715
0.069
0.0905
0.102
0.1
0.1105
0.0895
0.0725
0.0865
0.095
0.091
0.1005
0.0925
0.1
0.1255
0.087
0.0785
0.113
0.1015
0.077
0.081
0.0915
0.0995
0.103
0.1005
0.104
0.1095
0.114
0.111
0.108
0.106
0.1105
0.1075
0.105
0.1075
0.097
0.09
0.089
0.095
0.104
0.0965
0.0765
0.0895
0.113
0.102
0.094
0.1025
0.117
0.108
0.1085
0.1205
0.0955
0.0835
0.0815
0.0985
0.106
0.0815
0.0785
0.077
0.079
0.084
0.082
0.0925
0.094
0.0805
0.0975
0.118
0.114
0.107
0.112
0.116
0.0915
0.095
0.1085
0.109
0.109
0.0975
0.115
0.095
0.0815
0.104
0.0645
0.0475
0.0845
0.094
0.078
0.0745
0.081
0.081
0.084
0.0795
0.0865
0.0835
0.069
0.0735
0.065
0.0855
0.082
0.0305
0.039
0.0725
0.0645
0.0665
0.072
0.067
0.073
0.0785
0.0845
0.078
0.0775
0.0725
0.065
0.065
0.0635
0.061
0.0575
0.0595
0.058
0.057
0.053
0.059
0.0555
0.047
0.0715
0.0695
0.0685
0.0955
0.096
0.087
0.093
0.1
0.0895
0.075
0.05
0.059
0.0895
0.092
0.1005
0.0915
0.066
0.0685
0.0855
0.091
0.09
0.08
0.1045
0.1035
0.081
0.1005
0.1065
0.099
0.099
0.1065
0.1075
0.108
0.107
0.1105
0.104
0.102
0.1235
0.128
0.128
0.1345
0.1435
0.143
0.135
0.145
0.161
0.183
0.196
0.1855
0.1825
0.1745
0.165
0.164
0.1565
0.16
0.159
0.134
0.158
0.192
0.142
0.0685
0.064
0.092
0.104
0.121
0.1325
0.151
0.153
0.1435
0.146
0.1495
0.155
0.153
0.1495
0.137
0.129
0.12
0.115
0.1145
0.095
0.092
0.096
0.096
0.0975
0.0945
0.094
0.087
0.07
0.048
0.0715
0.111
0.092
0.08
0.0805
0.078
0.0845
0.0635
0.05
0.067
0.0635
0.054
0.056
0.0675
0.0775
0.068
0.06
0.0635
0.067
0.0675
0.072
0.07
0.068
0.0655
0.066
0.0595
0.0435
0.044
0.037
0.0245
0.041
0.065
0.067
0.067
0.0645
0.0545
0.061
0.074
0.0645
0.0555
0.0685
0.0785
0.05
0.0395
0.0565
0.0575
0.0655
0.06
0.0415
0.058
0.0635
0.0745
0.092
0.07
0.035
0.0205
0.0415
0.0405
0.054
0.066
0.056
0.042
0.028
0.031
0.023
0.016
0.0015
-0.028
-0.048
-0.0345
-0.035
-0.053
-0.055
-0.061
-0.0705
-0.07
-0.0715
-0.1015
-0.124
-0.113
-0.1115
-0.09
-0.051
-0.0365
-0.026
-0.017
0.0135
0.0435
0.0755
0.0915
0.123
0.1895
0.2275
0.2835
0.3415
0.384
0.4285
0.4735
0.508
0.528
0.5495
0.563
0.575
0.582
0.574
0.562
0.5695
0.5805
0.569
0.5265
0.478
0.4445
0.4215
0.407
0.383
0.3495
0.3615
0.391
0.389
0.39
0.375
0.354
0.346
0.328
0.3385
0.3285
0.276
0.243
0.2255
0.206
0.196
0.188
0.161
0.1505
0.143
0.1265
0.107
0.093
0.062
0.017
0.016
-0.0075
-0.0455
-0.07
-0.0985
-0.1175
-0.13
-0.156
-0.1645
-0.179
-0.215
-0.218
-0.2615
-0.288
-0.301
-0.304
-0.297
-0.3055
-0.292
-0.2965
-0.3045
-0.341
-0.353
-0.3575
-0.3495
-0.352
-0.3885
-0.3925
-0.3605
-0.305
-0.323
-0.334
-0.2935
-0.2595
-0.2305
-0.205
-0.191
-0.1625
-0.1415
-0.143
-0.1245
-0.127
-0.1145
-0.092
-0.0835
-0.069
-0.057
-0.046
-0.0245
-0.0135
-0.0275
-0.019
-0.003
0.0035
0.0155
0.0145
0.014
0.0135
0.0235
0.049
0.0525
0.037
0.0235
0.019
0.0275
0.0425
0.0295
0.01
0.0235
0.009
-0.0195
0.004
0.0535
0.064
0.0165
0.026
0.0665
0.048
0.0405
0.0605
0.053
0.0445
0.054
0.051
0.0435
0.0595
0.06
0.0325
0.041
0.0485
0.043
0.0515
0.052
0.0465
0.0405
0.0485
0.06
0.0585
0.049
0.041
0.062
0.0765
0.0615
0.0575
0.047
0.0575
0.0745
0.058
0.0525
0.0615
0.059
0.039
0.0355
0.044
0.0775
0.074
0.0405
0.0675
0.072
0.061
0.056
0.0625
0.0655
0.028
0.0175
0.0195
0.023
0.042
0.0495
0.051
0.049
0.052
0.0545
0.057
0.0635
0.0665
0.069
0.0685
0.0645
0.056
0.043
0.0585
0.075
0.062
0.055
0.053
0.038
0.0415
0.0575
0.0675
0.08
0.0595
0.045
0.062
0.073
0.052
0.0575
0.085
0.072
0.068
0.0785
0.1025
0.104
0.0865
0.0825
0.085
0.0935
0.0895
0.085
0.083
0.101
0.1085
0.0975
0.105
0.1125
0.118
0.1225
0.1235
0.1225
0.135
0.1375
0.122
0.1185
0.127
0.1315
0.133
0.142
0.1405
0.146
0.146
0.1475
0.163
0.1605
0.169
0.18
0.1795
0.1795
0.1915
0.1965
0.1975
0.2045
0.198
0.1815
0.1605
0.1525
0.166
0.208
0.2135
0.196
0.1895
0.1925
0.201
0.187
0.205
0.217
0.2365
0.2545
0.2445
0.2395
0.2055
0.233
0.273
0.2535
0.2315
0.25
0.268
0.2405
0.2485
0.22
0.211
0.249
0.2595
0.255
0.2375
0.2505
0.2465
0.251
0.266
0.261
0.2655
0.2685
0.26
0.256
0.259
0.2555
0.26
0.2645
0.2595
0.2615
0.256
0.254
0.2615
0.256
0.2535
0.258
0.258
0.26
0.2545
0.247
0.2665
0.2735
0.257
0.2445
0.248
0.2475
0.239
0.242
0.2375
0.2415
0.2495
0.253
0.2405
0.233
0.242
0.2355
0.231
0.234
0.241
0.2365
0.237
0.238
0.2155
0.213
0.217
0.218
0.2125
0.1965
0.1935
0.2
0.2255
0.212
0.193
0.214
0.205
0.2275
0.2195
0.188
0.2175
0.209
0.2005
0.1865
0.1785
0.19
0.196
0.21
0.1925
0.1855
0.193
0.198
0.183
0.185
0.208
0.204
0.1865
0.1665
0.183
0.177
0.1575
0.1625
0.1655
0.193
0.19
0.16
0.1495
0.138
0.1435
0.1665
0.1455
0.1385
0.1485
0.154
0.1675
0.167
0.169
0.152
0.1555
0.1715
0.1685
0.166
0.1675
0.1595
0.161
0.172
0.147
0.1415
0.142
0.1395
0.143
0.1475
0.1475
0.1415
0.149
0.1435
0.1385
0.14
0.1445
0.158
0.164
0.1625
0.1645
0.1545
0.146
0.152
0.152
0.136
0.139
0.158
0.15
0.1505
0.1465
0.145
0.1535
0.148
0.14
0.132
0.1475
0.1605
0.155
0.1525
0.1515
0.136
0.1275
0.1155
0.1385
0.174
0.1555
0.1455
0.144
0.1465
0.1475
0.1445
0.133
0.128
0.1305
0.141
0.153
0.167
0.203
0.1755
0.135
0.132
0.1265
0.1435
0.152
0.148
0.13
0.1255
0.1485
0.126
0.1125
0.1265
0.138
0.1595
0.1545
0.1435
0.145
0.1475
0.148
0.1485
0.1525
0.149
0.1425
0.1375
0.1365
0.1315
0.1255
0.133
0.134
0.132
0.128
0.1255
0.1335
0.138
0.152
0.144
0.126
0.1335
0.1365
0.129
0.129
0.1335
0.1425
0.1455
0.1245
0.115
0.102
0.0885
0.1095
0.145
0.145
0.1155
0.1145
0.118
0.1185
0.12
0.1195
0.142
0.1485
0.1295
0.111
0.1275
0.1655
0.135
0.097
0.1005
0.1135
0.123
0.1155
0.1305
0.134
0.118
0.1185
0.1195
0.1225
0.116
0.1085
0.1
0.1035
0.1255
0.1325
0.1275
0.12
0.1125
0.1165
0.1225
0.1165
0.1165
0.122
0.13
0.1415
0.1505
0.133
0.1145
0.1285
0.138
0.138
0.1285
0.11
0.1195
0.142
0.134
0.1195
0.1195
0.1205
0.123
0.105
0.087
0.069
0.0615
0.1365
0.1795
0.147
0.1185
0.11
0.1135
0.115
0.1405
0.1395
0.134
0.136
0.136
0.159
0.1555
0.163
0.1505
0.1235
0.121
0.122
0.135
0.126
0.153
0.1515
0.116
0.1215
0.1205
0.1265
0.123
0.117
0.122
0.162
0.173
0.139
0.1485
0.114
0.096
0.146
0.1385
0.119
0.137
0.132
0.159
0.1925
0.169
0.165
0.169
0.173
0.1845
0.205
0.208
0.1885
0.189
0.199
0.191
0.1825
0.1635
0.141
0.1495
0.137
0.136
0.1475
0.139
0.158
0.1645
0.152
0.165
0.16
0.168
0.185
0.171
0.1775
0.1765
0.17
0.188
0.196
0.1905
0.1815
0.1805
0.1775
0.1735
0.1655
0.158
0.151
0.148
0.146
0.1435
0.1375
0.131
0.117
0.0895
0.148
0.1665
0.1025
0.092
0.098
0.1095
0.1135
0.097
0.0965
0.1045
0.0855
0.0885
0.099
0.098
0.098
0.0905
0.086
0.097
0.095
0.0835
0.099
0.094
0.104
0.075
0.013
0.0205
0.0675
0.086
0.0705
0.049
0.0505
0.0925
0.095
0.0785
0.0685
0.0785
0.0975
0.0885
0.084
0.08
0.0975
0.095
0.0805
0.0805
0.0695
0.0725
0.075
0.076
0.0655
0.0725
0.079
0.074
0.0785
0.0745
0.085
0.0905
0.0865
0.0825
0.0795
0.0765
0.089
0.103
0.0925
0.0785
0.082
0.084
0.0595
0.028
0.0115
0.0055
-0.0135
-0.0305
-0.0035
0.0065
-0.0335
-0.0585
-0.0545
-0.065
-0.0695
-0.0665
-0.0905
-0.078
-0.05
-0.0295
-0.019
-0.0115
-0.0075
0.009
0.0645
0.1075
0.1435
0.1735
0.211
0.2465
0.2855
0.3445
0.392
0.44
0.4895
0.528
0.546
0.564
0.596
0.6155
0.61
0.602
0.601
0.595
0.5915
0.5675
0.555
0.5475
0.481
0.4495
0.4585
0.425
0.3925
0.395
0.3985
0.3875
0.401
0.399
0.3745
0.3675
0.358
0.3415
0.327
0.3295
0.3095
0.265
0.211
0.199
0.21
0.19
0.1905
0.1955
0.165
0.126
0.1125
0.093
0.0505
-0.003
-0.033
-0.043
-0.07
-0.103
-0.1305
-0.1535
-0.17
-0.184
-0.205
-0.207
-0.226
-0.2575
-0.279
-0.285
-0.2775
-0.283
-0.3065
-0.351
-0.3525
-0.365
-0.3895
-0.39
-0.4015
-0.403
-0.4035
-0.3875
-0.367
-0.3715
-0.3745
-0.355
-0.3245
-0.293
-0.2765
-0.265
-0.205
-0.174
-0.193
-0.161
-0.152
-0.1455
-0.1135
-0.1265
-0.0995
-0.05
-0.046
-0.0545
-0.0635
-0.0375
-0.025
-0.0165
0.0025
-0.0155
-0.0035
0.0215
0.02
0.008
0.0095
-0.0025
0.003
0.0265
0.012
-0.002
0.0145
0.029
0.0285
0.0325
0.017
0.016
0.038
0.0405
0.0155
0.0115
0.021
0.014
0.018
-0.0025
0.016
0.0435
0.029
0.0385
0.031
0.015
0.001
-0.007
0.023
0.0545
0.039
0.0195
0.0255
0.034
0.037
0.031
0.0295
0.024
0.0275
