ECG
-0.1195
-0.1205
-0.1315
-0.123
-0.121
-0.1
-0.109
-0.1265
-0.11
-0.1145
-0.125
-0.123
-0.1155
-0.12
-0.1385
-0.1345
-0.1275
-0.1195
-0.107
-0.12
-0.1365
-0.134
-0.1155
-0.1195
-0.1335
-0.127
-0.1175
-0.1245
-0.14
-0.131
-0.1295
-0.122
-0.121
-0.124
-0.126
-0.142
-0.1345
-0.1255
-0.1115
-0.12
-0.129
-0.126
-0.1325
-0.1325
-0.1285
-0.116
-0.1175
-0.1315
-0.122
-0.106
-0.117
-0.126
-0.135
-0.119
-0.1125
-0.1295
-0.121
-0.1235
-0.124
-0.1295
-0.13
-0.1225
-0.132
-0.1255
-0.117
-0.118
-0.125
-0.138
-0.1315
-0.1225
-0.119
-0.1295
-0.124
-0.1125
-0.121
-0.1255
-0.1565
-0.1485
-0.124
-0.133
-0.1285
-0.126
-0.12
-0.1235
-0.1345
-0.129
-0.1285
-0.1225
-0.113
-0.1115
-0.1085
-0.117
-0.1365
-0.1395
-0.1285
-0.125
-0.1275
-0.1145
-0.1035
-0.1125
-0.1265
-0.1425
-0.132
-0.117
-0.1215
-0.1305
-0.1255
-0.113
-0.116
-0.127
-0.1295
-0.113
-0.1225
-0.1355
-0.1195
-0.1135
-0.1215
-0.1355
-0.148
-0.147
-0.1385
-0.137
-0.145
-0.135
-0.122
-0.134
-0.128
-0.1135
-0.1275
-0.129
-0.1265
-0.13
-0.1235
-0.1285
-0.136
-0.137
-0.1415
-0.138
-0.1345
-0.1375
-0.133
-0.1315
-0.1245
-0.1285
-0.148
-0.1535
-0.1355
-0.125
-0.131
-0.1335
-0.1415
-0.142
-0.1355
-0.136
-0.1385
-0.1345
-0.1275
-0.138
-0.143
-0.1355
-0.137
-0.1315
-0.126
-0.1435
-0.1455
-0.125
-0.139
-0.149
-0.1245
-0.118
-0.1225
-0.139
-0.1405
-0.132
-0.148
-0.1395
-0.1425
-0.138
-0.1355
-0.1455
-0.131
-0.1505
-0.154
-0.1485
-0.152
-0.144
-0.139
-0.1255
-0.139
-0.147
-0.145
-0.154
-0.148
-0.141
-0.1355
-0.1265
-0.1335
-0.149
-0.146
-0.1435
-0.15
-0.1495
-0.1425
-0.1355
-0.139
-0.139
-0.1345
-0.1345
-0.1245
-0.1205
-0.127
-0.119
-0.124
-0.1365
-0.145
-0.143
-0.1235
-0.1355
-0.15
-0.1425
-0.142
-0.138
-0.1395
-0.144
-0.134
-0.134
-0.144
-0.137
-0.121
-0.1195
-0.1335
-0.137
-0.145
-0.1485
-0.1385
-0.137
-0.1455
-0.145
-0.1415
-0.136
-0.129
-0.1475
-0.1505
-0.1255
-0.123
-0.1455
-0.155
-0.149
-0.1455
-0.155
-0.1465
-0.1265
-0.1485
-0.158
-0.1415
-0.143
-0.141
-0.14
-0.1405
-0.133
-0.1235
-0.133
-0.134
-0.1215
-0.1455
-0.1545
-0.1575
-0.1475
-0.125
-0.1355
-0.1415
-0.1325
-0.124
-0.134
-0.1385
-0.1305
-0.1385
-0.1525
-0.1595
-0.156
-0.1395
-0.137
-0.149
-0.1405
-0.127
-0.14
-0.149
-0.1435
-0.1385
-0.141
-0.1405
-0.1355
-0.114
-0.1195
-0.1445
-0.1345
-0.1315
-0.1245
-0.1305
-0.1325
-0.1375
-0.1495
-0.1345
-0.143
-0.1525
-0.1435
-0.1395
-0.127
-0.129
-0.125
-0.122
-0.126
-0.1255
-0.1435
-0.128
-0.1265
-0.1255
-0.108
-0.1205
-0.1425
-0.153
-0.152
-0.151
-0.1395
-0.138
-0.135
-0.145
-0.14
-0.137
-0.1495
-0.1415
-0.143
-0.1305
-0.1255
-0.121
-0.1295
-0.1415
-0.1395
-0.1405
-0.127
-0.141
-0.156
-0.139
-0.1285
-0.1365
-0.149
-0.153
-0.1445
-0.136
-0.1345
-0.1315
-0.123
-0.1205
-0.123
-0.1325
-0.1255
-0.1365
-0.159
-0.148
-0.1465
-0.124
-0.1255
-0.1355
-0.1415
-0.144
-0.1195
-0.127
-0.137
-0.1355
-0.13
-0.1295
-0.12
-0.12
-0.1325
-0.145
-0.146
-0.137
-0.143
-0.138
-0.1335
-0.129
-0.1255
-0.1305
-0.13
-0.1285
-0.138
-0.125
-0.1165
-0.1255
-0.126
-0.1205
-0.1125
-0.122
-0.1205
-0.1215
-0.122
-0.1175
-0.1205
-0.1215
-0.1215
-0.1155
-0.1085
-0.1125
-0.11
-0.097
-0.0945
-0.0825
-0.0815
-0.0895
-0.095
-0.09
-0.0745
-0.077
-0.0735
-0.093
-0.1045
-0.0955
-0.097
-0.0925
-0.0995
-0.1065
-0.095
-0.084
-0.096
-0.102
-0.1
-0.091
-0.0865
-0.093
-0.0985
-0.1025
-0.087
-0.084
-0.09
-0.0965
-0.08
-0.073
-0.0835
-0.0855
-0.0915
-0.0775
-0.084
-0.0845
-0.0815
-0.0915
-0.0865
-0.081
-0.0935
-0.091
-0.055
-0.077
-0.0885
-0.0845
-0.1095
-0.106
-0.1095
-0.104
-0.0995
-0.1225
-0.125
-0.126
-0.128
-0.1225
-0.131
-0.1395
-0.1375
-0.139
-0.141
-0.143
-0.1445
-0.1375
-0.1435
-0.1475
-0.1345
-0.1345
-0.143
-0.139
-0.1295
-0.1335
-0.14
-0.13
-0.1405
-0.147
-0.1585
-0.1635
-0.1425
-0.1515
-0.154
-0.149
-0.1455
-0.137
-0.1355
-0.1405
-0.1425
-0.1295
-0.1365
-0.1425
-0.1355
-0.1525
-0.151
-0.1295
-0.134
-0.144
-0.15
-0.151
-0.1425
-0.1305
-0.1375
-0.147
-0.1415
-0.1345
-0.1375
-0.131
-0.1205
-0.142
-0.1465
-0.142
-0.142
-0.1385
-0.147
-0.1435
-0.1465
-0.145
-0.133
-0.1375
-0.1515
-0.147
-0.14
-0.1355
-0.1305
-0.135
-0.133
-0.16
-0.1625
-0.144
-0.135
-0.108
-0.0995
-0.0875
-0.06
-0.0335
-0.011
0.0095
0.0295
0.063
0.111
0.1395
0.179
0.208
0.218
0.2555
0.2915
0.297
0.2985
0.3015
0.2695
0.2435
0.226
0.1955
0.161
0.144
0.154
0.1455
0.153
0.1295
0.0915
0.0835
0.034
-0.0165
-0.049
-0.067
-0.098
-0.126
-0.1385
-0.155
-0.1645
-0.187
-0.199
-0.191
-0.178
-0.176
-0.1735
-0.175
-0.175
-0.18
-0.179
-0.152
-0.167
-0.1705
-0.158
-0.169
-0.157
-0.144
-0.1495
-0.15
-0.139
-0.1385
-0.165
-0.1795
-0.1605
-0.153
-0.152
-0.1515
-0.164
-0.1545
-0.1385
-0.1345
-0.133
-0.143
-0.143
-0.136
-0.1405
-0.142
-0.1435
-0.154
-0.137
-0.132
-0.144
-0.1305
-0.134
-0.1355
-0.1515
-0.1655
-0.1425
-0.14
-0.1325
-0.116
-0.1335
-0.128
-0.128
-0.1535
-0.1425
-0.1295
-0.1225
-0.128
-0.157
-0.1535
-0.1315
-0.1315
-0.118
-0.122
-0.1465
-0.1475
-0.14
-0.136
-0.1355
-0.1385
-0.1345
-0.1345
-0.147
-0.1305
-0.1315
-0.1355
-0.121
-0.1275
-0.123
-0.124
-0.134
-0.135
-0.1355
-0.1315
-0.133
-0.129
-0.113
-0.131
-0.139
-0.126
-0.127
-0.111
-0.115
-0.1245
-0.131
-0.128
-0.1285
-0.145
-0.1455
-0.1265
-0.1065
-0.1335
-0.1425
-0.1315
-0.1305
-0.135
-0.145
-0.119
-0.116
-0.127
-0.1135
-0.122
-0.138
-0.139
-0.1215
-0.116
-0.1285
-0.133
-0.139
-0.133
-0.128
-0.1315
-0.1225
-0.1285
-0.1345
-0.129
-0.127
-0.1305
-0.1225
-0.119
-0.137
-0.1285
-0.121
-0.116
-0.1275
-0.128
-0.1265
-0.1405
-0.12
-0.125
-0.12
-0.123
-0.151
-0.141
-0.104
-0.092
-0.106
-0.1175
-0.134
-0.1365
-0.138
-0.1375
-0.125
-0.1205
-0.123
-0.122
-0.128
-0.1295
-0.116
-0.1165
-0.126
-0.118
-0.1075
-0.115
-0.1195
-0.1245
-0.126
-0.122
-0.1235
-0.114
-0.115
-0.117
-0.115
-0.121
-0.127
-0.1265
-0.115
-0.113
-0.119
-0.1205
-0.1165
-0.117
-0.1295
-0.1265
-0.1145
-0.1185
-0.119
-0.1185
-0.1265
-0.12
-0.112
-0.115
-0.1175
-0.1205
-0.114
-0.115
-0.105
-0.09
-0.112
-0.1275
-0.115
-0.1035
-0.1235
-0.136
-0.121
-0.114
-0.1165
-0.109
-0.101
-0.1195
-0.1215
-0.107
-0.112
-0.1215
-0.126
-0.124
-0.112
-0.1155
-0.118
-0.128
-0.142
-0.123
-0.124
-0.129
-0.1345
-0.135
-0.13
-0.1455
-0.141
-0.1425
-0.1405
-0.126
-0.1275
-0.1315
-0.1345
-0.129
-0.1425
-0.1455
-0.127
-0.136
-0.133
-0.138
-0.143
-0.14
-0.1375
-0.128
-0.1285
-0.126
-0.1285
-0.1255
-0.143
-0.147
-0.1445
-0.1545
-0.1335
-0.1255
-0.135
-0.1335
-0.1205
-0.1095
-0.125
-0.1335
-0.1145
-0.112
-0.1285
-0.1305
-0.126
-0.1175
-0.1175
-0.134
-0.1275
-0.1025
-0.1205
-0.146
-0.1315
-0.1425
-0.149
-0.125
-0.119
-0.146
-0.154
-0.13
-0.1235
-0.126
-0.128
-0.115
-0.1135
-0.121
-0.113
-0.1115
-0.108
-0.101
-0.1055
-0.1275
-0.124
-0.1045
-0.1175
-0.1165
-0.1255
-0.136
-0.132
-0.148
-0.1445
-0.1405
-0.1315
-0.115
-0.1245
-0.1375
-0.1435
-0.1475
-0.1375
-0.139
-0.144
-0.1365
-0.137
-0.139
-0.144
-0.142
-0.1375
-0.132
-0.1185
-0.126
-0.121
-0.1215
-0.132
-0.127
-0.1225
-0.119
-0.1235
-0.13
-0.131
-0.123
-0.1305
-0.1325
-0.123
-0.119
-0.1155
-0.1215
-0.137
-0.1255
-0.1045
-0.1295
-0.141
-0.1265
-0.125
-0.136
-0.1495
-0.134
-0.131
-0.1295
-0.1075
-0.1175
-0.124
-0.126
-0.1455
-0.134
-0.1105
-0.12
-0.1265
-0.115
-0.118
-0.135
-0.136
-0.133
-0.1395
-0.1125
-0.1055
-0.1115
-0.109
-0.132
-0.139
-0.136
-0.131
-0.122
-0.1155
-0.1275
-0.1395
-0.1175
-0.128
-0.1545
-0.1255
-0.133
-0.1475
-0.1295
-0.134
-0.125
-0.1225
-0.123
-0.125
-0.1285
-0.1095
-0.102
-0.103
-0.116
-0.1315
-0.124
-0.132
-0.1335
-0.1315
-0.135
-0.118
-0.112
-0.1195
-0.116
-0.119
-0.141
-0.1435
-0.136
-0.135
-0.124
-0.124
-0.1145
-0.115
-0.1425
-0.135
-0.1205
-0.1185
-0.1175
-0.121
-0.1275
-0.1275
-0.119
-0.115
-0.115
-0.1185
-0.1255
-0.1315
-0.135
-0.13
-0.131
-0.137
-0.1245
-0.1365
-0.143
-0.128
-0.1385
-0.1445
-0.1395
-0.1255
-0.116
-0.111
-0.123
-0.1145
-0.0975
-0.11
-0.1195
-0.1325
-0.1325
-0.1345
-0.1375
-0.139
-0.142
-0.141
-0.146
-0.148
-0.1345
-0.137
-0.135
-0.1065
-0.1165
-0.1525
-0.169
-0.154
-0.1365
-0.125
-0.1175
-0.1385
-0.1425
-0.1485
-0.132
-0.1195
-0.136
-0.1335
-0.1305
-0.1085
-0.12
-0.125
-0.116
-0.144
-0.146
-0.1375
-0.1435
-0.1365
-0.131
-0.1305
-0.1375
-0.129
-0.1175
-0.14
-0.1405
-0.1415
-0.148
-0.132
-0.1275
-0.1245
-0.1275
-0.1325
-0.1245
-0.114
-0.127
-0.1385
-0.1365
-0.1465
-0.1415
-0.136
-0.1255
-0.134
-0.139
-0.1285
-0.148
-0.1425
-0.12
-0.117
-0.116
-0.124
-0.1235
-0.126
-0.1225
-0.128
-0.1515
-0.1385
-0.1405
-0.147
-0.146
-0.1495
-0.137
-0.1295
-0.1275
-0.1235
-0.1165
-0.126
-0.1375
-0.1365
-0.1455
-0.1365
-0.119
-0.1235
-0.125
-0.1295
-0.13
-0.135
-0.136
-0.1255
-0.1405
-0.1545
-0.144
-0.1255
-0.128
-0.126
-0.1265
-0.1305
-0.133
-0.135
-0.101
-0.106
-0.13
-0.129
-0.141
-0.138
-0.136
-0.1505
-0.139
-0.1355
-0.1335
-0.124
-0.134
-0.1405
-0.1265
-0.112
-0.1425
-0.166
-0.1425
-0.119
-0.1245
-0.1245
-0.127
-0.152
-0.1315
-0.1125
-0.128
-0.144
-0.1345
-0.1105
-0.1425
-0.161
-0.141
-0.1295
-0.134
-0.156
-0.15
-0.143
-0.1375
-0.118
-0.1295
-0.123
-0.127
-0.146
-0.1335
-0.1365
-0.1445
-0.144
-0.134
-0.128
-0.129
-0.1355
-0.1455
-0.1355
-0.122
-0.125
-0.123
-0.1295
-0.134
-0.132
-0.134
-0.132
-0.132
-0.136
-0.1345
-0.1285
-0.143
-0.1395
-0.134
-0.144
-0.14
-0.124
-0.1165
-0.1175
-0.1085
-0.121
-0.1325
-0.1085
-0.1165
-0.148
-0.127
-0.1145
-0.1085
-0.105
-0.135
-0.1325
-0.133
-0.1475
-0.1465
-0.1405
-0.142
-0.149
-0.1295
-0.129
-0.1555
-0.146
-0.139
-0.1315
-0.124
-0.129
-0.108
-0.113
-0.1095
-0.095
-0.1195
-0.136
-0.142
-0.115
-0.121
-0.148
-0.1205
-0.1175
-0.116
-0.1075
-0.116
-0.12
-0.1085
-0.105
-0.13
-0.1175
-0.1085
-0.12
-0.099
-0.1
-0.1055
-0.1005
-0.1065
-0.1035
-0.102
-0.0965
-0.1005
-0.109
-0.0925
-0.082
-0.0955
-0.098
-0.0835
-0.072
-0.0835
-0.099
-0.1005
-0.104
-0.0995
-0.1025
-0.105
-0.0935
-0.089
-0.1035
-0.1125
-0.105
-0.089
-0.082
-0.079
-0.074
-0.0915
-0.0865
-0.083
-0.0645
-0.054
-0.07
-0.054
-0.033
-0.045
-0.067
-0.0725
-0.068
-0.058
-0.089
-0.1115
-0.1085
-0.097
-0.0845
-0.077
-0.0735
-0.086
-0.08
-0.068
-0.076
-0.0865
-0.1025
-0.1265
-0.1145
-0.1005
-0.1215
-0.1185
-0.1205
-0.1205
-0.1115
-0.116
-0.1235
-0.1435
-0.1415
-0.129
-0.1225
-0.1325
-0.1415
-0.147
-0.157
-0.148
-0.147
-0.136
-0.1205
-0.1375
-0.145
-0.1515
-0.1575
-0.1605
-0.146
-0.119
-0.1245
-0.133
-0.151
-0.1615
-0.148
-0.144
-0.14
-0.128
-0.122
-0.126
-0.135
-0.1445
-0.156
-0.15
-0.1415
-0.143
-0.1425
-0.135
-0.1485
-0.164
-0.147
-0.143
-0.1255
-0.138
-0.158
-0.146
-0.1475
-0.126
-0.1215
-0.136
-0.132
-0.152
-0.178
-0.1515
-0.1405
-0.1385
-0.113
-0.127
-0.1365
-0.1525
-0.1545
-0.1465
-0.1345
-0.1205
-0.142
-0.144
-0.143
-0.133
-0.151
-0.1445
-0.133
-0.1405
-0.085
-0.062
-0.06
-0.0455
-0.008
0.0195
0.029
0.076
0.1185
0.152
0.1935
0.2105
0.241
0.269
0.2515
0.2745
0.281
0.242
0.218
0.2095
0.193
0.149
0.1295
0.1375
0.1315
0.119
0.0985
0.0885
0.062
0.021
-0.009
-0.0545
-0.0835
-0.0945
-0.106
-0.1235
-0.1455
-0.176
-0.188
-0.1875
-0.1935
-0.187
-0.187
-0.1945
-0.189
-0.153
-0.1455
-0.171
-0.1825
-0.1825
-0.183
-0.1715
-0.159
-0.159
-0.1465
-0.1515
-0.1405
-0.1445
-0.157
-0.147
-0.1485
-0.1335
-0.1435
-0.1505
-0.145
-0.1445
-0.141
-0.152
-0.1315
-0.112
-0.1205
-0.1485
-0.169
-0.1425
-0.111
-0.1195
-0.1415
-0.138
-0.132
-0.1325
-0.1325
-0.142
-0.156
-0.154
-0.1535
-0.1545
-0.15
-0.1345
-0.1105
-0.129
-0.1495
-0.1485
-0.1445
-0.1375
-0.137
-0.1385
-0.1395
-0.138
-0.1315
-0.127
-0.1215
-0.118
-0.148
-0.145
-0.1295
-0.1355
-0.133
-0.125
-0.13
-0.155
-0.156
-0.1415
-0.1365
-0.1305
-0.13
-0.1425
-0.125
-0.115
-0.1215
-0.127
-0.129
-0.153
-0.173
-0.143
-0.1195
-0.122
-0.1355
-0.12
-0.1175
-0.1065
-0.1025
-0.1235
-0.1215
-0.1425
-0.132
-0.102
-0.1285
-0.1515
-0.117
-0.114
-0.1485
-0.1225
-0.1125
-0.1085
-0.1215
-0.1595
-0.1255
-0.128
-0.15
-0.1415
-0.151
-0.145
-0.1165
-0.0965
-0.1175
-0.146
-0.131
-0.1225
-0.115
-0.101
-0.1035
-0.1275
-0.1255
-0.1025
-0.1325
-0.135
-0.1255
-0.119
-0.106
-0.1215
-0.1245
-0.1165
-0.1125
-0.11
-0.1165
-0.132
-0.1275
-0.1145
-0.111
-0.1115
-0.1085
-0.114
-0.1395
-0.136
-0.1115
-0.1145
-0.1145
-0.124
-0.1255
-0.1245
-0.1315
-0.1295
-0.134
-0.1265
-0.1345
-0.123
-0.1165
-0.1095
-0.0945
-0.1125
-0.107
-0.1155
-0.1265
-0.104
-0.1065
-0.1245
-0.1125
-0.117
-0.113
-0.1195
-0.1325
-0.1115
-0.115
-0.1155
-0.115
-0.113
-0.1045
-0.0975
-0.097
-0.1105
-0.1085
-0.096
-0.0935
-0.08
-0.0885
-0.099
-0.075
-0.1
-0.1355
-0.1465
-0.1415
-0.127
-0.1165
-0.1185
-0.114
-0.1065
-0.1245
-0.125
-0.1185
-0.116
-0.113
-0.117
-0.1185
-0.1075
-0.111
-0.126
-0.1305
-0.1185
-0.1135
-0.115
-0.1155
-0.1235
-0.1215
-0.119
-0.0965
-0.1075
-0.1265
-0.1085
-0.1
-0.113
-0.109
-0.1065
-0.1335
-0.129
-0.1205
-0.115
-0.111
-0.12
-0.118
-0.1085
-0.116
-0.1215
-0.1225
-0.128
-0.125
-0.125
-0.115
-0.131
-0.135
-0.099
-0.0985
-0.131
-0.1415
-0.1295
-0.1325
-0.126
-0.1215
-0.12
-0.118
-0.109
-0.1095
-0.1235
-0.126
-0.1265
-0.128
-0.145
-0.1445
-0.13
-0.1155
-0.13
-0.141
-0.1165
-0.128
-0.1195
-0.1205
-0.1125
-0.0945
-0.137
-0.1285
-0.1105
-0.125
-0.1365
-0.129
-0.114
-0.12
-0.1205
-0.1245
-0.1235
-0.128
-0.1325
-0.1215
-0.113
-0.109
-0.1215
-0.122
-0.1125
-0.1185
-0.1315
-0.1365
-0.1435
-0.141
-0.1245
-0.107
-0.1155
-0.1265
-0.1235
-0.124
-0.1145
-0.134
-0.113
-0.1195
-0.135
-0.111
-0.109
-0.0945
-0.0965
-0.1175
-0.1255
-0.122
-0.1195
-0.119
-0.1125
-0.1015
-0.112
-0.107
-0.106
-0.1005
-0.105
-0.128
-0.1265
-0.1185
-0.1005
-0.124
-0.132
-0.1325
-0.139
-0.1345
-0.139
-0.1215
-0.1255
-0.114
-0.1
-0.093
-0.121
-0.1575
-0.1355
-0.1095
-0.091
-0.1045
-0.1095
-0.1065
-0.128
-0.136
-0.1225
-0.1245
-0.1325
-0.1295
-0.134
-0.125
-0.122
-0.1115
-0.1045
-0.1205
-0.118
-0.119
-0.1345
-0.123
-0.126
-0.1345
-0.111
-0.131
-0.1315
-0.1075
-0.1065
-0.12
-0.1195
-0.1155
-0.136
-0.12
-0.1065
-0.1105
-0.101
-0.099
-0.1015
-0.141
-0.1615
-0.1345
-0.129
-0.1185
-0.1185
-0.1275
-0.1305
-0.136
-0.1295
-0.1375
-0.1275
-0.1275
-0.136
-0.096
-0.078
-0.0865
-0.1185
-0.14
-0.0975
-0.071
-0.114
-0.1475
-0.123
-0.108
-0.1015
-0.1085
-0.1245
-0.0905
-0.092
-0.1265
-0.13
-0.1635
-0.146
-0.1325
-0.144
-0.1255
-0.134
-0.1185
-0.1285
-0.137
-0.1215
-0.1245
-0.1245
-0.126
-0.117
-0.119
-0.1265
-0.119
-0.107
-0.1215
-0.1195
-0.1005
-0.1285
-0.169
-0.1535
-0.1195
-0.1305
-0.1295
-0.128
-0.1305
-0.1395
-0.149
-0.131
-0.1375
-0.1485
-0.137
-0.1025
-0.125
-0.1295
-0.124
-0.1275
-0.1085
-0.1325
-0.1035
-0.114
-0.1365
-0.125
-0.1145
-0.1175
-0.15
-0.148
-0.1605
-0.1435
-0.1225
-0.1375
-0.1435
-0.136
-0.1295
-0.132
-0.137
-0.153
-0.1435
-0.1345
-0.1445
-0.13
-0.1095
-0.132
-0.1335
-0.1235
-0.1355
-0.116
-0.135
-0.1495
-0.117
-0.114
-0.135
-0.1355
-0.126
-0.125
-0.147
-0.156
-0.128
-0.1215
-0.134
-0.1285
-0.1325
-0.1115
-0.105
-0.107
-0.109
-0.1445
-0.102
-0.0915
-0.0935
-0.127
-0.1635
-0.116
-0.128
-0.1175
-0.098
-0.109
-0.115
-0.152
-0.131
-0.1185
-0.148
-0.1325
-0.1255
-0.123
-0.136
-0.1425
-0.121
-0.1135
-0.1165
-0.1335
-0.1255
-0.106
-0.1325
-0.1265
-0.124
-0.14
-0.1265
-0.1225
-0.1195
-0.1255
-0.121
-0.145
-0.1365
-0.0945
-0.1245
-0.119
-0.1185
-0.1435
-0.122
-0.1005
-0.1055
-0.12
-0.141
-0.1255
-0.1035
-0.1185
-0.1145
-0.113
-0.118
-0.137
-0.1305
-0.111
-0.128
-0.117
-0.126
-0.129
-0.108
-0.124
-0.125
-0.118
-0.102
-0.101
-0.1425
-0.165
-0.1365
-0.1095
-0.1435
-0.141
-0.1285
-0.146
-0.113
-0.0975
-0.083
-0.0925
-0.136
-0.1225
-0.1555
-0.184
-0.135
-0.125
-0.118
-0.1185
-0.1285
-0.1045
-0.1105
-0.114
-0.1375
-0.144
-0.13
-0.1375
-0.1165
-0.1185
-0.124
-0.1475
-0.1375
-0.1055
-0.113
-0.1005
-0.1125
-0.132
-0.1265
-0.101
-0.096
-0.1215
-0.142
-0.133
-0.1115
-0.1115
-0.1155
-0.127
-0.119
-0.111
-0.117
-0.1225
-0.129
-0.129
-0.1155
-0.099
-0.1035
-0.1075
-0.101
-0.104
-0.1195
-0.1245
-0.112
-0.1195
-0.116
-0.136
-0.167
-0.133
-0.116
-0.1035
-0.112
-0.132
-0.111
-0.118
-0.125
-0.1135
-0.117
-0.1175
-0.1135
-0.119
-0.122
-0.117
-0.1065
-0.1035
-0.1045
-0.1155
-0.134
-0.1335
-0.134
-0.1255
-0.1195
-0.116
-0.109
-0.118
-0.1105
-0.0925
-0.0855
-0.081
-0.0755
-0.099
-0.1215
-0.1135
-0.1115
-0.0935
-0.0905
-0.104
-0.1195
-0.112
-0.0945
-0.101
-0.119
-0.1015
-0.0775
-0.1065
-0.069
-0.072
-0.085
-0.067
-0.0815
-0.061
-0.0725
-0.071
-0.0735
-0.0895
-0.066
-0.067
-0.0885
-0.1095
-0.122
-0.1105
-0.115
-0.108
-0.0995
-0.096
-0.0755
-0.095
-0.0985
-0.066
-0.0645
-0.074
-0.0635
-0.0585
-0.0625
-0.056
-0.059
-0.0635
-0.06
-0.0805
-0.0875
-0.0755
-0.0695
-0.0525
-0.051
-0.069
-0.0825
-0.0805
-0.076
-0.072
-0.0775
-0.087
-0.0945
-0.083
-0.0635
-0.071
-0.0785
-0.083
-0.0595
-0.0685
-0.1135
-0.107
-0.1055
-0.0905
-0.1045
-0.145
-0.134
-0.1215
-0.1215
-0.1215
-0.1195
-0.1365
-0.1245
-0.1095
-0.1405
-0.1565
-0.15
-0.1165
-0.127
-0.1485
-0.12
-0.1315
-0.1395
-0.127
-0.137
-0.104
-0.1015
-0.1545
-0.1625
-0.1455
-0.137
-0.131
-0.115
-0.115
-0.1495
-0.1405
-0.139
-0.14
-0.1125
-0.1365
-0.107
-0.109
-0.1505
-0.1435
-0.1275
-0.0945
-0.0905
-0.107
-0.1385
-0.137
-0.1325
-0.1495
-0.143
-0.133
-0.143
-0.1325
-0.109
-0.1235
-0.125
-0.112
-0.108
-0.1255
-0.1355
-0.1255
-0.1275
-0.144
-0.1445
-0.135
-0.1305
-0.135
-0.137
-0.1305
-0.1405
-0.132
-0.1125
-0.1115
-0.1135
-0.075
-0.0525
-0.0485
-0.0385
-0.0155
0.041
0.07
0.084
0.1065
0.152
0.1905
0.2185
0.25
0.2455
0.2535
0.271
0.278
0.2585
0.218
0.196
0.1685
0.1405
0.12
0.1115
0.123
0.116
0.095
0.092
0.0705
0.045
0.0205
-0.025
-0.0455
-0.0825
-0.118
-0.1175
-0.1305
-0.159
-0.1965
-0.2155
-0.195
-0.175
-0.1985
-0.175
-0.1525
-0.169
-0.154
-0.1665
-0.1745
-0.1595
-0.165
-0.1545
-0.1405
-0.137
-0.1285
-0.1345
-0.1165
-0.103
-0.124
-0.127
-0.127
-0.1265
-0.1245
-0.1315
-0.113
-0.134
-0.1515
-0.1305
-0.1385
-0.1215
-0.114
-0.132
-0.131
-0.1155
-0.122
-0.1515
-0.139
-0.114
-0.108
-0.0985
-0.115
-0.123
-0.1415
-0.147
-0.1185
-0.136
-0.1415
-0.136
-0.1165
-0.112
-0.1275
-0.1145
-0.121
-0.112
-0.1045
-0.101
-0.1045
-0.0995
-0.1035
-0.135
-0.142
-0.1245
-0.1025
-0.1205
-0.1265
-0.1205
-0.103
-0.1115
-0.132
-0.1205
-0.1045
-0.106
-0.1495
-0.126
-0.0985
-0.0995
-0.1005
-0.1195
-0.0985
-0.115
-0.135
-0.128
-0.1145
-0.09
-0.11
-0.095
-0.0795
-0.1215
-0.142
-0.131
-0.116
-0.106
-0.104
-0.1095
-0.09
-0.114
-0.128
-0.1215
-0.0945
-0.0705
-0.129
-0.1395
-0.104
-0.092
-0.1235
-0.104
-0.0835
-0.107
-0.11
-0.115
-0.1045
-0.1
-0.112
-0.131
-0.132
-0.1255
-0.122
-0.122
-0.1035
-0.096
-0.133
-0.143
-0.1235
-0.126
-0.1445
-0.1095
-0.0925
-0.12
-0.1155
-0.1055
-0.1125
-0.1055
-0.086
-0.093
-0.102
-0.104
-0.115
-0.13
-0.131
-0.131
-0.116
-0.096
-0.1095
-0.0965
-0.1005
-0.1095
-0.081
-0.0845
-0.104
-0.1095
-0.1005
-0.1055
-0.0935
-0.0925
-0.118
-0.115
-0.1115
-0.114
-0.1185
-0.1105
-0.099
-0.1005
-0.1125
-0.11
-0.089
-0.0725
-0.084
-0.111
-0.0955
-0.1195
-0.139
-0.0875
-0.0985
-0.1155
-0.104
-0.1135
-0.094
-0.0955
-0.092
-0.0745
-0.0965
-0.088
-0.079
-0.095
-0.1035
-0.1195
-0.1315
-0.117
-0.1145
-0.1135
-0.105
-0.1175
-0.1165
-0.0885
-0.072
-0.1045
-0.1245
-0.1065
-0.0905
-0.1075
-0.1075
-0.0875
-0.095
-0.09
-0.079
-0.0735
-0.079
-0.1055
-0.1385
-0.135
-0.0995
-0.086
-0.096
-0.102
-0.11
-0.1025
-0.09
-0.0915
-0.0865
-0.1315
-0.175
-0.1465
-0.108
-0.113
-0.132
-0.126
-0.122
-0.0915
-0.102
-0.1285
-0.1035
-0.1005
-0.1135
-0.1195
-0.1065
-0.1185
-0.1215
-0.127
-0.1355
-0.0945
-0.096
-0.119
-0.123
-0.1315
-0.1185
-0.119
-0.136
-0.123
-0.106
-0.0955
-0.1035
-0.1045
-0.1075
-0.121
-0.1135
-0.115
-0.128
-0.1365
-0.117
-0.116
-0.1325
-0.1325
-0.1225
-0.116
-0.1005
-0.0965
-0.119
-0.119
-0.127
-0.1235
-0.107
-0.105
-0.114
-0.0985
-0.0725
-0.105
-0.1355
-0.116
-0.1015
-0.126
-0.1305
-0.1285
-0.1285
-0.099
-0.11
-0.103
-0.0805
-0.102
-0.121
-0.1405
-0.1255
-0.114
-0.1255
-0.1265
-0.1255
-0.121
-0.1105
-0.11
-0.123
-0.115
-0.121
-0.1135
-0.0895
-0.126
-0.1395
-0.0995
-0.0955
-0.109
-0.112
-0.116
-0.122
-0.108
-0.112
-0.118
-0.1205
-0.1165
-0.0855
-0.114
-0.118
-0.1085
-0.123
-0.1315
-0.119
-0.0925
-0.107
-0.116
-0.113
-0.1105
-0.0945
-0.099
-0.1155
-0.1185
-0.136
-0.129
-0.0865
-0.098
-0.1385
-0.1245
-0.1325
-0.115
-0.0855
-0.128
-0.1455
-0.1205
-0.1185
-0.141
-0.1335
-0.118
-0.112
-0.1265
-0.137
-0.119
-0.101
-0.0985
-0.1205
-0.095
-0.0865
-0.1385
-0.1385
-0.1225
-0.1155
-0.124
-0.1225
-0.0915
-0.104
-0.122
-0.1325
-0.134
-0.112
-0.1345
-0.14
-0.1245
-0.102
-0.0975
-0.1235
-0.12
-0.1165
-0.106
-0.117
-0.1325
-0.1305
-0.1035
-0.101
-0.1175
-0.1165
-0.1195
-0.11
-0.098
-0.109
-0.133
-0.1355
-0.1295
-0.131
-0.146
-0.1215
-0.103
-0.1085
-0.1125
-0.112
-0.1125
-0.1025
-0.098
-0.139
-0.131
-0.1465
-0.154
-0.11
-0.127
-0.1225
-0.113
-0.131
-0.1245
-0.1185
-0.1195
-0.1265
-0.1195
-0.1195
-0.1345
-0.133
-0.118
-0.134
-0.171
-0.1315
-0.125
-0.168
-0.1335
-0.1145
-0.115
-0.1015
-0.118
-0.126
-0.1375
-0.119
-0.108
-0.149
-0.121
-0.1085
-0.1395
-0.126
-0.1045
-0.105
-0.1185
-0.125
-0.1505
-0.1365
-0.1335
-0.1365
-0.1
-0.1345
-0.1405
-0.129
-0.13
-0.12
-0.142
-0.1325
-0.139
-0.137
-0.123
-0.1585
-0.142
-0.1225
-0.1355
-0.1245
-0.1175
-0.1175
-0.135
-0.1255
-0.12
-0.1265
-0.099
-0.1155
-0.1315
-0.111
-0.114
-0.095
-0.0965
-0.11
-0.101
-0.12
-0.1365
-0.1185
-0.126
-0.1555
-0.118
-0.1195
-0.136
-0.1375
-0.1475
-0.136
-0.123
-0.112
-0.119
-0.108
-0.125
-0.1325
-0.1225
-0.1345
-0.132
-0.1275
-0.114
-0.1245
-0.134
-0.1345
-0.1375
-0.1255
-0.128
-0.1185
-0.132
-0.1505
-0.1425
-0.152
-0.123
-0.11
-0.1145
-0.085
-0.1245
-0.154
-0.1315
-0.123
-0.118
-0.125
-0.1205
-0.1295
-0.1365
-0.121
-0.114
-0.119
-0.118
-0.111
-0.101
-0.1075
-0.1305
-0.1185
-0.1175
-0.1195
-0.1035
-0.119
-0.141
-0.149
-0.1315
-0.129
-0.13
-0.137
-0.159
-0.123
-0.11
-0.098
-0.115
-0.144
-0.136
-0.1485
-0.139
-0.135
-0.1205
-0.119
-0.1215
-0.1095
-0.1215
-0.138
-0.1195
-0.0925
-0.1065
-0.121
-0.1155
-0.115
-0.119
-0.15
-0.177
-0.152
-0.125
-0.144
-0.156
-0.1185
-0.1315
-0.1525
-0.1545
-0.12
-0.105
-0.1415
-0.132
-0.122
-0.102
-0.095
-0.1045
-0.131
-0.128
-0.111
-0.1435
-0.121
-0.119
-0.139
-0.092
-0.1065
-0.119
-0.1225
-0.1465
-0.118
-0.1245
-0.128
-0.135
-0.1375
-0.1235
-0.1385
-0.1305
-0.1305
-0.122
-0.0885
-0.1305
-0.1255
-0.0885
-0.134
-0.1455
-0.1455
-0.1125
-0.0815
-0.115
-0.1305
-0.107
-0.1285
-0.1645
-0.1275
-0.1075
-0.1075
-0.1135
-0.132
-0.1215
-0.1305
-0.134
-0.1215
-0.1135
-0.1035
-0.1245
-0.1235
-0.1235
-0.1295
-0.1155
-0.113
-0.1095
-0.1055
-0.088
-0.0995
-0.12
-0.0995
-0.113
-0.1305
-0.1225
-0.142
-0.137
-0.1225
-0.126
-0.1175
-0.1075
-0.103
-0.102
-0.1075
-0.1155
-0.103
-0.0975
-0.086
-0.097
-0.1135
-0.116
-0.112
-0.0825
-0.0905
-0.103
-0.074
-0.086
-0.123
-0.1095
-0.0965
-0.103
-0.0955
-0.068
-0.0945
-0.109
-0.0985
-0.091
-0.0615
-0.098
-0.112
-0.09
-0.091
-0.0785
-0.0475
-0.0765
-0.121
-0.1085
-0.0945
-0.1045
-0.109
-0.097
-0.098
-0.0795
-0.075
-0.103
-0.091
-0.063
-0.0655
-0.0735
-0.0805
-0.087
-0.0715
-0.056
-0.0415
-0.068
-0.0895
-0.0825
-0.0995
-0.088
-0.0895
-0.088
-0.0795
-0.0645
-0.074
-0.072
-0.0555
-0.105
-0.12
-0.088
-0.055
-0.065
-0.085
-0.106
-0.105
-0.088
-0.099
-0.0905
-0.0995
-0.1065
-0.1185
-0.128
-0.1165
-0.1325
-0.126
-0.117
-0.1155
-0.1515
-0.188
-0.149
-0.126
-0.134
-0.1275
-0.1415
-0.1385
-0.1135
-0.121
-0.128
-0.131
-0.119
-0.1065
-0.101
-0.108
-0.112
-0.104
-0.1425
-0.1615
-0.126
-0.1245
-0.1445
-0.134
-0.132
-0.1615
-0.169
-0.147
-0.1395
-0.144
-0.143
-0.1245
-0.115
-0.1305
-0.1215
-0.1165
-0.1195
-0.1155
-0.1165
-0.0945
-0.1065
-0.1325
-0.124
-0.119
-0.1425
-0.1815
-0.172
-0.1295
-0.1105
-0.132
-0.126
-0.1225
-0.168
-0.155
-0.114
-0.122
-0.161
-0.1535
-0.141
-0.1435
-0.1105
-0.114
-0.1125
-0.1445
-0.162
-0.1345
-0.163
-0.1275
-0.123
-0.121
-0.0615
-0.064
-0.041
-0.029
-0.019
0.022
0.0575
0.0765
0.093
0.1425
0.175
0.195
0.252
0.265
0.2485
0.258
0.2085
0.1705
0.157
0.1535
0.147
0.1155
0.0865
0.071
0.0675
0.052
0.064
0.0605
0.018
-0.028
-0.0505
-0.069
-0.092
-0.116
-0.143
-0.1195
-0.172
-0.188
-0.145
-0.2075
-0.2215
-0.19
-0.1525
-0.1455
-0.158
-0.1475
-0.181
-0.209
-0.1875
-0.155
-0.1605
-0.173
-0.1525
-0.162
-0.133
-0.1155
-0.144
-0.1145
-0.1295
-0.1195
-0.1115
-0.1305
-0.1325
-0.177
-0.1445
-0.1385
-0.1355
-0.101
-0.131
-0.1335
-0.1415
-0.1435
-0.146
-0.1255
-0.1105
-0.148
-0.143
-0.1145
-0.122
-0.1175
-0.1105
-0.156
-0.1095
-0.112
-0.1325
-0.0955
-0.1365
-0.131
-0.121
-0.1265
-0.149
-0.14
-0.124
-0.141
-0.1405
-0.1445
-0.144
-0.1335
-0.124
-0.1395
-0.129
-0.1405
-0.144
-0.1185
-0.1315
-0.12
-0.107
-0.1245
-0.1345
-0.134
-0.141
-0.133
-0.1185
-0.114
-0.123
-0.133
-0.123
-0.1075
-0.105
-0.123
-0.1055
-0.0795
-0.076
-0.1045
-0.1455
-0.108
-0.1245
-0.149
-0.102
-0.09
-0.1175
-0.137
-0.1205
-0.124
-0.1245
-0.114
-0.1315
-0.1245
-0.113
-0.099
-0.0955
-0.118
-0.117
-0.1025
-0.1155
-0.142
-0.1135
-0.1065
-0.1215
-0.119
-0.1505
-0.144
-0.115
-0.1365
-0.13
-0.119
-0.106
-0.086
-0.091
-0.1035
-0.0915
-0.1015
-0.136
-0.1235
-0.1245
-0.11
-0.104
-0.096
-0.098
-0.1185
-0.104
-0.15
-0.158
-0.1195
-0.1025
-0.0845
-0.118
-0.127
-0.103
-0.1175
-0.107
-0.1125
-0.1035
-0.077
-0.115
-0.127
-0.1155
-0.1185
-0.119
-0.111
-0.128
-0.116
-0.1
-0.1065
-0.1055
-0.128
-0.1195
-0.093
-0.0895
-0.131
-0.1365
-0.1195
-0.102
-0.093
-0.1175
-0.1085
-0.112
-0.1155
-0.1045
-0.11
-0.121
-0.1105
-0.111
-0.1275
-0.119
-0.118
-0.113
-0.094
-0.0845
-0.0735
-0.0855
-0.1325
-0.1265
-0.1045
-0.111
-0.114
-0.1145
-0.0945
-0.111
-0.114
-0.1265
-0.13
-0.103
-0.115
-0.106
-0.1275
-0.1355
-0.1185
-0.115
-0.114
-0.102
-0.1005
-0.121
-0.1085
-0.098
-0.09
-0.1085
-0.1045
-0.1085
-0.11
-0.1075
-0.137
-0.1095
-0.112
-0.125
-0.133
-0.1125
-0.1075
-0.117
-0.086
-0.092
-0.097
-0.117
-0.137
-0.1225
-0.1115
-0.11
-0.1335
-0.136
-0.1205
-0.0995
-0.113
-0.1245
-0.0985
-0.1345
-0.146
-0.1355
-0.144
-0.1195
-0.097
-0.0935
-0.1165
-0.1635
-0.1545
-0.1355
-0.143
-0.1305
-0.1215
-0.114
-0.1185
-0.12
-0.116
-0.114
-0.112
-0.0935
-0.108
-0.1205
-0.113
-0.1295
-0.12
-0.134
-0.1365
-0.1425
-0.158
-0.1415
-0.129
-0.1265
-0.1415
-0.129
-0.1455
-0.138
-0.0935
-0.118
-0.119
-0.1305
-0.1355
-0.0925
-0.0985
-0.11
-0.096
-0.1215
-0.126
-0.0955
-0.115
-0.1365
-0.136
-0.105
-0.0855
-0.1235
-0.147
-0.1435
-0.127
-0.098
-0.111
-0.1135
-0.102
-0.132
-0.1115
-0.122
-0.126
-0.084
-0.1035
-0.108
-0.0875
-0.1045
-0.155
-0.1375
-0.1065
-0.0965
-0.11
-0.135
-0.1265
-0.11
-0.102
-0.1375
-0.1355
-0.131
-0.1295
-0.124
-0.1315
-0.1185
-0.121
-0.122
-0.111
-0.1115
-0.107
-0.107
-0.123
-0.1345
-0.1375
-0.127
-0.12
-0.107
-0.1125
-0.119
-0.116
-0.1
-0.094
-0.1035
-0.0865
-0.0905
-0.1145
-0.147
-0.1275
-0.0805
-0.0985
-0.121
-0.1605
-0.1625
-0.1135
-0.1465
-0.1525
-0.127
-0.129
-0.1385
-0.1485
-0.126
-0.1135
-0.1245
-0.125
-0.1175
-0.117
-0.136
-0.132
-0.1205
-0.1155
-0.096
-0.129
-0.1465
-0.1415
-0.1415
-0.1255
-0.139
-0.136
-0.111
-0.1085
-0.101
-0.0845
-0.1015
-0.11
-0.1115
-0.1295
-0.143
-0.1235
-0.1085
-0.1215
-0.118
-0.1215
-0.12
-0.122
-0.1185
-0.1185
-0.126
-0.111
-0.1195
-0.143
-0.1405
-0.149
-0.1285
-0.0895
-0.1175
-0.1265
-0.1255
-0.145
-0.1405
-0.117
-0.119
-0.1275
-0.1195
-0.115
-0.105
-0.108
-0.1485
-0.156
-0.131
-0.114
-0.0725
-0.109
-0.1505
-0.1565
-0.1355
-0.109
-0.1335
-0.1325
-0.123
-0.1205
-0.1335
-0.1375
-0.1265
-0.132
-0.1365
-0.1215
-0.0945
-0.0865
-0.101
-0.119
-0.1385
-0.1255
-0.119
-0.1445
-0.142
-0.1565
-0.168
-0.155
-0.128
-0.1115
-0.1355
-0.147
-0.142
-0.131
-0.133
-0.1135
-0.0965
-0.134
-0.1715
-0.155
-0.144
-0.1425
-0.127
-0.117
-0.1235
-0.151
-0.1345
-0.1305
-0.116
-0.107
-0.108
-0.1045
-0.153
-0.1465
-0.1455
-0.1365
-0.116
-0.1165
-0.096
-0.0935
-0.1215
-0.1675
-0.129
-0.128
-0.1535
-0.134
-0.151
-0.137
-0.1225
-0.1335
-0.1365
-0.14
-0.127
-0.108
-0.1205
-0.1295
-0.1185
-0.1275
-0.143
-0.128
-0.134
-0.149
-0.1515
-0.1335
-0.1325
-0.1305
-0.089
-0.1255
-0.1365
-0.126
-0.129
-0.123
-0.13
-0.1195
-0.1405
-0.147
-0.126
-0.1225
-0.1245
-0.118
-0.1235
-0.1325
-0.12
-0.128
-0.1305
-0.1285
-0.1435
-0.1115
-0.108
-0.134
-0.147
-0.154
-0.131
-0.1175
-0.1405
-0.116
-0.09
-0.1275
-0.114
-0.145
-0.134
-0.103
-0.165
-0.1505
-0.13
-0.1025
-0.1005
-0.1285
-0.1275
-0.1525
-0.131
-0.118
-0.1365
-0.14
-0.13
-0.1275
-0.1575
-0.135
-0.1325
-0.148
-0.114
-0.115
-0.119
-0.1185
-0.1185
-0.1435
-0.137
-0.1115
-0.13
-0.1235
-0.1295
-0.115
-0.1265
-0.152
-0.14
-0.135
-0.138
-0.1415
-0.1195
-0.1245
-0.122
-0.13
-0.1305
-0.112
-0.1415
-0.1535
-0.1325
-0.115
-0.1205
-0.1165
-0.1305
-0.1395
-0.1255
-0.1375
-0.1195
-0.1235
-0.1265
-0.134
-0.147
-0.1305
-0.114
-0.1105
-0.1295
-0.132
-0.1195
-0.1335
-0.1365
-0.12
-0.1465
-0.1435
-0.1395
-0.1285
-0.1285
-0.1305
-0.115
-0.1165
-0.1055
-0.122
-0.1135
-0.1185
-0.127
-0.118
-0.1175
-0.1365
-0.1585
-0.14
-0.141
-0.1275
-0.142
-0.132
-0.083
-0.1385
-0.1465
-0.1345
-0.1705
-0.1425
-0.125
-0.124
-0.1315
-0.1305
-0.1175
-0.121
-0.1185
-0.1045
-0.1135
-0.1395
-0.1265
-0.108
-0.0995
-0.103
-0.0975
-0.1015
-0.107
-0.1345
-0.14
-0.093
-0.088
-0.104
-0.1105
-0.0875
-0.1115
-0.128
-0.112
-0.1145
-0.093
-0.114
-0.1205
-0.098
-0.12
-0.099
-0.0865
-0.093
-0.0785
-0.104
-0.104
-0.0885
-0.053
-0.0515
-0.125
-0.132
-0.1225
-0.1185
-0.075
-0.076
-0.0835
-0.0805
-0.099
-0.096
-0.098
-0.0885
-0.1025
-0.121
-0.1025
-0.098
-0.0925
-0.1025
-0.0985
-0.097
-0.089
-0.061
-0.0405
-0.0885
-0.1005
-0.0505
-0.07
-0.0815
-0.089
-0.058
-0.0755
-0.108
-0.096
-0.1175
-0.0945
-0.073
-0.084
-0.0975
-0.098
-0.092
-0.123
-0.133
-0.0845
-0.0965
-0.0905
-0.066
-0.087
-0.088
-0.0985
-0.0985
-0.1085
-0.115
-0.142
-0.1235
-0.0995
-0.149
-0.146
-0.151
-0.164
-0.1615
-0.165
-0.132
-0.1285
-0.143
-0.13
-0.1225
-0.13
-0.1485
-0.1545
-0.144
-0.1235
-0.118
-0.106
-0.12
-0.14
-0.1395
-0.1465
-0.1225
-0.116
-0.135
-0.136
-0.136
-0.1415
-0.1415
-0.153
-0.146
-0.1415
-0.1335
-0.1265
-0.1495
-0.1295
-0.139
-0.1355
-0.122
-0.1505
-0.1395
-0.137
-0.129
-0.1275
-0.118
-0.105
-0.1445
-0.149
-0.1195
-0.127
-0.1225
-0.0945
-0.113
-0.125
-0.1155
-0.1315
-0.1205
-0.0945
-0.1415
-0.1615
-0.1345
-0.1435
-0.16
-0.1485
-0.139
-0.1745
-0.1845
-0.1615
-0.1435
-0.107
-0.1025
-0.106
-0.098
-0.066
-0.0365
-0.0545
-0.03
0.0085
0.0485
0.0675
0.0985
0.1125
0.1345
0.178
0.184
0.224
0.1975
0.182
0.225
0.2045
0.1555
0.139
0.1275
0.0925
0.097
0.0725
0.064
0.072
0.0475
0.062
0.023
0.0085
-0.006
-0.0845
-0.113
-0.1315
-0.1585
-0.1495
-0.127
-0.1225
-0.2055
-0.2595
-0.2345
-0.2155
-0.1635
-0.17
-0.1725
-0.144
-0.161
-0.187
-0.161
-0.1645
-0.1565
-0.109
-0.1185
-0.1235
-0.15
-0.1765
-0.1795
-0.1515
-0.142
-0.1615
-0.171
-0.1825
-0.177
-0.157
-0.15
-0.1565
-0.133
-0.129
-0.131
-0.149
-0.158
-0.1065
-0.127
-0.1445
-0.1275
-0.122
-0.124
-0.1405
-0.1235
-0.1295
-0.1165
-0.135
-0.16
-0.1115
-0.136
-0.1575
-0.1595
-0.1675
-0.138
-0.152
-0.155
-0.1445
-0.1425
-0.125
-0.118
-0.1105
-0.085
-0.1045
-0.1435
-0.135
-0.117
-0.1275
-0.1335
-0.112
-0.109
-0.1005
-0.103
-0.112
-0.1325
-0.15
-0.137
-0.1155
-0.125
-0.1265
-0.1165
-0.108
-0.0985
-0.119
-0.1285
-0.139
-0.144
-0.152
-0.1375
-0.1385
-0.133
-0.1135
-0.0985
-0.092
-0.1245
-0.122
-0.12
-0.1225
-0.0795
-0.061
-0.149
-0.196
-0.112
-0.1215
-0.1655
-0.1495
-0.139
-0.1395
-0.1525
-0.117
-0.112
-0.1085
-0.103
-0.0925
-0.0755
-0.107
-0.1455
-0.1365
-0.127
-0.1605
-0.106
-0.091
-0.132
-0.09
-0.1205
-0.15
-0.1225
-0.1245
-0.108
-0.128
-0.1225
-0.1155
-0.1365
-0.1255
-0.103
-0.0835
-0.101
-0.1165
-0.1305
-0.1305
-0.1225
-0.121
-0.123
-0.115
-0.111
-0.1025
-0.102
-0.1
-0.094
-0.088
-0.0995
-0.1565
-0.127
-0.104
-0.133
-0.1025
-0.098
-0.143
-0.1235
-0.088
-0.1065
-0.136
-0.149
-0.1305
-0.115
-0.1055
-0.1105
-0.1315
-0.116
-0.1095
-0.0985
-0.098
-0.1095
-0.0915
-0.0745
-0.1035
-0.142
-0.1085
-0.112
-0.1175
-0.1065
-0.119
-0.096
-0.108
-0.121
-0.102
-0.0885
-0.1
-0.107
-0.0895
-0.1095
-0.1095
-0.1195
-0.1015
-0.079
-0.107
-0.0805
-0.0735
-0.1095
-0.1015
-0.0885
-0.11
-0.1095
-0.114
-0.0905
-0.0775
-0.1105
-0.117
-0.1335
-0.114
-0.1115
-0.12
-0.116
-0.1385
-0.1205
-0.1135
-0.1255
-0.1285
-0.131
-0.122
-0.113
-0.1125
-0.0985
-0.1
-0.112
-0.1185
-0.1235
-0.112
-0.1045
-0.09
-0.0905
-0.103
-0.133
-0.168
-0.112
-0.0885
-0.0965
-0.0955
-0.1145
-0.127
-0.14
-0.1045
-0.0885
-0.0875
-0.1175
-0.1325
-0.1455
-0.158
-0.1335
-0.15
-0.136
-0.107
-0.1255
-0.127
-0.118
-0.118
-0.1125
-0.114
-0.135
-0.1305
-0.1125
-0.138
-0.1215
-0.133
-0.124
-0.1245
-0.15
-0.121
-0.1285
-0.1075
-0.102
-0.1
-0.1015
-0.128
-0.1065
-0.09
-0.1225
-0.1065
-0.073
-0.111
-0.109
-0.108
-0.1185
-0.1005
-0.1175
-0.1255
-0.1
-0.099
-0.1095
-0.105
-0.1105
-0.1165
-0.141
-0.1525
-0.128
-0.1205
-0.129
-0.1155
-0.1015
-0.124
-0.13
-0.116
-0.1135
-0.092
-0.098
-0.123
-0.1085
-0.118
-0.123
-0.113
-0.1055
-0.089
-0.0925
-0.1105
-0.142
-0.1465
-0.1265
-0.1395
-0.1185
-0.096
-0.128
-0.122
-0.1065
-0.1245
-0.1275
-0.1085
-0.128
-0.125
-0.112
-0.1435
-0.1235
-0.105
-0.13
-0.1235
-0.131
-0.104
-0.0895
-0.1385
-0.119
-0.126
-0.1405
-0.1265
-0.108
-0.1075
-0.1135
-0.101
-0.142
-0.139
-0.123
-0.1145
-0.111
-0.1295
-0.1225
-0.1355
-0.1165
-0.0655
-0.1
-0.163
-0.1425
-0.1115
-0.093
-0.083
-0.1015
-0.1205
-0.1085
-0.1125
-0.1405
-0.117
-0.1275
-0.1495
-0.1425
-0.1165
-0.098
-0.1465
-0.153
-0.1365
-0.128
-0.115
-0.145
-0.1235
-0.124
-0.1575
-0.1285
-0.1195
-0.128
-0.1335
-0.1395
-0.152
-0.1385
-0.112
-0.116
-0.115
-0.121
-0.132
-0.1145
-0.103
-0.1065
-0.109
-0.1115
-0.1355
-0.163
-0.1585
-0.16
-0.129
-0.1075
-0.103
-0.091
-0.115
-0.1165
-0.118
-0.133
-0.1365
-0.13
-0.135
-0.121
-0.1245
-0.121
-0.0925
-0.128
-0.1285
-0.125
-0.135
-0.1495
-0.1495
-0.134
-0.1515
-0.1435
-0.143
-0.1175
-0.108
-0.1375
-0.1275
-0.1045
-0.102
-0.111
-0.102
-0.1175
-0.14
-0.128
-0.1245
-0.1265
-0.1335
-0.1305
-0.1175
-0.127
-0.142
-0.1335
-0.1175
-0.133
-0.1605
-0.131
-0.074
-0.1035
-0.1005
-0.093
-0.152
-0.1335
-0.122
-0.123
-0.0875
-0.1005
-0.115
-0.135
-0.1045
-0.0705
-0.105
-0.1225
-0.1715
-0.157
-0.122
-0.1445
-0.144
-0.1245
-0.126
-0.15
-0.15
-0.127
-0.1135
-0.1325
-0.1195
-0.1245
-0.1525
-0.14
-0.1335
-0.147
-0.161
-0.1085
-0.102
-0.136
-0.1275
-0.1285
-0.123
-0.126
-0.14
-0.1445
-0.1315
-0.125
-0.128
-0.125
-0.119
-0.127
-0.1175
-0.1175
-0.132
-0.1045
-0.0995
-0.1545
-0.1195
-0.0885
-0.12
-0.1085
-0.1345
-0.146
-0.1405
-0.1345
-0.1145
-0.114
-0.124
-0.15
-0.1565
-0.145
-0.129
-0.102
-0.1325
-0.1575
-0.1425
-0.1385
-0.1315
-0.1195
-0.136
-0.128
-0.083
-0.0855
-0.105
-0.13
-0.1345
-0.142
-0.132
-0.1305
-0.126
-0.1055
-0.1435
-0.125
-0.135
-0.152
-0.126
-0.135
-0.123
-0.135
-0.101
-0.0705
-0.0995
-0.0915
-0.124
-0.1195
-0.0755
-0.079
-0.119
-0.1665
-0.15
-0.1375
-0.14
-0.12
-0.1225
-0.1245
-0.124
-0.147
-0.159
-0.1405
-0.15
-0.1845
-0.162
-0.1335
-0.137
-0.1235
-0.092
-0.111
-0.1105
-0.094
-0.1195
-0.1275
-0.115
-0.0985
-0.097
-0.1025
-0.142
-0.1585
-0.1525
-0.115
-0.09
-0.1395
-0.1685
-0.1615
-0.1465
-0.149
-0.146
-0.1505
-0.1385
-0.1215
-0.1445
-0.133
-0.11
-0.1075
-0.1045
-0.114
-0.137
-0.145
-0.0965
-0.0875
-0.1145
-0.1165
-0.1
-0.0885
-0.0935
-0.114
-0.156
-0.147
-0.1165
-0.1155
-0.1335
-0.12
-0.1395
-0.1355
-0.1045
-0.113
-0.1065
-0.1345
-0.1185
-0.0955
-0.128
-0.12
-0.097
-0.1205
-0.124
-0.127
-0.1415
-0.1375
-0.1315
-0.145
-0.13
-0.101
-0.118
-0.099
-0.105
-0.0675
-0.099
-0.1545
-0.143
-0.1645
-0.1185
-0.115
-0.083
-0.1095
-0.1625
-0.127
-0.1475
-0.1545
-0.119
-0.0965
-0.1195
-0.127
-0.123
-0.1105
-0.1085
-0.1075
-0.1005
-0.104
-0.0995
-0.1175
-0.096
-0.1135
-0.103
-0.0845
-0.12
-0.106
-0.11
-0.098
-0.085
-0.106
-0.1105
-0.1195
-0.119
-0.1005
-0.0955
-0.0635
-0.0695
-0.0795
-0.0945
-0.0885
-0.0805
-0.1015
-0.1065
-0.125
-0.0435
-0.049
-0.095
-0.081
-0.058
-0.0595
-0.083
-0.103
-0.101
-0.0365
-0.0865
-0.1235
-0.1105
-0.107
-0.087
-0.102
-0.0895
-0.0815
-0.064
-0.08
-0.0915
-0.035
-0.0695
-0.0935
-0.097
-0.077
-0.0325
-0.051
-0.0615
-0.0685
-0.0945
-0.142
-0.1195
-0.087
-0.072
-0.061
-0.0825
-0.077
-0.0795
-0.065
-0.0495
-0.0555
-0.0845
-0.088
-0.092
-0.107
-0.091
-0.115
-0.1385
-0.1335
-0.1265
-0.1235
-0.094
-0.0925
-0.114
-0.127
-0.1655
-0.1755
-0.1375
-0.1385
-0.1665
-0.1495
-0.127
-0.101
-0.0965
-0.1085
-0.1125
-0.128
-0.13
-0.1115
-0.1105
-0.1015
-0.118
-0.139
-0.1245
-0.141
-0.134
-0.1285
-0.107
-0.0915
-0.1215
-0.112
-0.1225
-0.1625
-0.121
-0.1005
-0.15
-0.123
-0.112
-0.125
-0.1385
-0.156
-0.1375
-0.126
-0.1255
-0.143
-0.0975
-0.0935
-0.162
-0.1645
-0.14
-0.099
-0.098
-0.1265
-0.097
-0.097
-0.1535
-0.113
-0.0985
-0.152
-0.152
-0.1365
-0.123
-0.158
-0.195
-0.194
-0.164
-0.1565
-0.1545
-0.1305
-0.132
-0.1295
-0.1305
-0.1265
-0.0945
-0.0675
-0.041
-0.029
-0.011
0.0155
0.042
0.078
0.113
0.125
0.137
0.178
0.2015
0.2205
0.204
0.208
0.179
0.146
0.175
0.151
0.16
0.1265
0.0965
0.074
0.0345
0.045
0.018
0.048
0.0285
-0.0335
-0.0735
-0.0895
-0.095
-0.137
-0.112
-0.149
-0.1975
-0.1805
-0.2
-0.2095
-0.179
-0.16
-0.1605
-0.1785
-0.1795
-0.151
-0.163
-0.1755
-0.177
-0.1455
-0.1205
-0.1675
-0.146
-0.144
-0.162
-0.1165
-0.1415
-0.152
-0.123
-0.14
-0.13
-0.112
-0.148
-0.118
-0.106
-0.1105
-0.1055
-0.111
-0.0965
-0.106
-0.092
-0.1075
-0.1025
-0.11
-0.1515
-0.14
-0.132
-0.139
-0.134
-0.158
-0.1395
-0.1225
-0.162
-0.142
-0.1365
-0.1535
-0.1525
-0.1335
-0.128
-0.1335
-0.1255
-0.12
-0.119
-0.135
-0.1205
-0.0985
-0.116
-0.109
-0.0795
-0.0735
-0.09
-0.1235
-0.149
-0.118
-0.092
-0.1155
-0.134
-0.1305
-0.113
-0.101
-0.096
-0.1015
-0.114
-0.133
-0.14
-0.1455
-0.1005
-0.093
-0.1405
-0.1205
-0.114
-0.111
-0.116
-0.1385
-0.126
-0.108
-0.109
-0.104
-0.1145
-0.131
-0.128
-0.1105
-0.0925
-0.125
-0.113
-0.111
-0.13
-0.099
-0.1135
-0.111
-0.1
-0.1205
-0.1175
-0.1065
-0.1205
-0.1
-0.096
-0.114
-0.104
-0.1285
-0.1035
-0.0935
-0.119
-0.0955
-0.1095
-0.1265
-0.1175
-0.1005
-0.098
-0.1385
-0.111
-0.0845
-0.1185
-0.1165
-0.106
-0.104
-0.098
-0.1205
-0.13
-0.125
-0.144
-0.1255
-0.102
-0.0985
-0.101
-0.099
-0.0825
-0.057
-0.0885
-0.134
-0.148
-0.1555
-0.11
-0.1285
-0.1335
-0.0785
-0.095
-0.1225
-0.115
-0.1235
-0.133
-0.107
-0.0875
-0.088
-0.105
-0.0995
-0.1325
-0.15
-0.1105
-0.109
-0.1045
-0.102
-0.091
-0.104
-0.104
-0.0915
-0.118
-0.0905
-0.0685
-0.115
-0.1235
-0.085
-0.0935
-0.0775
-0.083
-0.108
-0.119
-0.1215
-0.0955
-0.121
-0.1095
-0.07
-0.0725
-0.1035
-0.1135
-0.0855
-0.1005
-0.096
-0.0935
-0.104
-0.098
-0.1095
-0.099
-0.1215
-0.079
-0.076
-0.1305
-0.112
-0.1085
-0.1145
-0.108
-0.063
-0.108
-0.145
-0.0865
-0.089
-0.1145
-0.1125
-0.1085
-0.1015
-0.057
-0.0825
-0.144
-0.103
-0.122
-0.132
-0.1
-0.1135
-0.0845
-0.099
-0.1425
-0.124
-0.1135
-0.1335
-0.1215
-0.095
-0.0855
-0.1195
-0.1675
-0.169
-0.127
-0.132
-0.1615
-0.131
-0.102
-0.1005
-0.145
-0.1525
-0.144
-0.1395
-0.1295
-0.122
-0.122
-0.1555
-0.1335
-0.0905
-0.0845
-0.125
-0.1465
-0.128
-0.119
-0.1185
-0.1255
-0.1415
-0.1345
-0.1145
-0.109
-0.122
-0.119
-0.104
-0.118
-0.1005
-0.095
-0.08
-0.087
-0.131
-0.131
-0.129
-0.125
-0.15
-0.14
-0.1145
-0.126
-0.0915
-0.093
-0.116
-0.144
-0.1695
-0.124
-0.1055
-0.108
-0.1125
-0.121
-0.1275
-0.1455
-0.0935
-0.0945
-0.1395
-0.1075
-0.0915
-0.094
-0.0915
-0.0985
-0.12
-0.0945
-0.1085
-0.132
-0.1195
-0.142
-0.1095
-0.11
-0.1305
-0.144
-0.142
-0.1235
-0.119
-0.0745
-0.0755
-0.1165
-0.105
-0.1085
-0.127
-0.109
-0.1055
-0.0735
-0.0965
-0.105
-0.089
-0.1125
-0.1485
-0.139
-0.094
-0.1195
-0.125
-0.123
-0.098
-0.1185
-0.145
-0.128
-0.127
-0.117
-0.113
-0.1115
-0.12
-0.1065
-0.111
-0.1135
-0.1045
-0.122
-0.108
-0.1095
-0.1035
-0.1035
-0.1265
-0.0995
-0.0885
-0.081
-0.0575
-0.0855
-0.102
-0.093
-0.1145
-0.1345
-0.1395
-0.1435
-0.176
-0.145
-0.083
-0.072
-0.092
-0.1185
-0.11
-0.1285
-0.1015
-0.095
-0.15
-0.1365
-0.115
-0.115
-0.1145
-0.1195
-0.08
-0.063
-0.1185
-0.127
-0.1125
-0.1195
-0.158
-0.1635
-0.14
-0.137
-0.124
-0.126
-0.134
-0.137
-0.116
-0.1145
-0.1235
-0.106
-0.1035
-0.1005
-0.0925
-0.1325
-0.149
-0.134
-0.1385
-0.1255
-0.128
-0.1165
-0.116
-0.123
-0.0975
-0.108
-0.091
-0.116
-0.172
-0.1145
-0.091
-0.0845
-0.096
-0.145
-0.1475
-0.1435
-0.088
-0.079
-0.128
-0.1345
-0.1275
-0.1175
-0.123
-0.149
-0.168
-0.144
-0.092
-0.1035
-0.1405
-0.13
-0.102
-0.096
-0.112
-0.1215
-0.1505
-0.133
-0.092
-0.0995
-0.141
-0.166
-0.139
-0.127
-0.139
-0.1205
-0.113
-0.1105
-0.1035
-0.117
-0.1155
-0.1275
-0.1125
-0.1235
-0.14
-0.1265
-0.1355
-0.1405
-0.146
-0.122
-0.1255
-0.113
-0.117
-0.1405
-0.104
-0.11
-0.1475
-0.168
-0.172
-0.1395
-0.1275
-0.132
-0.116
-0.144
-0.1465
-0.108
-0.095
-0.1375
-0.1475
-0.114
-0.093
-0.1105
-0.158
-0.119
-0.0885
-0.1415
-0.142
-0.134
-0.158
-0.1085
-0.118
-0.1505
-0.0965
-0.11
-0.1265
-0.129
-0.126
-0.109
-0.131
-0.1085
-0.094
-0.142
-0.1525
-0.1385
-0.1175
-0.0705
-0.109
-0.105
-0.106
-0.1785
-0.143
-0.109
-0.1
-0.1255
-0.1445
-0.1155
-0.109
-0.105
-0.1245
-0.1405
-0.1255
-0.1165
-0.1265
-0.1425
-0.133
-0.116
-0.121
-0.154
-0.1475
-0.1155
-0.1405
-0.1395
-0.138
-0.1135
-0.112
-0.1555
-0.1295
-0.134
-0.119
-0.107
-0.1355
-0.135
-0.1075
-0.0895
-0.1175
-0.1215
-0.1345
-0.1305
-0.1205
-0.13
-0.117
-0.115
-0.1215
-0.1415
-0.1245
-0.1195
-0.1275
-0.1095
-0.131
-0.1595
-0.1185
-0.059
-0.1025
-0.0945
-0.088
-0.1295
-0.1175
-0.122
-0.124
-0.1045
-0.1295
-0.1585
-0.134
-0.137
-0.098
-0.1005
-0.111
-0.1135
-0.1495
-0.119
-0.125
-0.1805
-0.1495
-0.101
-0.1035
-0.108
-0.1575
-0.149
-0.1445
-0.1465
-0.1235
-0.1255
-0.1265
-0.131
-0.1255
-0.143
-0.1285
-0.115
-0.1195
-0.1205
-0.1215
-0.1115
-0.1115
-0.1195
-0.1095
-0.101
-0.089
-0.0965
-0.146
-0.1195
-0.1035
-0.125
-0.1315
-0.135
-0.134
-0.121
-0.104
-0.1285
-0.0965
-0.107
-0.165
-0.1435
-0.1405
-0.141
-0.148
-0.1315
-0.1055
-0.0715
-0.1055
-0.1655
-0.0995
-0.08
-0.1105
-0.1405
-0.128
-0.1135
-0.1255
-0.092
-0.103
-0.133
-0.138
-0.1225
-0.124
-0.141
-0.147
-0.143
-0.1135
-0.1085
-0.127
-0.1305
-0.124
-0.1185
-0.0765
-0.069
-0.1145
-0.136
-0.1165
-0.103
-0.134
-0.1305
-0.105
-0.1085
-0.1335
-0.1345
-0.1105
-0.13
-0.1305
-0.104
-0.087
-0.074
-0.0895
-0.1025
-0.12
-0.117
-0.094
-0.094
-0.0935
-0.093
-0.0905
-0.103
-0.0905
-0.076
-0.0775
-0.0585
-0.081
-0.1195
-0.1295
-0.092
-0.067
-0.07
-0.086
-0.084
-0.083
-0.077
-0.0705
-0.0945
-0.048
-0.0285
-0.061
-0.095
-0.0875
-0.0915
-0.124
-0.098
-0.0935
-0.1035
-0.1035
-0.0835
-0.0735
-0.099
-0.0765
-0.0605
-0.0785
-0.0865
-0.091
-0.069
-0.0665
-0.083
-0.091
-0.0875
-0.0655
-0.104
-0.109
-0.094
-0.0885
-0.0735
-0.0945
-0.0795
-0.0615
-0.0625
-0.065
-0.0765
-0.091
-0.075
-0.0575
-0.05
-0.047
-0.097
-0.118
-0.087
-0.0715
-0.08
-0.0975
-0.0985
-0.098
-0.089
-0.097
-0.122
-0.1175
-0.102
-0.119
-0.1415
-0.123
-0.1155
-0.1335
-0.135
-0.131
-0.1205
-0.105
-0.115
-0.146
-0.1595
-0.1495
-0.127
-0.1105
-0.126
-0.14
-0.1255
-0.111
-0.1115
-0.1185
-0.128
-0.1205
-0.125
-0.093
-0.079
-0.1115
-0.1115
-0.129
-0.1395
-0.148
-0.151
-0.119
-0.109
-0.1075
-0.1095
-0.146
-0.143
-0.1145
-0.1185
-0.118
-0.141
-0.144
-0.118
-0.1075
-0.086
-0.078
-0.108
-0.152
-0.123
-0.1225
-0.146
-0.1305
-0.163
-0.151
-0.135
-0.137
-0.1225
-0.1165
-0.1235
-0.119
-0.12
-0.1525
-0.142
-0.134
-0.148
-0.1375
-0.11
-0.052
-0.038
-0.0725
-0.064
-0.015
0.0085
0.028
0.08
0.079
0.081
0.1385
0.176
0.18
0.1955
0.212
0.1995
0.1935
0.1775
0.155
0.144
0.1175
0.0945
0.0845
0.077
0.0625
0.052
0.0335
0.027
0.011
-0.025
-0.053
-0.0825
-0.124
-0.1545
-0.122
-0.1465
-0.1865
-0.174
-0.2035
-0.2065
-0.184
-0.196
-0.1945
-0.164
-0.147
-0.1675
-0.18
-0.1625
-0.165
-0.168
-0.167
-0.155
-0.141
-0.1365
-0.1355
-0.148
-0.1455
-0.119
-0.113
-0.1355
-0.135
-0.1135
-0.1055
-0.127
-0.123
-0.1235
-0.131
-0.11
-0.124
-0.155
-0.1365
-0.115
-0.1495
-0.158
-0.123
-0.14
-0.168
-0.1455
-0.1385
-0.1625
-0.151
-0.126
-0.128
-0.149
-0.1345
-0.105
-0.121
-0.118
-0.121
-0.102
-0.099
-0.129
-0.091
-0.088
-0.111
-0.1075
-0.1345
-0.1355
-0.1155
-0.111
-0.087
-0.109
-0.1275
-0.0945
-0.086
-0.111
-0.1625
-0.173
-0.1095
-0.104
-0.105
-0.089
-0.1595
-0.1405
-0.0925
-0.0995
-0.105
-0.1295
-0.111
-0.111
-0.126
-0.121
-0.1095
-0.112
-0.1285
-0.1165
-0.124
-0.1185
-0.113
-0.1225
-0.114
-0.135
-0.1355
-0.1195
-0.122
-0.1225
-0.0925
-0.092
-0.12
-0.1205
-0.1275
-0.1145
-0.106
-0.1085
-0.1055
-0.108
-0.101
-0.112
-0.129
-0.106
-0.101
-0.11
-0.113
-0.1155
-0.0975
-0.1355
-0.152
-0.1175
-0.113
-0.111
-0.107
-0.087
-0.0665
-0.0795
-0.0965
-0.108
-0.1355
-0.122
-0.1185
-0.124
-0.1045
-0.098
-0.079
-0.077
-0.097
-0.1265
-0.1165
-0.1005
-0.128
-0.12
-0.12
-0.1325
-0.1115
-0.099
-0.102
-0.121
-0.112
-0.0945
-0.111
-0.1245
-0.117
-0.1
-0.1075
-0.0935
-0.089
-0.0985
-0.093
-0.104
-0.1065
-0.1155
-0.105
-0.093
-0.0825
-0.0975
-0.1325
-0.122
-0.1215
-0.1165
-0.089
-0.1055
-0.109
-0.0925
-0.1285
-0.1275
-0.1115
-0.101
-0.085
-0.0765
-0.073
-0.106
-0.103
-0.095
-0.0975
-0.0805
-0.074
-0.09
-0.1295
-0.13
-0.112
-0.1305
-0.1435
-0.1105
-0.0835
-0.1055
-0.11
-0.103
-0.1035
-0.101
-0.094
-0.105
-0.1315
-0.0975
-0.104
-0.123
-0.114
-0.1355
-0.1065
-0.0975
-0.0925
-0.0965
-0.123
-0.0945
-0.0925
-0.1315
-0.119
-0.108
-0.1185
-0.104
-0.12
-0.1165
-0.1065
-0.0845
-0.0865
-0.1245
-0.1195
-0.102
-0.092
-0.1165
-0.144
-0.138
-0.1235
-0.127
-0.1215
-0.113
-0.1105
-0.0995
-0.1095
-0.114
-0.109
-0.097
-0.083
-0.1095
-0.1285
-0.129
-0.1305
-0.1195
-0.108
-0.126
-0.131
-0.104
-0.1245
-0.144
-0.1305
-0.111
-0.136
-0.1515
-0.1325
-0.137
-0.1205
-0.1215
-0.1165
-0.109
-0.11
-0.1155
-0.132
-0.1075
-0.0875
-0.114
-0.135
-0.1205
-0.1285
-0.1325
-0.108
-0.1015
-0.1125
-0.113
-0.0855
-0.0885
-0.109
-0.108
-0.1005
-0.1075
-0.1225
-0.107
-0.111
-0.107
-0.0805
-0.104
-0.128
-0.1175
-0.1265
-0.1155
-0.097
-0.098
-0.0975
-0.1165
-0.106
-0.104
-0.1185
-0.109
-0.1025
-0.1115
-0.0965
-0.099
-0.1255
-0.112
-0.1235
-0.132
-0.096
-0.0865
-0.0985
-0.111
-0.141
-0.125
-0.1055
-0.1
-0.102
-0.11
-0.1045
-0.1145
-0.121
-0.1405
-0.1265
-0.1035
-0.105
-0.106
-0.107
-0.108
-0.103
-0.0815
-0.079
-0.088
-0.089
-0.1115
-0.1405
-0.1265
-0.1135
-0.122
-0.1165
-0.1135
-0.1205
-0.1325
-0.1095
-0.09
-0.114
-0.1225
-0.128
-0.122
-0.113
-0.122
-0.1065
-0.107
-0.1025
-0.0895
-0.1345
-0.139
-0.113
-0.0945
-0.079
-0.0985
-0.102
-0.0915
-0.134
-0.1715
-0.137
-0.113
-0.1085
-0.129
-0.117
-0.1085
-0.101
-0.0925
-0.1335
-0.128
-0.1235
-0.1115
-0.12
-0.125
-0.1165
-0.1225
-0.104
-0.1125
-0.117
-0.1235
-0.139
-0.129
-0.11
-0.1
-0.1075
-0.115
-0.1085
-0.1005
-0.092
-0.087
-0.099
-0.1145
-0.131
-0.134
-0.105
-0.111
-0.1135
-0.093
-0.1105
-0.1295
-0.1315
-0.137
-0.1345
-0.12
-0.1205
-0.1065
-0.119
-0.149
-0.1575
-0.135
-0.101
-0.0975
-0.1365
-0.132
-0.1025
-0.1395
-0.1165
-0.122
-0.129
-0.1045
-0.1285
-0.1325
-0.133
-0.1265
-0.1175
-0.121
-0.102
-0.104
-0.1265
-0.103
-0.1065
-0.1285
-0.1185
-0.13
-0.1445
-0.1255
-0.0995
-0.1035
-0.1085
-0.109
-0.1295
-0.123
-0.1255
-0.1325
-0.127
-0.1475
-0.1255
-0.114
-0.1325
-0.123
-0.1225
-0.1205
-0.1165
-0.123
-0.1225
-0.123
-0.1575
-0.157
-0.1105
-0.114
-0.121
-0.137
-0.148
-0.1325
-0.143
-0.127
-0.1045
-0.1135
-0.127
-0.124
-0.1165
-0.1085
-0.1115
-0.1135
-0.1155
-0.1015
-0.089
-0.1355
-0.1305
-0.0995
-0.116
-0.142
-0.1425
-0.1385
-0.1415
-0.139
-0.135
-0.1295
-0.152
-0.1235
-0.1015
-0.1125
-0.1085
-0.1165
-0.1285
-0.1405
-0.118
-0.113
-0.1235
-0.1155
-0.1105
-0.1125
-0.132
-0.1365
-0.1225
-0.123
-0.128
-0.1385
-0.1485
-0.1535
-0.1325
-0.124
-0.129
-0.118
-0.1085
-0.1105
-0.124
-0.1005
-0.118
-0.134
-0.1125
-0.1185
-0.1245
-0.12
-0.1295
-0.128
-0.1155
-0.1295
-0.114
-0.1185
-0.1225
-0.105
-0.1195
-0.1295
-0.137
-0.1225
-0.105
-0.1125
-0.1305
-0.1435
-0.1295
-0.106
-0.1115
-0.114
-0.1115
-0.112
-0.103
-0.1185
-0.1175
-0.105
-0.095
-0.0995
-0.116
-0.0935
-0.078
-0.135
-0.1595
-0.107
-0.0965
-0.108
-0.1225
-0.1665
-0.1485
-0.106
-0.137
-0.157
-0.135
-0.1185
-0.1175
-0.1175
-0.111
-0.117
-0.1275
-0.126
-0.1285
-0.1265
-0.109
-0.103
-0.108
-0.109
-0.121
-0.1185
-0.109
-0.11
-0.1115
-0.113
-0.0985
-0.0905
-0.106
-0.129
-0.128
-0.1235
-0.1235
-0.1185
-0.128
-0.132
-0.129
-0.11
-0.117
-0.14
-0.1265
-0.1235
-0.1215
-0.125
-0.1455
-0.1295
-0.118
-0.13
-0.131
-0.119
-0.104
-0.115
-0.112
-0.106
-0.114
-0.0735
-0.07
-0.0875
-0.118
-0.1525
-0.1275
-0.132
-0.1275
-0.1235
-0.122
-0.1175
-0.1465
-0.1405
-0.131
-0.132
-0.11
-0.0845
-0.09
-0.1215
-0.1275
-0.1355
-0.1605
-0.145
-0.1015
-0.086
-0.078
-0.0925
-0.0995
-0.103
-0.1415
-0.1355
-0.1075
-0.074
-0.083
-0.095
-0.1205
-0.1705
-0.1405
-0.1255
-0.1225
-0.114
-0.124
-0.1275
-0.1205
-0.103
-0.1155
-0.139
-0.111
-0.099
-0.115
-0.118
-0.117
-0.1165
-0.1095
-0.0945
-0.088
-0.1
-0.112
-0.1005
-0.102
-0.11
-0.112
-0.1125
-0.119
-0.116
-0.101
-0.0965
-0.1145
-0.094
-0.06
-0.082
-0.0955
-0.1045
-0.092
-0.0885
-0.109
-0.0925
-0.081
-0.092
-0.0895
-0.0895
-0.093
-0.0685
-0.065
-0.09
-0.077
-0.056
-0.075
-0.0725
-0.0565
-0.061
-0.087
-0.118
-0.093
-0.0825
-0.0855
-0.079
-0.0905
-0.0835
-0.0715
-0.073
-0.063
-0.061
-0.0805
-0.0825
-0.081
-0.069
-0.0645
-0.092
-0.092
-0.0655
-0.062
-0.0635
-0.07
-0.0995
-0.0775
-0.053
-0.057
-0.061
-0.0805
-0.0765
-0.0655
-0.0735
-0.086
-0.074
-0.0795
-0.095
-0.101
-0.1095
-0.0915
-0.1075
-0.1095
-0.092
-0.1095
-0.1125
-0.101
-0.091
-0.097
-0.0975
-0.074
-0.0905
-0.1455
-0.159
-0.1465
-0.15
-0.127
-0.108
-0.1295
-0.1465
-0.1495
-0.1435
-0.126
-0.116
-0.1205
-0.1255
-0.1325
-0.1305
-0.138
-0.1305
-0.116
-0.131
-0.136
-0.12
-0.127
-0.138
-0.1445
-0.1465
-0.1195
-0.097
-0.121
-0.1225
-0.1105
-0.1415
-0.1325
-0.117
-0.111
-0.1045
-0.112
-0.1265
-0.1435
-0.103
-0.105
-0.1715
-0.1555
-0.123
-0.1455
-0.1505
-0.1245
-0.1165
-0.134
-0.1285
-0.1195
-0.116
-0.101
-0.1355
-0.132
-0.108
-0.1445
-0.1355
-0.1255
-0.11
-0.1225
-0.155
-0.149
-0.165
-0.147
-0.129
-0.129
-0.129
-0.1455
-0.128
-0.0865
-0.048
-0.032
-0.0105
0.033
0.0635
0.1025
0.1285
0.142
0.145
0.1715
0.2225
0.2105
0.2145
0.219
0.21
0.19
0.1395
0.1385
0.119
0.1105
0.116
0.0885
0.085
0.055
0.0425
0.0565
0.019
-0.027
-0.094
-0.1125
-0.109
-0.1515
-0.1525
-0.147
-0.1875
-0.219
-0.207
-0.199
-0.179
-0.1815
-0.1735
-0.1505
-0.1615
-0.1725
-0.194
-0.177
-0.1585
-0.1575
-0.155
-0.1445
-0.152
-0.1545
-0.1445
-0.15
-0.139
-0.1525
-0.1495
-0.1545
-0.153
-0.1245
-0.1365
-0.1405
-0.1195
-0.1215
-0.1245
-0.128
-0.128
-0.123
-0.131
-0.123
-0.128
-0.145
-0.1455
-0.1265
-0.1205
-0.122
-0.108
-0.115
-0.1305
-0.127
-0.118
-0.1005
-0.0965
-0.123
-0.121
-0.1155
-0.1235
-0.1195
-0.126
-0.1095
-0.1265
-0.1365
-0.1115
-0.1305
-0.1345
-0.1285
-0.1155
-0.099
-0.109
-0.114
-0.103
-0.1145
-0.1325
-0.1315
-0.119
-0.123
-0.1265
-0.116
-0.1155
-0.125
-0.1325
-0.103
-0.086
-0.108
-0.109
-0.1075
-0.11
-0.107
-0.107
-0.113
-0.1135
-0.093
-0.109
-0.113
-0.1125
-0.129
-0.125
-0.105
-0.092
-0.127
-0.1305
-0.1205
-0.1215
-0.105
-0.115
-0.1155
-0.1195
-0.1145
-0.1065
-0.128
-0.1155
-0.1075
-0.122
-0.1015
-0.0785
-0.106
-0.1215
-0.119
-0.1085
-0.0965
-0.092
-0.1
-0.138
-0.1295
-0.118
-0.1115
-0.098
-0.121
-0.135
-0.129
-0.1245
-0.112
-0.1025
-0.108
-0.115
-0.113
-0.1095
-0.1175
-0.106
-0.0805
-0.0735
-0.078
-0.0745
-0.101
-0.1165
-0.081
-0.1035
-0.1485
-0.129
-0.0955
-0.0945
-0.109
-0.1125
-0.117
-0.117
-0.115
-0.1135
-0.111
-0.1155
-0.106
-0.098
-0.0925
-0.0975
-0.0995
-0.063
-0.075
-0.102
-0.117
-0.138
-0.118
-0.09
-0.087
-0.1005
-0.097
-0.106
-0.096
-0.088
-0.0985
-0.11
-0.107
-0.0845
-0.085
-0.103
-0.1035
-0.0845
-0.098
-0.078
-0.0625
-0.092
-0.111
-0.1075
-0.1005
-0.1005
-0.079
-0.0925
-0.1105
-0.089
-0.087
-0.0925
-0.088
-0.0995
-0.099
-0.098
-0.1095
-0.0995
-0.11
-0.1245
-0.1265
-0.117
-0.1185
-0.104
-0.0915
-0.118
-0.093
-0.0975
-0.1205
-0.105
-0.108
-0.127
-0.125
-0.128
-0.125
-0.1075
-0.1255
-0.136
-0.124
-0.105
-0.0965
-0.114
-0.1155
-0.1015
-0.105
-0.0955
-0.105
-0.107
-0.11
-0.1165
-0.094
-0.1035
-0.1065
-0.107
-0.115
-0.129
-0.1315
-0.121
-0.1145
-0.1055
-0.0985
-0.0925
-0.1095
-0.1185
-0.1075
-0.101
-0.0905
-0.1115
-0.143
-0.1215
-0.1205
-0.139
-0.134
-0.131
-0.114
-0.118
-0.115
-0.1115
-0.131
-0.1005
-0.092
-0.134
-0.124
-0.105
-0.1245
-0.1165
-0.1155
-0.119
-0.1125
-0.1205
-0.118
-0.1095
-0.1025
-0.1055
-0.111
-0.103
-0.074
-0.048
-0.0575
-0.108
-0.141
-0.1475
-0.1575
-0.122
-0.088
-0.114
-0.1315
-0.1265
-0.1095
-0.11
-0.1115
-0.1025
-0.1175
-0.102
-0.1195
-0.126
-0.094
-0.0965
-0.091
-0.105
-0.0985
-0.098
-0.1175
-0.102
-0.107
-0.109
-0.0985
-0.092
-0.1195
-0.1225
-0.0975
-0.1275
-0.1205
-0.1045
-0.106
-0.0955
-0.1015
-0.1015
-0.101
-0.109
-0.123
-0.107
-0.1095
-0.1195
-0.0935
-0.1045
-0.1035
-0.1185
-0.1085
-0.0955
-0.1515
-0.128
-0.088
-0.067
-0.0845
-0.123
-0.1295
-0.131
-0.0905
-0.0815
-0.0835
-0.083
-0.1015
-0.1015
-0.099
-0.0955
-0.1095
-0.115
-0.1015
-0.109
-0.1155
-0.113
-0.1115
-0.1095
-0.109
-0.1045
-0.104
-0.1085
-0.1035
-0.103
-0.1135
-0.1245
-0.123
-0.0935
-0.087
-0.112
-0.114
-0.1155
-0.1245
-0.1315
-0.117
-0.1035
-0.122
-0.13
-0.1295
-0.1145
-0.1195
-0.121
-0.107
-0.1235
-0.129
-0.1305
-0.113
-0.1035
-0.114
-0.1085
-0.125
-0.1245
-0.113
-0.124
-0.0995
-0.091
-0.1145
-0.1345
-0.1285
-0.1135
-0.1295
-0.1025
-0.074
-0.104
-0.097
-0.0835
-0.104
-0.1055
-0.111
-0.1235
-0.1295
-0.111
-0.0925
-0.103
-0.1135
-0.1245
-0.1165
-0.12
-0.1105
-0.112
-0.133
-0.129
-0.1415
-0.135
-0.125
-0.124
-0.116
-0.1155
-0.1165
-0.108
-0.123
-0.136
-0.131
-0.1285
-0.1135
-0.131
-0.1205
-0.1095
-0.12
-0.111
-0.136
-0.145
-0.1325
-0.12
-0.1205
-0.12
-0.1205
-0.125
-0.1325
-0.1415
-0.1115
-0.115
-0.1245
-0.108
-0.1075
-0.1195
-0.1195
-0.121
-0.134
-0.1165
-0.1235
-0.128
-0.1205
-0.127
-0.119
-0.128
-0.1225
-0.1175
-0.122
-0.109
-0.107
-0.1145
-0.1195
-0.1185
-0.1205
-0.1155
-0.1085
-0.1245
-0.119
-0.114
-0.1165
-0.1005
-0.1065
-0.1195
-0.13
-0.1145
-0.098
-0.112
-0.1185
-0.119
-0.1115
-0.1145
-0.136
-0.1325
-0.1275
-0.1175
-0.1005
-0.1125
-0.111
-0.127
-0.1425
-0.1235
-0.121
-0.1245
-0.1045
-0.082
-0.086
-0.0985
-0.121
-0.128
-0.116
-0.1095
-0.1175
-0.128
-0.1295
-0.1295
-0.1255
-0.1125
-0.117
-0.13
-0.117
-0.128
-0.147
-0.133
-0.111
-0.102
-0.102
-0.1235
-0.106
-0.081
-0.087
-0.084
-0.118
-0.145
-0.1595
-0.1585
-0.129
-0.1175
-0.1175
-0.1205
-0.1195
-0.1275
-0.13
-0.12
-0.142
-0.1325
-0.11
-0.1145
-0.108
-0.127
-0.132
-0.1225
-0.117
-0.1165
-0.1245
-0.117
-0.126
-0.111
-0.1115
-0.105
-0.0775
-0.0995
-0.1225
-0.1435
-0.1255
-0.108
-0.1165
-0.109
-0.109
-0.105
-0.108
-0.1125
-0.122
-0.1345
-0.13
-0.1215
-0.1255
-0.131
-0.132
-0.1175
-0.114
-0.1115
-0.1165
-0.144
-0.1225
-0.1185
-0.112
-0.104
-0.1055
-0.081
-0.095
-0.109
-0.1195
-0.1305
-0.116
-0.108
-0.102
-0.1045
-0.1085
-0.1195
-0.1285
-0.12
-0.123
-0.1265
-0.134
-0.1315
-0.12
-0.1145
-0.106
-0.106
-0.125
-0.129
-0.1095
-0.124
-0.141
-0.1205
-0.0985
-0.095
-0.107
-0.1235
-0.126
-0.124
-0.1275
-0.127
-0.0975
-0.089
-0.1255
-0.13
-0.116
-0.1215
-0.1125
-0.1055
-0.1205
-0.1195
-0.1155
-0.1135
-0.1145
-0.1095
-0.093
-0.106
-0.111
-0.126
-0.129
-0.113
-0.126
-0.1115
-0.1045
-0.107
-0.1055
-0.091
-0.063
-0.0905
-0.1195
-0.123
-0.1105
-0.102
-0.115
-0.1265
-0.149
-0.147
-0.139
-0.1225
-0.121
-0.1385
-0.1185
-0.102
-0.0885
-0.0895
-0.117
-0.1235
-0.0985
-0.0945
-0.11
-0.106
-0.105
-0.1005
-0.102
-0.1175
-0.109
-0.101
-0.118
-0.1085
-0.091
-0.107
-0.11
-0.0945
-0.0985
-0.0805
-0.079
-0.0975
-0.0955
-0.1015
-0.084
-0.0905
-0.072
-0.0845
-0.103
-0.078
-0.088
-0.0765
-0.1
-0.083
-0.058
-0.0975
-0.1255
-0.1075
-0.068
-0.0955
-0.116
-0.095
-0.096
-0.097
-0.09
-0.086
-0.0795
-0.086
-0.0475
-0.021
-0.052
-0.061
-0.073
-0.0635
-0.0555
-0.0695
-0.07
-0.0715
-0.077
-0.087
-0.084
-0.0895
-0.1015
-0.0915
-0.0845
-0.073
-0.062
-0.056
-0.0325
-0.0575
-0.074
-0.0575
-0.0865
-0.0925
-0.064
-0.0785
-0.109
-0.0835
-0.0595
-0.0645
-0.071
-0.0845
-0.0695
-0.069
-0.08
-0.0565
-0.076
-0.078
-0.0735
-0.084
-0.0625
-0.0945
-0.106
-0.0945
-0.0985
-0.0895
-0.1075
-0.116
-0.1025
-0.1135
-0.1285
-0.127
-0.1265
-0.1315
-0.143
-0.1255
-0.1075
-0.112
-0.1185
-0.117
-0.099
-0.1215
-0.121
-0.095
-0.111
-0.1165
-0.107
-0.1035
-0.119
-0.127
-0.127
-0.121
-0.1205
-0.128
-0.1165
-0.124
-0.1325
-0.133
-0.126
-0.116
-0.1165
-0.1235
-0.135
-0.118
-0.108
-0.129
-0.136
-0.121
-0.1115
-0.1005
-0.1115
-0.133
-0.1365
-0.123
-0.1095
-0.116
-0.0975
-0.093
-0.133
-0.139
-0.1175
-0.1105
-0.106
-0.109
-0.1095
-0.114
-0.1095
-0.1155
-0.124
-0.1385
-0.139
-0.0915
-0.112
-0.122
-0.096
-0.11
-0.1165
-0.1225
-0.107
-0.0985
-0.1085
-0.1
-0.076
-0.04
-0.0175
0.0025
0.003
0.028
0.081
0.12
0.1485
0.1605
0.211
0.221
0.21
0.2215
0.231
0.24
0.193
0.1785
0.1765
0.142
0.114
0.0795
0.0715
0.072
0.0615
0.0495
0.058
0.0475
0.0115
-0.03
-0.0975
-0.1145
-0.1175
-0.1605
-0.143
-0.1285
-0.157
-0.1715
-0.1995
-0.201
-0.1975
-0.1985
-0.183
-0.1685
-0.155
-0.153
-0.148
-0.1475
-0.1675
-0.1645
-0.145
-0.142
-0.138
-0.1355
-0.1465
-0.149
-0.145
-0.1275
-0.1165
-0.1225
-0.1265
-0.139
-0.1295
-0.128
-0.117
-0.091
-0.103
-0.0905
-0.1205
-0.1305
-0.0745
-0.1095
-0.13
-0.13
-0.148
-0.142
-0.1275
-0.112
-0.119
-0.1145
-0.1255
-0.133
-0.1325
-0.141
-0.1295
-0.125
-0.1225
-0.119
-0.1245
-0.124
-0.105
-0.1005
-0.1045
-0.101
-0.108
-0.1215
-0.1245
-0.1045
-0.1055
-0.109
-0.106
-0.1195
-0.119
-0.118
-0.124
-0.122
-0.12
-0.1175
-0.1155
-0.1125
-0.1075
-0.1095
-0.0995
-0.1045
-0.106
-0.0965
-0.1
-0.1
-0.0925
-0.093
-0.099
-0.0965
-0.122
-0.135
-0.1205
-0.114
-0.113
-0.0985
-0.1055
-0.118
-0.0905
-0.0885
-0.1035
-0.093
-0.0975
-0.122
-0.1185
-0.096
-0.097
-0.101
-0.102
-0.0925
-0.07
-0.0935
-0.1075
-0.0895
-0.093
-0.093
-0.0925
-0.114
-0.1285
-0.132
-0.133
-0.115
-0.088
-0.0915
-0.1075
-0.106
-0.097
-0.0905
-0.104
-0.1075
-0.106
-0.109
-0.109
-0.1095
-0.0945
-0.098
-0.1215
-0.123
-0.1055
-0.102
-0.1155
-0.104
-0.0915
-0.09
-0.082
-0.091
-0.0945
-0.0925
-0.1035
-0.1025
-0.092
-0.1
-0.0995
-0.099
-0.108
-0.099
-0.0925
-0.0845
-0.0855
-0.093
-0.0975
-0.1115
-0.1095
-0.0915
-0.0825
-0.082
-0.0795
-0.078
-0.076
-0.0805
-0.0925
-0.0775
-0.086
-0.1145
-0.1085
-0.103
-0.0915
-0.0925
-0.1005
-0.1055
-0.103
-0.0885
-0.1135
-0.1105
-0.09
-0.094
-0.097
-0.107
-0.101
-0.096
-0.101
-0.0955
-0.0815
-0.081
-0.0775
-0.079
-0.103
-0.097
-0.0795
-0.083
-0.0835
-0.089
-0.089
-0.0815
-0.09
-0.0915
-0.091
-0.0985
-0.102
-0.0805
-0.084
-0.079
-0.0755
-0.1005
-0.078
-0.083
-0.097
-0.0925
-0.115
-0.1225
-0.0995
-0.0785
-0.0905
-0.0995
-0.097
-0.098
-0.106
-0.1165
-0.1115
-0.1045
-0.0975
-0.1225
-0.127
-0.1005
-0.1055
-0.106
-0.1125
-0.11
-0.0955
-0.1195
-0.122
-0.0965
-0.092
-0.108
-0.0925
-0.0695
-0.091
-0.102
-0.103
-0.117
-0.112
-0.099
-0.1045
-0.092
-0.0835
-0.0855
-0.094
-0.112
-0.0915
-0.0905
-0.1175
-0.1125
-0.1055
-0.117
-0.112
-0.119
-0.127
-0.1025
-0.095
-0.0945
-0.0845
-0.084
-0.0795
-0.0755
-0.1075
-0.145
-0.142
-0.1105
-0.09
-0.094
-0.0975
-0.0995
-0.098
-0.089
-0.105
-0.115
-0.1055
-0.089
-0.085
-0.1015
-0.1105
-0.1155
-0.12
-0.1185
-0.1025
-0.0955
-0.09
-0.1015
-0.114
-0.1085
-0.107
-0.099
-0.091
-0.098
-0.103
-0.1015
-0.1065
-0.094
-0.091
-0.106
-0.108
-0.102
-0.0965
-0.1085
-0.0995
-0.083
-0.0925
-0.096
-0.106
-0.102
-0.0875
-0.081
-0.0855
-0.0995
-0.107
-0.113
-0.112
-0.1165
-0.105
-0.097
-0.1035
-0.1055
-0.106
-0.0865
-0.0935
-0.1115
-0.1035
-0.1085
-0.106
-0.105
-0.099
-0.0925
-0.096
-0.096
-0.1
-0.094
-0.108
-0.1185
-0.105
-0.1095
-0.1345
-0.1335
-0.113
-0.1055
-0.1015
-0.1005
-0.108
-0.0985
-0.0945
-0.106
-0.0975
-0.101
-0.0875
-0.0755
-0.0905
-0.1135
-0.1245
-0.103
-0.1005
-0.116
-0.12
-0.107
-0.0945
-0.1035
-0.11
-0.1115
-0.122
-0.1235
-0.1045
-0.105
-0.1065
-0.0985
-0.1085
-0.1015
-0.101
-0.1095
-0.1155
-0.1165
-0.12
-0.1335
-0.127
-0.114
-0.1125
-0.134
-0.1435
-0.1285
-0.108
-0.107
-0.1175
-0.1125
-0.1115
-0.1025
-0.0925
-0.0995
-0.1
-0.096
-0.1015
-0.0975
-0.1015
-0.112
-0.1115
-0.113
-0.114
-0.105
-0.1025
-0.0985
-0.0975
-0.099
-0.108
-0.1325
-0.118
-0.1025
-0.113
-0.1195
-0.107
-0.1245
-0.1395
-0.131
-0.124
-0.097
-0.1035
-0.108
-0.124
-0.124
-0.0955
-0.0875
-0.1145
-0.132
-0.115
-0.1365
-0.13
-0.1045
-0.1005
-0.1035
-0.1035
-0.1065
-0.1115
-0.1075
-0.1025
-0.1035
-0.1005
-0.11
-0.142
-0.139
-0.13
-0.109
-0.0835
-0.1
-0.1225
-0.116
-0.121
-0.125
-0.1075
-0.1025
-0.1135
-0.121
-0.12
-0.1205
-0.1155
-0.1085
-0.09
-0.093
-0.1045
-0.0945
-0.1125
-0.1125
-0.102
-0.1175
-0.1015
-0.1015
-0.114
-0.0985
-0.1165
-0.125
-0.1115
-0.13
-0.1225
-0.098
-0.1115
-0.1165
-0.125
-0.138
-0.127
-0.13
-0.1115
-0.0965
-0.099
-0.1125
-0.126
-0.1155
-0.112
-0.1075
-0.107
-0.1145
-0.109
-0.0955
-0.119
-0.129
-0.1095
-0.1245
-0.1345
-0.1215
-0.122
-0.131
-0.1285
-0.119
-0.1085
-0.103
-0.11
-0.113
-0.108
-0.1105
-0.122
-0.1255
-0.1155
-0.113
-0.108
-0.108
-0.12
-0.115
-0.112
-0.133
-0.1325
-0.117
-0.127
-0.115
-0.105
-0.109
-0.1185
-0.121
-0.0985
-0.1025
-0.1115
-0.103
-0.0955
-0.111
-0.102
-0.089
-0.108
-0.099
-0.103
-0.106
-0.1125
-0.1165
-0.102
-0.1065
-0.099
-0.099
-0.1015
-0.108
-0.099
-0.1035
-0.1185
-0.1065
-0.1005
-0.085
-0.0965
-0.1
-0.1145
-0.127
-0.118
-0.12
-0.1245
-0.1355
-0.117
-0.1035
-0.0975
-0.086
-0.0935
-0.108
-0.1075
-0.1175
-0.127
-0.1245
-0.1225
-0.117
-0.108
-0.1045
-0.1155
-0.1085
-0.1135
-0.1185
-0.1
-0.092
-0.0845
-0.0825
-0.118
-0.127
-0.1055
-0.095
-0.085
-0.085
-0.1215
-0.1565
-0.141
-0.1335
-0.1185
-0.102
-0.064
-0.0965
-0.155
-0.114
-0.1005
-0.096
-0.111
-0.117
-0.099
-0.117
-0.125
-0.1215
-0.1195
-0.107
-0.102
-0.109
-0.1025
-0.097
-0.1125
-0.122
-0.1155
-0.1105
-0.1125
-0.113
-0.1015
-0.099
-0.102
-0.095
-0.1025
-0.1095
-0.104
-0.105
-0.1065
-0.109
-0.1115
-0.113
-0.118
-0.1265
-0.123
-0.105
-0.096
-0.0955
-0.106
-0.105
-0.109
-0.128
-0.122
-0.118
-0.109
-0.1015
-0.1075
-0.1055
-0.1015
-0.103
-0.1045
-0.103
-0.1015
-0.101
-0.104
-0.1035
-0.101
-0.094
-0.1035
-0.109
-0.1095
-0.1035
-0.095
-0.103
-0.0895
-0.0875
-0.0895
-0.096
-0.1005
-0.0965
-0.087
-0.071
-0.093
-0.1065
-0.1005
-0.1025
-0.106
-0.0995
-0.092
-0.089
-0.105
-0.109
-0.0945
-0.111
-0.1115
-0.1175
-0.105
-0.0835
-0.091
-0.1015
-0.101
-0.081
-0.081
-0.0745
-0.084
-0.099
-0.095
-0.0875
-0.083
-0.083
-0.082
-0.092
-0.0835
-0.078
-0.0665
-0.056
-0.0725
-0.0815
-0.0715
-0.062
-0.0455
-0.0215
-0.077
-0.107
-0.0695
-0.057
-0.058
-0.076
-0.087
-0.0835
-0.069
-0.0595
-0.056
-0.04
-0.0605
-0.093
-0.0725
-0.041
-0.0405
-0.0685
-0.0705
-0.0555
-0.0525
-0.0395
-0.0395
-0.0425
-0.047
-0.068
-0.0555
-0.0325
-0.0595
-0.081
-0.0815
-0.076
-0.0555
-0.056
-0.0625
-0.073
-0.085
-0.075
-0.079
-0.0795
-0.0855
-0.0885
-0.0755
-0.088
-0.1005
-0.094
-0.097
-0.111
-0.1015
-0.0935
-0.1
-0.1155
-0.137
-0.1325
-0.1035
-0.081
-0.106
-0.1355
-0.1255
-0.1125
-0.122
-0.1445
-0.138
-0.1185
-0.138
-0.1385
-0.1265
-0.1235
-0.1125
-0.1215
-0.1175
-0.106
-0.1065
-0.1175
-0.1215
-0.108
-0.1045
-0.1065
-0.1045
-0.1045
-0.108
-0.1185
-0.129
-0.123
-0.1225
-0.1185
-0.1125
-0.117
-0.1205
-0.122
-0.1125
-0.1205
-0.1265
-0.119
-0.118
-0.1275
-0.125
-0.117
-0.1075
-0.0955
-0.1055
-0.105
-0.0965
-0.111
-0.107
-0.093
-0.1065
-0.113
-0.1145
-0.126
-0.146
-0.151
-0.138
-0.1285
-0.1255
-0.126
-0.1185
-0.111
-0.1145
-0.1115
-0.11
-0.096
-0.0635
-0.0505
-0.0395
-0.0085
0.025
0.0455
0.07
0.099
0.134
0.167
0.197
0.2215
0.2545
0.2685
0.271
0.2915
0.2575
0.227
0.189
0.172
0.159
0.1225
0.1185
0.0985
0.1
0.11
0.112
0.08
0.051
-0.0145
-0.0795
-0.0725
-0.1065
-0.1315
-0.16
-0.167
-0.1465
-0.166
-0.188
-0.2135
-0.2195
-0.2
-0.186
-0.185
-0.1595
-0.146
-0.16
-0.167
-0.169
-0.1555
-0.137
-0.127
-0.14
-0.133
-0.124
-0.131
-0.1135
-0.1265
-0.132
-0.1205
-0.133
-0.1175
-0.1145
-0.119
-0.12
-0.1315
-0.1305
-0.1225
-0.111
-0.1095
-0.1045
-0.107
-0.109
-0.108
-0.114
-0.101
-0.096
-0.105
-0.1125
-0.1195
-0.115
-0.1165
-0.1105
-0.1155
-0.117
-0.112
-0.113
-0.106
-0.11
-0.0965
-0.1005
-0.1035
-0.097
-0.092
-0.106
-0.1295
-0.1215
-0.118
-0.112
-0.101
-0.0885
-0.084
-0.093
-0.122
-0.136
-0.131
-0.1245
-0.1195
-0.114
-0.102
-0.1055
-0.106
-0.0995
-0.0995
-0.1095
-0.099
-0.085
-0.097
-0.105
-0.1135
-0.1065
-0.0865
-0.091
-0.102
-0.1015
-0.102
-0.097
-0.0945
-0.0935
-0.0855
-0.1065
-0.123
-0.1155
-0.106
-0.0935
-0.116
-0.123
-0.093
-0.1015
-0.1075
-0.1015
-0.1045
-0.0915
-0.095
-0.1045
-0.112
-0.1095
-0.095
-0.1
-0.0935
-0.093
-0.0955
-0.092
-0.11
-0.1085
-0.0945
-0.0995
-0.102
-0.0965
-0.092
-0.077
-0.0865
-0.114
-0.1165
-0.116
-0.1165
-0.123
-0.122
-0.106
-0.0985
-0.0955
-0.1
-0.108
-0.1115
-0.11
-0.105
-0.1045
-0.095
-0.09
-0.078
-0.0805
-0.1155
-0.117
-0.101
-0.0905
-0.1005
-0.1065
-0.1035
-0.101
-0.0905
-0.099
-0.0905
-0.0865
-0.107
-0.105
-0.1005
-0.1015
-0.097
-0.106
-0.1095
-0.1065
-0.106
-0.0935
-0.095
-0.095
-0.093
-0.1045
-0.1065
-0.099
-0.094
-0.0915
-0.088
-0.104
-0.11
-0.102
-0.092
-0.084
-0.0895
-0.0895
-0.093
-0.0975
-0.103
-0.0875
-0.0845
-0.0955
-0.102
-0.1125
-0.0945
-0.0995
-0.113
-0.0935
-0.0855
-0.093
-0.0895
-0.0825
-0.0855
-0.088
-0.088
-0.0955
-0.0955
-0.0935
-0.091
-0.0965
-0.092
-0.0765
-0.0845
-0.085
-0.084
-0.088
-0.087
-0.0975
-0.096
-0.0795
-0.101
-0.109
-0.0895
-0.0915
-0.0845
-0.0885
-0.095
-0.073
-0.0745
-0.0905
-0.1
-0.1095
-0.1075
-0.099
-0.0855
-0.084
-0.1005
-0.107
-0.0925
-0.094
-0.093
-0.096
-0.097
-0.065
-0.083
-0.109
-0.103
-0.108
-0.0995
-0.083
-0.08
-0.0965
-0.112
-0.1105
-0.1095
-0.1025
-0.0915
-0.0935
-0.0945
-0.106
-0.1055
-0.0925
-0.099
-0.1025
-0.101
-0.087
-0.0875
-0.0925
-0.087
-0.1025
-0.1055
-0.1
-0.091
-0.082
-0.092
-0.1185
-0.125
-0.0995
-0.091
-0.0985
-0.0885
-0.0945
-0.1085
-0.102
-0.098
-0.111
-0.119
-0.0955
-0.0875
-0.099
-0.103
-0.1035
-0.108
-0.1065
-0.099
-0.0915
-0.0995
-0.1095
-0.088
-0.074
-0.0795
-0.087
-0.088
-0.086
-0.0985
-0.104
-0.0945
-0.1
-0.106
-0.1
-0.101
-0.1005
-0.1065
-0.1
-0.096
-0.1285
-0.125
-0.106
-0.113
-0.094
-0.096
-0.104
-0.09
-0.104
-0.0895
-0.074
-0.1095
-0.116
-0.0885
-0.0835
-0.092
-0.0985
-0.1
-0.099
-0.099
-0.1005
-0.09
-0.0865
-0.096
-0.1035
-0.123
-0.1235
-0.1005
-0.093
-0.0875
-0.0915
-0.094
-0.087
-0.099
-0.097
-0.0825
-0.0825
-0.091
-0.1095
-0.122
-0.123
-0.112
-0.105
-0.104
-0.0975
-0.1035
-0.107
-0.0875
-0.0955
-0.1035
-0.092
-0.079
-0.073
-0.0865
-0.0975
-0.11
-0.115
-0.108
-0.1095
-0.111
-0.112
-0.1235
-0.128
-0.115
-0.1015
-0.108
-0.119
-0.1085
-0.1035
-0.1185
-0.1215
-0.1105
-0.106
-0.096
-0.087
-0.109
-0.125
-0.109
-0.097
-0.0935
-0.092
-0.1165
-0.13
-0.1175
-0.116
-0.117
-0.111
-0.1115
-0.1145
-0.1085
-0.1005
-0.106
-0.113
-0.086
-0.1
-0.1225
-0.1175
-0.12
-0.109
-0.115
-0.1155
-0.122
-0.1225
-0.105
-0.1035
-0.113
-0.1125
-0.1075
-0.1195
-0.1155
-0.1105
-0.1165
-0.121
-0.126
-0.114
-0.107
-0.115
-0.119
-0.1215
-0.121
-0.117
-0.1145
-0.1125
-0.115
-0.119
-0.133
-0.1435
-0.109
-0.0895
-0.098
-0.11
-0.1265
-0.128
-0.1415
-0.1265
-0.1015
-0.107
-0.1185
-0.1325
-0.1385
-0.109
-0.0905
-0.117
-0.1155
-0.1215
-0.1275
-0.1145
-0.1225
-0.1175
-0.1105
-0.107
-0.104
-0.119
-0.1235
-0.116
-0.103
-0.0995
-0.1205
-0.129
-0.1275
-0.1225
-0.122
-0.126
-0.119
-0.119
-0.1225
-0.125
-0.123
-0.113
-0.108
-0.1135
-0.113
-0.106
-0.1
-0.1055
-0.117
-0.1075
-0.112
-0.111
-0.099
-0.1105
-0.116
-0.1155
-0.1085
-0.111
-0.11
-0.113
-0.1245
-0.1155
-0.1065
-0.1125
-0.11
-0.1065
-0.114
-0.1155
-0.132
-0.136
-0.13
-0.1195
-0.1185
-0.1195
-0.101
-0.106
-0.109
-0.107
-0.1155
-0.121
-0.1105
-0.108
-0.1185
-0.1185
-0.126
-0.1215
-0.1175
-0.117
-0.11
-0.115
-0.1015
-0.1105
-0.1275
-0.1225
-0.1155
-0.102
-0.093
-0.087
-0.0945
-0.1015
-0.1035
-0.1215
-0.141
-0.133
-0.1355
-0.125
-0.1145
-0.1275
-0.1335
-0.145
-0.124
-0.1125
-0.1105
-0.1055
-0.119
-0.1135
-0.121
-0.1205
-0.107
-0.116
-0.116
-0.116
-0.1105
-0.1185
-0.125
-0.111
-0.1095
-0.1065
-0.117
-0.1155
-0.1035
-0.1095
-0.1045
-0.1135
-0.114
-0.1065
-0.1105
-0.1
-0.1125
-0.1295
-0.1255
-0.1215
-0.119
-0.1205
-0.1165
-0.114
-0.1065
-0.1235
-0.1435
-0.1355
-0.111
-0.0895
-0.104
-0.114
-0.123
-0.1255
-0.1255
-0.119
-0.113
-0.109
-0.1005
-0.111
-0.1305
-0.144
-0.1255
-0.103
-0.105
-0.109
-0.1065
-0.119
-0.129
-0.126
-0.1295
-0.1275
-0.1215
-0.1225
-0.1215
-0.119
-0.121
-0.126
-0.1265
-0.121
-0.11
-0.104
-0.1065
-0.1135
-0.1245
-0.1145
-0.114
-0.1235
-0.125
-0.1285
-0.126
-0.1185
-0.1105
-0.119
-0.1115
-0.1135
-0.126
-0.1075
-0.12
-0.1155
-0.089
-0.1025
-0.113
-0.1315
-0.1425
-0.127
-0.1055
-0.089
-0.096
-0.1105
-0.12
-0.13
-0.13
-0.12
-0.1165
-0.13
-0.1345
-0.1145
-0.0955
-0.0915
-0.12
-0.1345
-0.118
-0.119
-0.1175
-0.1125
-0.1075
-0.104
-0.12
-0.1245
-0.1285
-0.131
-0.124
-0.1255
-0.1175
-0.115
-0.1075
-0.1105
-0.1195
-0.1105
-0.1085
-0.109
-0.1095
-0.115
-0.1215
-0.1095
-0.0955
-0.098
-0.106
-0.106
-0.095
-0.106
-0.104
-0.098
-0.113
-0.115
-0.103
-0.087
-0.09
-0.093
-0.095
-0.098
-0.0915
-0.086
-0.079
-0.081
-0.085
-0.086
-0.0895
-0.071
-0.0605
-0.079
-0.076
-0.0695
-0.0975
-0.088
-0.0595
-0.062
-0.064
-0.0585
-0.046
-0.0585
-0.077
-0.088
-0.075
-0.0755
-0.0925
-0.08
-0.077
-0.08
-0.081
-0.079
-0.076
-0.0715
-0.0735
-0.0675
-0.0435
-0.045
-0.0595
-0.0595
-0.0505
-0.051
-0.0585
-0.0485
-0.042
-0.074
-0.0855
-0.0755
-0.074
-0.065
-0.0835
-0.0925
-0.0745
-0.075
-0.077
-0.0805
-0.0875
-0.097
-0.094
-0.086
-0.0985
-0.1085
-0.1035
-0.1055
-0.116
-0.12
-0.121
-0.1205
-0.139
-0.1455
-0.133
-0.135
-0.132
-0.123
-0.1085
-0.109
-0.1155
-0.1135
-0.12
-0.132
-0.134
-0.127
-0.117
-0.1255
-0.1485
-0.143
-0.138
-0.1325
-0.1365
-0.144
-0.1355
-0.135
-0.132
-0.1415
-0.1425
-0.141
-0.1495
-0.1395
-0.1295
-0.1345
-0.127
-0.116
-0.1205
-0.1285
-0.1315
-0.127
-0.128
-0.1245
-0.1245
-0.1285
-0.1235
-0.1285
-0.1305
-0.134
-0.1415
-0.1385
-0.1255
-0.112
-0.109
-0.119
-0.122
-0.1215
-0.1245
-0.1215
-0.1325
-0.127
-0.1285
-0.1445
-0.1475
-0.1485
-0.144
-0.1455
-0.148
-0.146
-0.1485
-0.1405
-0.129
-0.119
-0.0965
-0.087
-0.0645
-0.042
-0.028
0.014
0.0365
0.052
0.0895
0.128
0.161
0.1925
0.2285
0.2625
0.284
0.296
0.3145
0.3
0.2645
0.2415
0.21
0.182
0.1565
0.1435
0.139
0.132
0.115
0.093
0.0695
0.0095
-0.034
-0.052
-0.0815
-0.1105
-0.137
-0.15
-0.159
-0.182
-0.212
-0.217
-0.2275
-0.2415
-0.226
-0.2075
-0.204
-0.2035
-0.197
-0.1885
-0.1705
-0.168
-0.1605
-0.157
-0.1615
-0.163
-0.1655
-0.1525
-0.145
-0.149
-0.1475
-0.136
-0.1395
-0.1415
-0.1335
-0.137
-0.138
-0.1395
-0.142
-0.145
-0.141
-0.1385
-0.144
-0.1385
-0.1345
-0.121
-0.109
-0.116
-0.128
-0.1335
-0.1465
-0.146
-0.129
-0.133
-0.1235
-0.1335
-0.1445
-0.1345
-0.1315
-0.1195
-0.116
-0.1195
-0.144
-0.1575
-0.147
-0.139
-0.1235
-0.1375
-0.139
-0.1175
-0.1265
-0.129
-0.119
-0.119
-0.1345
-0.1395
-0.141
-0.1495
-0.149
-0.1435
-0.138
-0.1285
-0.119
-0.131
-0.1365
-0.1355
-0.1475
-0.148
-0.1325
-0.1235
-0.1205
-0.1115
-0.1185
-0.1295
-0.124
-0.1255
-0.132
-0.123
-0.1195
-0.13
-0.1345
-0.152
-0.1585
-0.14
-0.1365
-0.135
-0.129
-0.1275
-0.132
-0.134
-0.136
-0.142
-0.136
-0.122
-0.124
-0.1235
-0.1205
-0.134
-0.14
-0.1475
-0.142
-0.1295
-0.1375
-0.135
-0.1315
-0.1335
-0.125
-0.117
-0.1135
-0.1185
-0.118
-0.113
-0.112
-0.1135
-0.1325
-0.1345
-0.122
-0.1255
-0.1225
-0.117
-0.121
-0.1295
-0.14
-0.141
-0.124
-0.1125
-0.113
-0.113
-0.127
-0.136
-0.138
-0.138
-0.126
-0.12
-0.122
-0.121
-0.119
-0.12
-0.131
-0.132
-0.1205
-0.1165
-0.1195
-0.114
-0.102
-0.1065
-0.106
-0.1015
-0.1075
-0.1055
-0.0985
-0.095
-0.0935
-0.115
-0.1365
-0.1275
-0.1225
-0.129
-0.126
-0.111
-0.094
-0.11
-0.136
-0.1265
-0.116
-0.1175
-0.1165
-0.1105
-0.1085
-0.109
-0.1095
-0.1105
-0.117
-0.116
-0.105
-0.1065
-0.1145
-0.1215
-0.1155
-0.1085
-0.1055
-0.107
-0.119
-0.119
-0.1125
-0.106
-0.0975
-0.095
-0.0955
-0.1065
-0.119
-0.116
-0.1155
-0.1325
-0.1245
-0.112
-0.12
-0.1095
-0.1315
-0.131
-0.102
-0.109
-0.117
-0.115
-0.108
-0.116
-0.1035
-0.1075
-0.1135
-0.102
-0.114
-0.1115
-0.1
-0.091
-0.097
-0.1315
-0.15
-0.134
-0.115
-0.115
-0.1235
-0.114
-0.1105
-0.1205
-0.135
-0.1285
-0.1045
-0.1095
-0.119
-0.121
-0.136
-0.145
-0.1305
-0.117
-0.1145
-0.119
-0.1295
-0.127
-0.1275
-0.1275
-0.1235
-0.138
-0.136
-0.112
-0.1075
-0.1175
-0.115
-0.1115
-0.112
-0.116
-0.132
-0.1415
-0.129
-0.13
-0.1505
-0.147
-0.1435
-0.142
-0.139
-0.133
-0.116
-0.114
-0.11
-0.111
-0.116
-0.121
-0.138
-0.1455
-0.1375
-0.13
-0.1285
-0.1255
-0.132
-0.134
-0.1195
-0.13
-0.134
-0.1255
-0.1215
-0.119
-0.13
-0.122
-0.124
-0.132
-0.1395
-0.1335
-0.125
-0.151
-0.1385
-0.1215
-0.13
-0.1275
-0.1275
-0.1265
-0.1255
-0.1225
-0.1115
-0.117
-0.127
-0.123
-0.131
-0.141
-0.1365
-0.1315
-0.1305
-0.1245
-0.134
-0.133
-0.124
-0.128
-0.1375
-0.145
-0.1295
-0.1305
-0.1305
-0.1275
-0.132
-0.1265
-0.131
-0.138
-0.1355
-0.132
-0.12
-0.127
-0.1495
-0.13
-0.125
-0.1315
-0.127
-0.132
-0.1335
-0.1365
-0.1285
-0.121
-0.1165
-0.127
-0.143
-0.1415
-0.137
-0.13
-0.1245
-0.119
-0.128
-0.1345
-0.126
-0.132
-0.135
-0.132
-0.1255
-0.1225
-0.133
-0.142
-0.1375
-0.128
-0.122
-0.127
-0.1355
-0.138
-0.155
-0.1485
-0.132
-0.1365
-0.136
-0.127
-0.1385
-0.1495
-0.1365
-0.1325
-0.127
-0.1225
-0.124
-0.1355
-0.143
-0.1385
-0.1325
-0.1265
-0.1305
-0.1465
-0.1575
-0.1535
-0.149
-0.1525
-0.15
-0.1425
-0.1465
-0.1435
-0.1325
-0.127
-0.1295
-0.148
-0.162
-0.1605
-0.145
-0.14
-0.1405
-0.132
-0.1295
-0.128
-0.134
-0.1445
-0.138
-0.134
-0.1345
-0.1375
-0.1625
-0.1705
-0.154
-0.145
-0.136
-0.128
-0.133
-0.1465
-0.1405
-0.136
-0.148
-0.1415
-0.1555
-0.17
-0.151
-0.1515
-0.15
-0.1455
-0.1505
-0.1555
-0.1575
-0.1615
-0.1675
-0.1605
-0.1555
-0.158
-0.1575
-0.153
-0.153
-0.1565
-0.1555
-0.1585
-0.155
-0.1465
-0.151
-0.156
-0.146
-0.142
-0.142
-0.143
-0.1485
-0.1385
-0.13
-0.143
-0.174
-0.173
-0.149
-0.1515
-0.1555
-0.152
-0.1405
-0.141
-0.142
-0.1325
-0.1425
-0.145
-0.1525
-0.1525
-0.1485
-0.155
-0.152
-0.1585
-0.154
-0.1575
-0.163
-0.155
-0.148
-0.1465
-0.15
-0.144
-0.1395
-0.144
-0.146
-0.15
-0.1475
-0.15
-0.155
-0.1455
-0.1515
-0.157
-0.1555
-0.151
-0.1435
-0.1495
-0.1545
-0.1605
-0.166
-0.1505
-0.1375
-0.1305
-0.1375
-0.1535
-0.155
-0.153
-0.1375
-0.1285
-0.147
-0.167
-0.157
-0.1395
-0.145
-0.156
-0.1685
-0.16
-0.1495
-0.144
-0.1445
-0.148
-0.1385
-0.1375
-0.131
-0.146
-0.1615
-0.1555
-0.1505
-0.142
-0.1495
-0.16
-0.1635
-0.1585
-0.154
-0.1485
-0.1485
-0.1495
-0.1495
-0.1795
-0.1855
-0.1565
-0.135
-0.129
-0.142
-0.164
-0.1595
-0.141
-0.1425
-0.1475
-0.14
-0.138
-0.136
-0.1325
-0.1375
-0.139
-0.143
-0.147
-0.14
-0.1245
-0.1245
-0.139
-0.148
-0.14
-0.131
-0.133
-0.1355
-0.131
-0.146
-0.185
-0.1835
-0.162
-0.1525
-0.149
-0.1325
-0.1335
-0.153
-0.1505
-0.1575
-0.1565
-0.147
-0.1545
-0.151
-0.149
-0.1465
-0.141
-0.1515
-0.1445
-0.148
-0.158
-0.1525
-0.1505
-0.1535
-0.1385
-0.1295
-0.134
-0.1245
-0.157
-0.176
-0.15
-0.1575
-0.178
-0.1745
-0.1585
-0.1495
-0.1515
-0.1525
-0.1565
-0.1625
-0.155
-0.149
-0.1555
-0.1595
-0.16
-0.155
-0.1585
-0.1525
-0.141
-0.143
-0.1355
-0.137
-0.1395
-0.1415
-0.1455
-0.1425
-0.14
-0.14
-0.1495
-0.169
-0.1745
-0.1545
-0.1405
-0.143
-0.146
-0.1425
-0.1565
-0.167
-0.154
-0.146
-0.143
-0.15
-0.1565
-0.156
-0.158
-0.1625
-0.161
-0.149
-0.147
-0.151
-0.151
-0.1475
-0.1525
-0.1605
-0.159
-0.154
-0.154
-0.1455
-0.132
-0.1395
-0.1595
-0.1635
-0.1745
-0.169
-0.1425
-0.132
-0.13
-0.1445
-0.1585
-0.1595
-0.1395
-0.1275
-0.131
-0.1295
-0.1385
-0.1395
-0.131
-0.126
-0.128
-0.14
-0.142
-0.1355
-0.136
-0.1215
-0.111
-0.1215
-0.1235
-0.124
-0.1155
-0.1115
-0.1115
-0.1085
-0.1135
-0.1015
-0.1195
-0.119
-0.1045
-0.1225
-0.118
-0.1135
-0.102
-0.102
-0.1075
-0.102
-0.1025
-0.1045
-0.1145
-0.114
-0.1105
-0.106
-0.095
-0.093
-0.096
-0.1025
-0.1065
-0.095
-0.0895
-0.093
-0.092
-0.0845
-0.0825
-0.0815
-0.077
-0.0755
-0.0675
-0.0795
-0.079
-0.07
-0.0805
-0.0825
-0.0815
-0.09
-0.0855
-0.083
-0.1025
-0.102
-0.109
-0.112
-0.093
-0.105
-0.116
-0.107
-0.1075
-0.113
-0.12
-0.1285
-0.134
-0.137
-0.1385
-0.1445
-0.141
-0.137
-0.161
-0.176
-0.164
-0.159
-0.157
-0.1525
-0.1525
-0.1545
-0.156
-0.159
-0.1575
-0.1565
-0.158
-0.152
-0.159
-0.1675
-0.1625
-0.157
-0.144
-0.1675
-0.1915
-0.172
-0.16
-0.15
-0.149
-0.1515
-0.1475
-0.1495
-0.169
-0.187
-0.178
-0.157
-0.1355
-0.1475
-0.167
-0.1625
-0.1625
-0.162
-0.169
-0.1635
-0.165
-0.1755
-0.151
-0.137
-0.1405
-0.1475
-0.153
-0.162
-0.167
-0.1635
-0.163
-0.151
-0.1485
-0.147
-0.145
-0.151
-0.15
-0.1545
-0.163
-0.166
-0.1615
-0.164
-0.1655
-0.1665
-0.172
-0.1635
-0.1565
-0.147
-0.157
-0.1525
-0.1175
-0.103
-0.0815
-0.057
-0.0265
-0.016
-0.002
0.0415
0.0665
0.1125
0.1495
0.1795
0.2365
0.2785
0.2995
0.293
0.3055
0.3125
0.2775
0.237
0.202
0.184
0.155
0.1425
0.1295
0.0875
0.081
0.0895
0.0765
0.042
-0.008
-0.053
-0.0905
-0.125
-0.146
-0.1635
-0.1815
-0.2045
-0.2345
-0.2425
-0.2445
-0.237
-0.23
-0.236
-0.2225
-0.21
-0.2
-0.1915
-0.2075
-0.228
-0.221
-0.194
-0.1835
-0.188
-0.177
-0.175
-0.1845
-0.1775
-0.181
-0.1755
-0.1685
-0.1615
-0.155
-0.174
-0.1835
-0.1745
-0.161
-0.1565
-0.15
-0.1405
-0.155
-0.17
-0.169
-0.1695
-0.156
-0.146
-0.1475
-0.1535
-0.1755
-0.175
-0.1565
-0.159
-0.158
-0.1485
-0.1555
-0.146
-0.147
-0.167
-0.1625
-0.147
-0.1395
-0.149
-0.154
-0.1615
-0.1585
-0.1635
-0.1775
-0.1625
-0.157
-0.153
-0.153
-0.142
-0.14
-0.166
-0.1625
-0.1585
-0.1625
-0.1605
-0.1605
-0.159
-0.1595
-0.1555
-0.1505
-0.1535
-0.1615
-0.164
-0.1595
-0.147
-0.1535
-0.1665
-0.162
-0.16
-0.151
-0.1555
-0.157
-0.15
-0.16
-0.155
-0.1505
-0.152
-0.1585
-0.1595
-0.149
-0.1435
-0.141
-0.1485
-0.1545
-0.1505
-0.1475
-0.1495
-0.1545
-0.1525
-0.1435
-0.14
-0.1455
-0.147
-0.147
-0.1525
-0.152
-0.1525
-0.1555
-0.1645
-0.1585
-0.142
-0.1325
-0.117
-0.1175
-0.1665
-0.1915
-0.161
-0.1595
-0.1485
-0.1395
-0.15
-0.1485
-0.1465
-0.147
-0.152
-0.1455
-0.141
-0.151
-0.162
-0.1605
-0.154
-0.144
-0.1415
-0.1445
-0.142
-0.142
-0.1455
-0.1535
-0.1475
-0.132
-0.133
-0.136
-0.1415
-0.151
-0.147
-0.145
-0.1465
-0.138
-0.1365
-0.142
-0.141
-0.14
-0.1385
-0.139
-0.142
-0.1365
-0.136
-0.149
-0.1385
-0.1295
-0.1415
-0.1455
-0.146
-0.1375
-0.13
-0.132
-0.1495
-0.156
-0.141
-0.136
-0.136
-0.131
-0.1265
-0.1485
-0.1565
-0.142
-0.1255
-0.1105
-0.1125
-0.1095
-0.1175
-0.1275
-0.1355
-0.1185
-0.1185
-0.1545
-0.143
-0.1355
-0.141
-0.1405
-0.1405
-0.1325
-0.129
-0.1265
-0.1235
-0.13
-0.1425
-0.137
-0.1285
-0.132
-0.13
-0.1295
-0.136
-0.134
-0.127
-0.132
-0.1365
-0.142
-0.1475
-0.1385
-0.128
-0.121
-0.1275
-0.133
-0.1245
-0.1155
-0.1085
-0.1075
-0.1145
-0.146
-0.1595
-0.1335
-0.132
-0.131
-0.1245
-0.124
-0.1145
-0.118
-0.1315
-0.137
-0.1335
-0.141
-0.1415
-0.1365
-0.138
-0.133
-0.1365
-0.1415
-0.138
-0.138
-0.1345
-0.1275
-0.1345
-0.1345
-0.141
-0.1495
-0.1315
-0.136
-0.161
-0.156
-0.1355
-0.1385
-0.147
-0.1395
-0.1365
-0.1355
-0.127
-0.1275
-0.128
-0.131
-0.1345
-0.1325
-0.132
-0.132
-0.1355
-0.1385
-0.1335
-0.131
-0.1375
-0.136
-0.134
-0.138
-0.1365
-0.1345
-0.126
-0.1255
-0.1295
-0.132
-0.135
-0.1315
-0.126
-0.12
-0.1185
-0.12
-0.1355
-0.1365
-0.1275
-0.1205
-0.111
-0.144
-0.1605
-0.14
-0.134
-0.1375
-0.14
-0.1375
-0.139
-0.14
-0.1385
-0.1305
-0.129
-0.14
-0.144
-0.141
-0.1405
-0.1385
-0.1345
-0.141
-0.143
-0.1365
-0.144
-0.1435
-0.141
-0.1445
-0.1385
-0.1405
-0.14
-0.1425
-0.144
-0.1385
-0.132
-0.135
-0.1345
-0.1245
-0.1275
-0.136
-0.1535
-0.152
-0.15
-0.1435
-0.1235
-0.158
-0.1765
-0.1475
-0.1335
-0.14
-0.147
-0.153
-0.1585
-0.1425
-0.1355
-0.1455
-0.156
-0.156
-0.147
-0.154
-0.1605
-0.157
-0.159
-0.1525
-0.142
-0.143
-0.143
-0.1495
-0.1445
-0.1445
-0.149
-0.142
-0.1435
-0.1395
-0.139
-0.1515
-0.149
-0.1515
-0.1615
-0.1515
-0.1425
-0.151
-0.156
-0.1505
-0.1555
-0.149
-0.1415
-0.1435
-0.137
-0.1385
-0.1425
-0.1425
-0.147
-0.1555
-0.1485
-0.1455
-0.151
-0.148
-0.149
-0.1465
-0.137
-0.1385
-0.15
-0.16
-0.1615
-0.1445
-0.149
-0.1555
-0.1425
-0.145
-0.1405
-0.137
-0.148
-0.1465
-0.141
-0.1435
-0.1455
-0.143
-0.142
-0.146
-0.1445
-0.149
-0.16
-0.1705
-0.183
-0.1715
-0.1435
-0.129
-0.1305
-0.1415
-0.144
-0.139
-0.13
-0.1385
-0.151
-0.1405
-0.1455
-0.1605
-0.146
-0.1485
-0.1645
-0.1515
-0.147
-0.1515
-0.1595
-0.1605
-0.152
-0.153
-0.1515
-0.146
-0.1495
-0.15
-0.1415
-0.144
-0.1445
-0.1515
-0.1745
-0.1615
-0.147
-0.156
-0.1555
-0.149
-0.1475
-0.1665
-0.182
-0.1705
-0.145
-0.128
-0.1425
-0.1545
-0.1575
-0.168
-0.17
-0.155
-0.1305
-0.165
-0.202
-0.1725
-0.1585
-0.155
-0.1445
-0.139
-0.1385
-0.154
-0.155
-0.147
-0.1505
-0.1595
-0.159
-0.1455
-0.1395
-0.1255
-0.128
-0.149
-0.1605
-0.163
-0.1585
-0.16
-0.157
-0.1465
-0.1435
-0.1495
-0.151
-0.1565
-0.1625
-0.1555
-0.1535
-0.16
-0.1575
-0.15
-0.1505
-0.157
-0.153
-0.148
-0.1515
-0.1675
-0.1785
-0.1695
-0.1605
-0.1565
-0.158
-0.156
-0.151
-0.151
-0.159
-0.159
-0.155
-0.1505
-0.143
-0.145
-0.15
-0.153
-0.144
-0.1375
-0.137
-0.1395
-0.1425
-0.1465
-0.156
-0.1515
-0.1505
-0.1465
-0.148
-0.1545
-0.155
-0.153
-0.148
-0.1515
-0.146
-0.145
-0.148
-0.149
-0.1445
-0.1315
-0.1505
-0.162
-0.146
-0.151
-0.15
-0.154
-0.1725
-0.174
-0.1515
-0.134
-0.14
-0.1405
-0.141
-0.146
-0.1445
-0.1425
-0.1395
-0.1385
-0.1365
-0.1445
-0.1565
-0.1535
-0.147
-0.147
-0.142
-0.1495
-0.1695
-0.1625
-0.154
-0.152
-0.1415
-0.141
-0.1475
-0.1425
-0.139
-0.1395
-0.1385
-0.1475
-0.1465
-0.1335
-0.1415
-0.1575
-0.1475
-0.1415
-0.1315
-0.1225
-0.1415
-0.143
-0.137
-0.1405
-0.1485
-0.159
-0.1595
-0.161
-0.1645
-0.153
-0.1435
-0.141
-0.14
-0.1395
-0.137
-0.1525
-0.152
-0.147
-0.154
-0.1545
-0.1505
-0.1355
-0.143
-0.1515
-0.1515
-0.1545
-0.152
-0.1505
-0.1535
-0.152
-0.145
-0.145
-0.144
-0.1465
-0.1395
-0.132
-0.13
-0.1405
-0.1675
-0.169
-0.154
-0.1475
-0.142
-0.1315
-0.1365
-0.1505
-0.1635
-0.1645
-0.1465
-0.1395
-0.145
-0.1435
-0.1405
-0.1355
-0.1305
-0.141
-0.1495
-0.1525
-0.161
-0.148
-0.128
-0.1245
-0.1315
-0.14
-0.1395
-0.133
-0.134
-0.138
-0.1385
-0.13
-0.123
-0.1195
-0.1135
-0.1105
-0.111
-0.117
-0.125
-0.141
-0.1275
-0.102
-0.133
-0.143
-0.1065
-0.1055
-0.097
-0.0845
-0.115
-0.1225
-0.115
-0.1085
-0.1045
-0.1045
-0.093
-0.0945
-0.0945
-0.0905
-0.098
-0.102
-0.106
-0.112
-0.114
-0.1145
-0.107
-0.1035
-0.1065
-0.098
-0.093
-0.0985
-0.096
-0.091
-0.086
-0.082
-0.0825
-0.086
-0.079
-0.076
-0.0735
-0.0665
-0.075
-0.0795
-0.085
-0.093
-0.0805
-0.0665
-0.0715
-0.0785
-0.094
-0.098
-0.086
-0.0845
-0.082
-0.0895
-0.092
-0.101
-0.1045
-0.103
-0.112
-0.1195
-0.1255
-0.1215
-0.1305
-0.145
-0.145
-0.14
-0.137
-0.14
-0.1485
-0.151
-0.159
-0.1675
-0.159
-0.148
-0.1505
-0.1635
-0.1755
-0.1775
-0.164
-0.158
-0.1585
-0.1595
-0.168
-0.167
-0.1615
-0.16
-0.1605
-0.1535
-0.144
-0.146
-0.153
-0.1645
-0.163
-0.1525
-0.1525
-0.157
-0.159
-0.155
-0.158
-0.165
-0.168
-0.165
-0.154
-0.1555
-0.162
-0.144
-0.1365
-0.1615
-0.169
-0.1715
-0.161
-0.15
-0.167
-0.151
-0.1325
-0.1225
-0.134
-0.1585
-0.1435
-0.133
-0.1475
-0.1575
-0.15
-0.1525
-0.155
-0.1515
-0.153
-0.1555
-0.1645
-0.1615
-0.159
-0.165
-0.1665
-0.1705
-0.158
-0.148
-0.1455
-0.1375
-0.1315
-0.1035
-0.083
-0.0625
-0.0355
-0.02
0.0035
0.0445
0.0915
0.122
0.1695
0.205
0.2215
0.2685
0.304
0.325
0.349
0.35
0.3255
0.301
0.2805
0.245
0.1925
0.157
0.1495
0.139
0.135
0.1355
0.1125
0.0845
0.0405
-0.012
-0.054
-0.1
-0.129
-0.144
-0.164
-0.1805
-0.211
-0.233
-0.2435
-0.2575
-0.257
-0.248
-0.2295
-0.221
-0.2105
-0.1975
-0.196
-0.1945
-0.1845
-0.1825
-0.1915
-0.18
-0.1615
-0.1565
-0.158
-0.165
-0.169
-0.165
-0.167
-0.164
-0.159
-0.1645
-0.1625
-0.1635
-0.165
-0.1605
-0.159
-0.156
-0.172
-0.1785
-0.1615
-0.1595
-0.1545
-0.148
-0.152
-0.146
-0.143
-0.156
-0.1515
-0.148
-0.1575
-0.162
-0.148
-0.135
-0.1365
-0.144
-0.177
-0.165
-0.1445
-0.1565
-0.1545
-0.1545
-0.146
-0.148
-0.1545
-0.1495
-0.1475
-0.1485
-0.1505
-0.152
-0.158
-0.1555
-0.1585
-0.1555
-0.151
-0.1555
-0.1455
-0.145
-0.149
-0.149
-0.144
-0.14
-0.1395
-0.139
-0.1455
-0.1525
-0.147
-0.1395
-0.147
-0.142
-0.1305
-0.1235
-0.1305
-0.1625
-0.1685
-0.1495
-0.1435
-0.138
-0.1425
-0.144
-0.1455
-0.161
-0.1605
-0.147
-0.1405
-0.15
-0.1485
-0.139
-0.148
-0.156
-0.1485
-0.144
-0.1435
-0.139
-0.144
-0.1445
-0.1425
-0.1385
-0.137
-0.1405
-0.1345
-0.136
-0.1375
-0.1285
-0.1235
-0.123
-0.127
-0.157
-0.157
-0.139
-0.141
-0.1365
-0.144
-0.148
-0.1375
-0.121
-0.124
-0.136
-0.133
-0.126
-0.142
-0.1615
-0.1515
-0.14
-0.1345
-0.129
-0.13
-0.133
-0.1375
-0.1405
-0.1365
-0.1365
-0.1335
-0.136
-0.144
-0.132
-0.1235
-0.1245
-0.1295
-0.1305
-0.1275
-0.1305
-0.1315
-0.1335
-0.1335
-0.131
-0.127
-0.1275
-0.1255
-0.1225
-0.126
-0.1245
-0.122
-0.12
-0.1215
-0.131
-0.138
-0.1295
-0.128
-0.112
-0.106
-0.12
-0.1205
-0.1305
-0.13
-0.1295
-0.1355
-0.135
-0.139
-0.1365
-0.1245
-0.1205
-0.1195
-0.1175
-0.112
-0.1155
-0.1075
-0.089
-0.098
-0.13
-0.14
-0.125
-0.118
-0.11
-0.1175
-0.1305
-0.134
-0.1295
-0.121
-0.1225
-0.119
-0.119
-0.124
-0.127
-0.128
-0.1225
-0.1185
-0.1185
-0.1235
-0.1235
-0.1195
-0.1215
-0.119
-0.126
-0.1275
-0.12
-0.12
-0.1115
-0.1175
-0.1285
-0.13
-0.131
-0.1265
-0.124
-0.1265
-0.131
-0.129
-0.122
-0.118
-0.1185
-0.118
-0.1185
-0.1135
-0.113
-0.116
-0.108
-0.115
-0.13
-0.1315
-0.1335
-0.1395
-0.1355
-0.123
-0.122
-0.1215
-0.121
-0.126
-0.123
-0.1315
-0.129
-0.119
-0.1225
-0.1195
-0.1225
-0.144
-0.1435
-0.116
-0.1025
-0.0985
-0.0925
-0.107
-0.1365
-0.1505
-0.143
-0.13
-0.1315
-0.131
-0.1225
-0.1165
-0.1115
-0.117
-0.1305
-0.1245
-0.115
-0.1325
-0.127
-0.112
-0.132
-0.132
-0.114
-0.115
-0.1165
-0.1305
-0.137
-0.121
-0.119
-0.1255
-0.126
-0.123
-0.131
-0.1345
-0.1245
-0.1215
-0.1235
-0.124
-0.113
-0.115
-0.121
-0.125
-0.141
-0.1325
-0.1175
-0.1085
-0.102
-0.13
-0.147
-0.1445
-0.1425
-0.132
-0.128
-0.1285
-0.1355
-0.138
-0.1475
-0.138
-0.114
-0.1265
-0.1455
-0.1445
-0.134
-0.14
-0.148
-0.13
-0.132
-0.162
-0.166
-0.147
-0.13
-0.124
-0.132
-0.133
-0.1305
-0.1305
-0.136
-0.137
-0.127
-0.123
-0.127
-0.1315
-0.1285
-0.1275
-0.129
-0.1275
-0.1335
-0.1355
-0.125
-0.122
-0.1235
-0.135
-0.144
-0.1415
-0.1345
-0.1285
-0.1445
-0.1445
-0.1305
-0.1265
-0.1285
-0.126
-0.1215
-0.1285
-0.1335
-0.129
-0.123
-0.125
-0.132
-0.1395
-0.1315
-0.121
-0.123
-0.1245
-0.127
-0.1265
-0.129
-0.1275
-0.13
-0.1365
-0.132
-0.1395
-0.142
-0.133
-0.1215
-0.122
-0.148
-0.157
-0.14
-0.1305
-0.122
-0.1225
-0.137
-0.1445
-0.14
-0.1295
-0.134
-0.1375
-0.125
-0.119
-0.1225
-0.1345
-0.1435
-0.14
-0.1365
-0.1305
-0.133
-0.1355
-0.142
-0.1575
-0.1565
-0.148
-0.1245
-0.125
-0.139
-0.1215
-0.1275
-0.129
-0.1375
-0.144
-0.1285
-0.147
-0.148
-0.135
-0.1455
-0.142
-0.1435
-0.164
-0.1635
-0.152
-0.148
-0.1475
-0.147
-0.144
-0.1375
-0.1385
-0.139
-0.137
-0.143
-0.134
-0.13
-0.1355
-0.137
-0.144
-0.145
-0.143
-0.145
-0.146
-0.142
-0.1375
-0.142
-0.144
-0.143
-0.147
-0.1495
-0.1485
-0.146
-0.1445
-0.145
-0.151
-0.155
-0.15
-0.1455
-0.1385
-0.1375
-0.1375
-0.138
-0.1505
-0.1475
-0.139
-0.1255
-0.124
-0.1305
-0.1325
-0.1505
-0.1425
-0.134
-0.1505
-0.152
-0.1425
-0.1535
-0.161
-0.1495
-0.1475
-0.1445
-0.138
-0.1385
-0.138
-0.1395
-0.1445
-0.141
-0.1425
-0.138
-0.125
-0.131
-0.136
-0.134
-0.1385
-0.1435
-0.139
-0.1385
-0.1435
-0.1415
-0.1395
-0.1365
-0.1395
-0.1445
-0.1505
-0.1505
-0.1505
-0.1475
-0.1315
-0.1345
-0.1515
-0.1505
-0.1435
-0.1395
-0.1365
-0.1355
-0.1375
-0.1425
-0.1405
-0.1405
-0.1385
-0.139
-0.1435
-0.141
-0.143
-0.1405
-0.14
-0.1355
-0.129
-0.133
-0.133
-0.139
-0.1335
-0.12
-0.1215
-0.126
-0.133
-0.149
-0.1465
-0.1385
-0.142
-0.142
-0.142
-0.1385
-0.1385
-0.134
-0.1265
-0.128
-0.1435
-0.1415
-0.134
-0.142
-0.146
-0.1595
-0.1485
-0.136
-0.1365
-0.133
-0.141
-0.159
-0.1685
-0.1465
-0.1315
-0.1335
-0.139
-0.142
-0.1295
-0.1185
-0.1355
-0.156
-0.152
-0.1385
-0.13
-0.1335
-0.136
-0.136
-0.136
-0.1445
-0.1485
-0.1465
-0.15
-0.149
-0.1505
-0.14
-0.125
-0.123
-0.1275
-0.1275
-0.1345
-0.1465
-0.137
-0.1215
-0.1395
-0.158
-0.1445
-0.142
-0.1435
-0.1445
-0.146
-0.1435
-0.1415
-0.138
-0.14
-0.1365
-0.149
-0.1575
-0.1455
-0.1435
-0.14
-0.135
-0.1395
-0.142
-0.149
-0.152
-0.151
-0.1365
-0.119
-0.1305
-0.13
-0.136
-0.158
-0.1635
-0.154
-0.1405
-0.1435
-0.145
-0.1435
-0.137
-0.1355
-0.1345
-0.1275
-0.1305
-0.131
-0.124
-0.12
-0.1195
-0.124
-0.125
-0.1205
-0.148
-0.165
-0.146
-0.139
-0.13
-0.1305
-0.141
-0.1375
-0.127
-0.1215
-0.118
-0.1185
-0.126
-0.1265
-0.1235
-0.1165
-0.1145
-0.1145
-0.109
-0.1
-0.094
-0.086
-0.084
-0.096
-0.112
-0.1205
-0.1115
-0.107
-0.103
-0.095
-0.0945
-0.0885
-0.085
-0.084
-0.072
-0.0685
-0.065
-0.068
-0.092
-0.1045
-0.0995
-0.0925
-0.087
-0.085
-0.093
-0.099
-0.0875
-0.0825
-0.0785
-0.072
-0.072
-0.078
-0.084
-0.0765
-0.069
-0.0645
-0.0565
-0.0425
-0.0765
-0.11
-0.085
-0.0735
-0.067
-0.057
-0.067
-0.082
-0.082
-0.0735
-0.072
-0.0765
-0.0745
-0.0805
-0.0905
-0.092
-0.093
-0.093
-0.0955
-0.1005
-0.1065
-0.1235
-0.1385
-0.132
-0.128
-0.138
-0.1385
-0.135
-0.1405
-0.148
-0.146
-0.151
-0.1575
-0.145
-0.137
-0.137
-0.139
-0.136
-0.135
-0.136
-0.1425
-0.148
-0.1415
-0.138
-0.1415
-0.1445
-0.1435
-0.15
-0.146
-0.136
-0.143
-0.145
-0.1505
-0.1605
-0.1505
-0.1385
-0.1495
-0.1525
-0.145
-0.1415
-0.1425
-0.1465
-0.1415
-0.1395
-0.1475
-0.17
-0.1745
-0.1595
-0.157
-0.155
-0.1485
-0.149
-0.153
-0.1515
-0.1485
-0.1475
-0.147
-0.146
-0.1435
-0.1395
-0.136
-0.1375
-0.141
-0.1365
-0.1325
-0.1345
-0.1455
-0.16
-0.1595
-0.155
-0.1535
-0.157
-0.1655
-0.165
-0.1565
-0.152
-0.151
-0.136
-0.1255
-0.1135
-0.0945
-0.073
-0.033
-0.0075
0.012
0.0435
0.0805
0.119
0.145
0.1785
0.2245
0.262
0.302
0.3325
0.345
0.369
0.388
0.3715
0.3225
0.295
0.265
0.2095
0.204
0.2125
0.184
0.1665
0.157
0.1305
0.1045
0.0645
0.006
-0.0525
-0.093
-0.1175
-0.1465
-0.157
-0.166
-0.2055
-0.237
-0.245
-0.241
-0.238
-0.229
-0.224
-0.2305
-0.206
-0.1915
-0.1965
-0.199
-0.2045
-0.1885
-0.178
-0.1785
-0.184
-0.184
-0.1715
-0.1655
-0.1665
-0.1665
-0.1625
-0.1605
-0.165
-0.169
-0.1755
-0.178
-0.162
-0.16
-0.1615
-0.155
-0.151
-0.141
-0.1405
-0.134
-0.1315
-0.1495
-0.158
-0.144
-0.1485
-0.175
-0.167
-0.16
-0.17
-0.172
-0.1665
-0.1525
-0.1465
-0.143
-0.1495
-0.1685
-0.1785
-0.1665
-0.154
-0.1555
-0.156
-0.147
-0.1445
-0.1525
-0.149
-0.1475
-0.147
-0.148
-0.156
-0.1505
-0.144
-0.141
-0.141
-0.1445
-0.146
-0.146
-0.1345
-0.131
-0.14
-0.1315
-0.1545
-0.154
-0.1245
-0.1325
-0.1265
-0.1405
-0.154
-0.155
-0.1635
-0.157
-0.1565
-0.1535
-0.1485
-0.1425
-0.1385
-0.1345
-0.137
-0.151
-0.149
-0.144
-0.141
-0.1295
-0.1305
-0.1365
-0.149
-0.151
-0.141
-0.135
-0.1325
-0.1375
-0.139
-0.1525
-0.152
-0.141
-0.152
-0.15
-0.1405
-0.137
-0.1295
-0.1245
-0.131
-0.1345
-0.127
-0.1285
-0.127
-0.1235
-0.1255
-0.127
-0.134
-0.138
-0.1415
-0.1405
-0.144
-0.1535
-0.1545
-0.15
-0.1345
-0.123
-0.1345
-0.1365
-0.124
-0.121
-0.1195
-0.115
-0.1185
-0.123
-0.112
-0.121
-0.1345
-0.1285
-0.1245
-0.121
-0.129
-0.136
-0.14
-0.131
-0.12
-0.12
-0.111
-0.1195
-0.131
-0.1305
-0.1265
-0.1205
-0.119
-0.12
-0.125
-0.1305
-0.1325
-0.1285
-0.125
-0.1225
-0.1215
-0.1195
-0.115
-0.1035
-0.112
-0.134
-0.119
-0.1055
-0.1
-0.098
-0.1075
-0.133
-0.127
-0.0825
-0.0845
-0.1185
-0.142
-0.125
-0.113
-0.1305
-0.131
-0.1255
-0.1255
-0.1235
-0.1215
-0.12
-0.115
-0.1155
-0.113
-0.1115
-0.106
-0.105
-0.121
-0.1205
-0.1065
-0.1025
-0.103
-0.096
-0.096
-0.109
-0.115
-0.1255
-0.1265
-0.107
-0.112
-0.124
-0.1205
-0.1195
-0.114
-0.12
-0.1205
-0.1085
-0.1025
-0.1035
-0.11
-0.1175
-0.116
-0.108
-0.11
-0.105
-0.1075
-0.1215
-0.128
-0.1255
-0.108
-0.104
-0.1065
-0.1045
-0.1035
-0.103
-0.113
-0.123
-0.1115
-0.103
-0.112
-0.1155
-0.111
-0.1055
-0.1055
-0.108
-0.1105
-0.114
-0.1185
-0.12
-0.1215
-0.12
-0.116
-0.1145
-0.112
-0.1135
-0.1085
-0.1135
-0.1265
-0.126
-0.1245
-0.1245
-0.1245
-0.1205
-0.1145
-0.1125
-0.1195
-0.123
-0.114
-0.1095
-0.115
-0.126
-0.1225
-0.111
-0.106
-0.112
-0.116
-0.115
-0.118
-0.1185
-0.114
-0.1095
-0.12
-0.133
-0.1355
-0.124
-0.1255
-0.126
-0.123
-0.1465
-0.1455
-0.1275
-0.1255
-0.116
-0.106
-0.127
-0.1345
-0.1195
-0.1245
-0.1245
-0.1285
-0.1355
-0.134
-0.1265
-0.117
-0.117
-0.118
-0.1255
-0.132
-0.128
-0.1295
-0.13
-0.13
-0.1335
-0.1365
-0.14
-0.131
-0.125
-0.1265
-0.121
-0.121
-0.129
-0.1415
-0.138
-0.137
-0.1415
-0.134
-0.1335
-0.1355
-0.1465
-0.1485
-0.1445
-0.1425
-0.135
-0.1335
-0.1325
-0.13
-0.1365
-0.1335
-0.1285
-0.141
-0.1455
-0.1275
-0.106
-0.117
-0.133
-0.1285
-0.1245
-0.134
-0.1445
-0.14
-0.136
-0.1375
-0.1415
-0.14
-0.1335
-0.1295
-0.1295
-0.131
-0.1315
-0.1365
-0.138
-0.131
-0.124
-0.1225
-0.1255
-0.131
-0.1345
-0.1345
-0.138
-0.147
-0.1485
-0.1365
-0.1345
-0.142
-0.149
-0.1505
-0.1335
-0.1205
-0.123
-0.131
-0.1255
-0.1155
-0.126
-0.1405
-0.145
-0.1525
-0.1535
-0.139
-0.1625
-0.1625
-0.1385
-0.1465
-0.148
-0.145
-0.14
-0.144
-0.145
-0.1405
-0.1345
-0.1325
-0.1445
-0.1425
-0.139
-0.144
-0.1385
-0.1405
-0.1605
-0.1665
-0.1545
-0.142
-0.1355
-0.1395
-0.14
-0.1425
-0.141
-0.1385
-0.137
-0.1365
-0.1525
-0.1495
-0.136
-0.124
-0.131
-0.1435
-0.155
-0.176
-0.1725
-0.1595
-0.1505
-0.1545
-0.1475
-0.1395
-0.1505
-0.1525
-0.148
-0.1465
-0.148
-0.147
-0.145
-0.1455
-0.1535
-0.151
-0.147
-0.1485
-0.148
-0.1475
-0.146
-0.143
-0.1495
-0.154
-0.147
-0.1455
-0.141
-0.1455
-0.157
-0.155
-0.1455
-0.1375
-0.1445
-0.1485
-0.153
-0.1565
-0.151
-0.148
-0.1395
-0.146
-0.166
-0.1605
-0.152
-0.153
-0.148
-0.136
-0.1385
-0.1375
-0.131
-0.15
-0.1665
-0.1735
-0.1585
-0.146
-0.1505
-0.1445
-0.1455
-0.158
-0.151
-0.1275
-0.1335
-0.151
-0.1485
-0.142
-0.138
-0.14
-0.1365
-0.131
-0.139
-0.1465
-0.148
-0.1435
-0.1405
-0.139
-0.1375
-0.14
-0.16
-0.178
-0.162
-0.139
-0.1255
-0.133
-0.1415
-0.143
-0.1435
-0.14
-0.1365
-0.131
-0.1325
-0.1375
-0.1375
-0.1355
-0.1345
-0.139
-0.1465
-0.1455
-0.139
-0.133
-0.13
-0.124
-0.1285
-0.128
-0.1355
-0.152
-0.1395
-0.132
-0.1425
-0.1475
-0.146
-0.137
-0.129
-0.1385
-0.1425
-0.1395
-0.139
-0.1325
-0.14
-0.1455
-0.1345
-0.137
-0.143
-0.1475
-0.149
-0.1495
-0.1405
-0.125
-0.1225
-0.1165
-0.1145
-0.124
-0.134
-0.1425
-0.1355
-0.127
-0.1265
-0.1255
-0.127
-0.1245
-0.127
-0.135
-0.1415
-0.1395
-0.1375
-0.1415
-0.133
-0.1295
-0.132
-0.1405
-0.152
-0.1365
-0.1265
-0.1315
-0.1305
-0.1335
-0.132
-0.1255
-0.1315
-0.1495
-0.1535
-0.1425
-0.139
-0.14
-0.138
-0.1375
-0.1395
-0.148
-0.1455
-0.1345
-0.1415
-0.136
-0.1285
-0.1365
-0.143
-0.1435
-0.145
-0.1505
-0.148
-0.141
-0.145
-0.149
-0.14
-0.1305
-0.133
-0.147
-0.1335
-0.115
-0.124
-0.133
-0.157
-0.1595
-0.14
-0.128
-0.125
-0.1345
-0.1375
-0.156
-0.1555
-0.1455
-0.152
-0.1465
-0.143
-0.1375
-0.116
-0.108
-0.1255
-0.131
-0.129
-0.127
-0.1215
-0.114
-0.11
-0.1145
-0.123
-0.1305
-0.1295
-0.1335
-0.128
-0.1155
-0.1095
-0.1045
-0.1055
-0.1015
-0.101
-0.103
-0.097
-0.097
-0.0955
-0.093
-0.0895
-0.081
-0.075
-0.08
-0.0855
-0.0765
-0.072
-0.0665
-0.0695
-0.085
-0.09
-0.0985
-0.1
-0.0855
-0.0825
-0.0815
-0.078
-0.079
-0.078
-0.082
-0.085
-0.074
-0.0705
-0.0745
-0.07
-0.068
-0.0715
-0.068
-0.0595
-0.053
-0.0535
-0.0505
-0.0495
-0.0575
-0.06
-0.064
-0.0685
-0.0615
-0.066
-0.065
-0.052
-0.0495
-0.062
-0.0615
-0.057
-0.098
-0.1105
-0.0905
-0.086
-0.0965
-0.1135
-0.1195
-0.1235
-0.126
-0.136
-0.147
-0.1395
-0.1305
-0.134
-0.137
-0.1395
-0.1415
-0.1425
-0.141
-0.142
-0.1445
-0.139
-0.148
-0.1595
-0.152
-0.1485
-0.1485
-0.149
-0.15
-0.1435
-0.155
-0.1755
-0.1635
-0.1535
-0.151
-0.1445
-0.147
-0.139
-0.1355
-0.1415
-0.1325
-0.1415
-0.1545
-0.1625
-0.174
-0.151
-0.1385
-0.145
-0.143
-0.143
-0.152
-0.143
-0.14
-0.1595
-0.1395
-0.1415
-0.168
-0.1585
-0.1565
-0.1545
-0.1445
-0.142
-0.1465
-0.16
-0.155
-0.144
-0.142
-0.1375
-0.142
-0.1425
-0.1365
-0.1355
-0.1395
-0.1495
-0.1655
-0.168
-0.158
-0.152
-0.1495
-0.1495
-0.1515
-0.1545
-0.15
-0.1465
-0.1335
-0.1175
-0.0985
-0.075
-0.0475
-0.024
-0.006
0.025
0.0425
0.0865
0.141
0.1865
0.2375
0.2715
0.3005
0.335
0.3675
0.39
0.3935
0.367
0.347
0.326
0.2925
0.2585
0.2255
0.208
0.191
0.1815
0.1805
0.1615
0.1325
0.0885
0.034
-0.015
-0.064
-0.0955
-0.1135
-0.139
-0.166
-0.1885
-0.2165
-0.233
-0.234
-0.2335
-0.226
-0.2185
-0.2
-0.199
-0.1985
-0.1785
-0.1715
-0.171
-0.1755
-0.1685
-0.157
-0.1575
-0.158
-0.15
-0.15
-0.1605
-0.153
-0.1565
-0.1555
-0.146
-0.155
-0.1585
-0.157
-0.152
-0.146
-0.1495
-0.1605
-0.1695
-0.164
-0.1415
-0.134
-0.14
-0.14
-0.1425
-0.1415
-0.142
-0.147
-0.1465
-0.143
-0.1435
-0.1425
-0.1435
-0.144
-0.1395
-0.1405
-0.14
-0.142
-0.1445
-0.1395
-0.133
-0.13
-0.128
-0.127
-0.132
-0.1315
-0.1335
-0.1325
-0.137
-0.1425
-0.1365
-0.132
-0.103
-0.1165
-0.162
-0.153
-0.1465
-0.158
-0.147
-0.1365
-0.1395
-0.1375
-0.1335
-0.132
-0.13
-0.123
-0.1225
-0.142
-0.142
-0.124
-0.1315
-0.15
-0.1475
-0.1435
-0.14
-0.1305
-0.127
-0.125
-0.1375
-0.136
-0.135
-0.139
-0.1395
-0.1365
-0.119
-0.133
-0.147
-0.138
-0.123
-0.1195
-0.1285
-0.133
-0.133
-0.127
-0.129
-0.1305
-0.1245
-0.12
-0.1175
-0.121
-0.118
-0.118
-0.1275
-0.129
-0.1285
-0.132
-0.121
-0.1205
-0.1355
-0.124
-0.116
-0.119
-0.118
-0.123
-0.121
-0.1135
-0.113
-0.108
-0.103
-0.1205
-0.123
-0.1165
-0.1245
-0.1255
-0.1195
-0.119
-0.1235
-0.1205
-0.1165
-0.121
-0.123
-0.1185
-0.1175
-0.119
-0.1205
-0.1265
-0.1255
-0.1185
-0.122
-0.118
-0.1145
-0.116
-0.116
-0.131
-0.147
-0.13
-0.115
-0.122
-0.117
-0.1205
-0.1195
-0.1165
-0.124
-0.111
-0.1085
-0.127
-0.12
-0.1135
-0.1185
-0.1195
-0.1195
-0.1145
-0.1065
-0.0955
-0.099
-0.1115
-0.1265
-0.1305
-0.123
-0.122
-0.115
-0.1175
-0.12
-0.115
-0.1185
-0.115
-0.1065
-0.105
-0.1095
-0.1095
-0.107
-0.104
-0.102
-0.1055
-0.108
-0.1125
-0.113
-0.106
-0.1065
-0.114
-0.115
-0.11
-0.106
-0.104
-0.0955
-0.095
-0.1135
-0.1265
-0.1235
-0.1135
-0.1115
-0.1145
-0.114
-0.108
-0.107
-0.1115
-0.12
-0.118
-0.1085
-0.1105
-0.1085
-0.108
-0.111
-0.112
-0.1045
-0.099
-0.107
-0.1025
-0.1045
-0.1085
-0.107
-0.111
-0.114
-0.131
-0.1255
-0.113
-0.1115
-0.1015
-0.096
-0.101
-0.1165
-0.117
-0.1115
-0.1025
-0.109
-0.1285
-0.1235
-0.121
-0.115
-0.1135
-0.117
-0.108
-0.096
-0.084
-0.1065
-0.1265
-0.125
-0.1305
-0.132
-0.1275
-0.1175
-0.1155
-0.119
-0.122
-0.1265
-0.11
-0.108
-0.127
-0.1215
-0.1215
-0.123
-0.115
-0.1135
-0.1155
-0.1165
-0.1165
-0.119
-0.1175
-0.118
-0.1205
-0.117
-0.1155
-0.121
-0.1245
-0.1185
-0.118
-0.121
-0.111
-0.113
-0.116
-0.114
-0.117
-0.1165
-0.119
-0.123
-0.124
-0.1215
-0.121
-0.113
-0.1005
-0.104
-0.125
-0.1355
-0.126
-0.116
-0.1185
-0.117
-0.1255
-0.136
-0.125
-0.124
-0.121
-0.106
-0.1115
-0.126
-0.124
-0.129
-0.129
-0.1155
-0.124
-0.135
-0.1345
-0.127
-0.1205
-0.122
-0.1245
-0.13
-0.1225
-0.116
-0.125
-0.1315
-0.1395
-0.135
-0.1255
-0.118
-0.1075
-0.115
-0.13
-0.1235
-0.125
-0.151
-0.1395
-0.118
-0.1145
-0.109
-0.113
-0.1195
-0.119
-0.1245
-0.128
-0.123
-0.1245
-0.1225
-0.1305
-0.1345
-0.127
-0.128
-0.1205
-0.1175
-0.1185
-0.1185
-0.124
-0.129
-0.1215
-0.1135
-0.1165
-0.113
-0.13
-0.1465
-0.1385
-0.1335
-0.1265
-0.125
-0.1225
-0.115
-0.106
-0.1245
-0.1525
-0.154
-0.1375
-0.124
-0.128
-0.1255
-0.12
-0.112
-0.11
-0.1215
-0.124
-0.118
-0.1265
-0.135
-0.132
-0.1305
-0.127
-0.1285
-0.1225
-0.1195
-0.116
-0.125
-0.147
-0.1395
-0.125
-0.1195
-0.1235
-0.1345
-0.138
-0.134
-0.134
-0.14
-0.1385
-0.1355
-0.1275
-0.1175
-0.12
-0.1205
-0.1165
-0.1135
-0.1365
-0.1485
-0.1335
-0.135
-0.133
-0.1315
-0.1295
-0.1315
-0.136
-0.1375
-0.1405
-0.139
-0.141
-0.1365
-0.131
-0.129
-0.1255
-0.1295
-0.1305
-0.1355
-0.1535
-0.1615
-0.146
-0.134
-0.14
-0.138
-0.136
-0.137
-0.135
-0.1375
-0.13
-0.1375
-0.1445
-0.1335
-0.1225
-0.1235
-0.1275
-0.133
-0.154
-0.151
-0.1445
-0.143
-0.138
-0.158
-0.163
-0.1485
-0.143
-0.137
-0.136
-0.1415
-0.139
-0.1375
-0.1515
-0.155
-0.14
-0.138
-0.1415
-0.1415
-0.138
-0.134
-0.142
-0.1445
-0.1395
-0.1375
-0.141
-0.142
-0.14
-0.14
-0.1355
-0.13
-0.132
-0.141
-0.141
-0.134
-0.1355
-0.1385
-0.133
-0.1385
-0.143
-0.1315
-0.129
-0.139
-0.146
-0.147
-0.1415
-0.14
-0.1395
-0.134
-0.1405
-0.1425
-0.139
-0.1365
-0.127
-0.1235
-0.129
-0.126
-0.126
-0.14
-0.1435
-0.143
-0.134
-0.135
-0.1405
-0.1395
-0.146
-0.141
-0.132
-0.123
-0.125
-0.1245
-0.1205
-0.1245
-0.1275
-0.128
-0.1125
-0.119
-0.142
-0.146
-0.14
-0.135
-0.1345
-0.132
-0.129
-0.131
-0.1345
-0.144
-0.149
-0.1355
-0.129
-0.1265
-0.124
-0.139
-0.1495
-0.143
-0.1405
-0.1385
-0.139
-0.1405
-0.1325
-0.1345
-0.132
-0.131
-0.134
-0.1345
-0.137
-0.137
-0.1375
-0.1305
-0.1285
-0.1305
-0.1295
-0.1315
-0.1375
-0.1325
-0.1325
-0.136
-0.124
-0.1385
-0.138
-0.1295
-0.143
-0.1455
-0.1375
-0.1335
-0.143
-0.137
-0.1305
-0.1335
-0.142
-0.141
-0.135
-0.1325
-0.1245
-0.12
-0.1195
-0.131
-0.139
-0.1405
-0.135
-0.128
-0.1295
-0.119
-0.129
-0.137
-0.129
-0.1465
-0.143
-0.136
-0.1325
-0.1185
-0.1385
-0.1575
-0.1485
-0.1385
-0.1285
-0.132
-0.143
-0.138
-0.1335
-0.134
-0.132
-0.1285
-0.1255
-0.123
-0.124
-0.1265
-0.126
-0.1235
-0.122
-0.1245
-0.127
-0.127
-0.1205
-0.1235
-0.134
-0.1315
-0.124
-0.123
-0.1195
-0.1145
-0.1075
-0.102
-0.109
-0.1165
-0.118
-0.1145
-0.108
-0.098
-0.0875
-0.0815
-0.0795
-0.072
-0.0685
-0.081
-0.089
-0.089
-0.086
-0.088
-0.088
-0.0705
-0.0635
-0.059
-0.052
-0.0645
-0.064
-0.056
-0.065
-0.076
-0.08
-0.078
-0.0765
-0.082
-0.0835
-0.078
-0.066
-0.064
-0.0715
-0.061
-0.054
-0.0665
-0.079
-0.0725
-0.0605
-0.0575
-0.052
-0.046
-0.0475
-0.0475
-0.045
-0.041
-0.042
-0.043
-0.0405
-0.048
-0.0515
-0.0495
-0.0555
-0.0605
-0.0655
-0.068
-0.0685
-0.072
-0.075
-0.086
-0.09
-0.091
-0.0955
-0.099
-0.1315
-0.1515
-0.131
-0.111
-0.1125
-0.1245
-0.135
-0.134
-0.122
-0.128
-0.1235
-0.1205
-0.136
-0.1265
-0.139
-0.177
-0.1795
-0.161
-0.151
-0.1445
-0.145
-0.1525
-0.152
-0.147
-0.147
-0.1485
-0.1465
-0.1495
-0.1535
-0.146
-0.14
-0.143
-0.1425
-0.139
-0.137
-0.1365
-0.147
-0.1545
-0.153
-0.148
-0.141
-0.138
-0.1355
-0.136
-0.138
-0.14
-0.145
-0.143
-0.1315
-0.131
-0.128
-0.1275
-0.138
-0.144
-0.151
-0.1435
-0.142
-0.149
-0.1425
-0.1345
-0.125
-0.12
-0.1235
-0.128
-0.138
-0.1395
-0.1255
-0.1305
-0.1445
-0.1425
-0.141
-0.162
-0.1785
-0.1695
-0.15
-0.1475
-0.1515
-0.1325
-0.1205
-0.0995
-0.0765
-0.064
-0.0305
-0.003
0.022
0.0545
0.095
0.1365
0.1715
0.2165
0.262
0.2925
0.323
0.362
0.3835
0.404
0.402
0.3625
0.3335
0.314
0.2805
0.236
0.221
0.2115
0.2005
0.205
0.185
0.153
0.11
0.051
-0.0095
-0.0655
-0.0935
-0.1115
-0.125
-0.139
-0.177
-0.217
-0.2335
-0.235
-0.231
-0.2185
-0.2105
-0.2035
-0.193
-0.1845
-0.181
-0.182
-0.1805
-0.1675
-0.161
-0.164
-0.16
-0.158
-0.1565
-0.155
-0.1615
-0.1665
-0.163
-0.156
-0.152
-0.1545
-0.1595
-0.157
-0.1475
-0.147
-0.146
-0.132
-0.1355
-0.1535
-0.149
-0.135
-0.1375
-0.1455
-0.147
-0.1455
-0.143
-0.1485
-0.1495
-0.144
-0.144
-0.144
-0.147
-0.146
-0.1415
-0.133
-0.1285
-0.137
-0.145
-0.1575
-0.156
-0.146
-0.1375
-0.126
-0.143
-0.1645
-0.1555
-0.147
-0.149
-0.142
-0.1405
-0.144
-0.1415
-0.1345
-0.115
-0.106
-0.1115
-0.13
-0.16
-0.1585
-0.1455
-0.1405
-0.137
-0.1375
-0.135
-0.1365
-0.1385
-0.135
-0.1295
-0.123
-0.138
-0.157
-0.1405
-0.1235
-0.1235
-0.13
-0.132
-0.127
-0.137
-0.142
-0.134
-0.136
-0.14
-0.144
-0.1465
-0.1455
-0.1425
-0.138
-0.14
-0.137
-0.134
-0.131
-0.1275
-0.134
-0.1495
-0.144
-0.1175
-0.115
-0.117
-0.1265
-0.1365
-0.1405
-0.157
-0.148
-0.1295
-0.127
-0.1265
-0.126
-0.1235
-0.121
-0.1165
-0.1195
-0.132
-0.1355
-0.1315
-0.124
-0.1195
-0.1225
-0.126
-0.122
-0.1085
-0.1015
-0.101
-0.1225
-0.146
-0.139
-0.138
-0.1395
-0.1355
-0.136
-0.132
-0.1195
-0.107
-0.1085
-0.1085
-0.1135
-0.118
-0.103
-0.089
-0.094
-0.1155
-0.1205
-0.1185
-0.1335
-0.135
-0.132
-0.1225
-0.106
-0.1145
-0.12
-0.115
-0.123
-0.128
-0.1225
-0.12
-0.1155
-0.11
-0.113
-0.1145
-0.106
-0.1015
-0.1095
-0.1165
-0.1185
-0.115
-0.112
-0.113
-0.117
-0.115
-0.1095
-0.107
-0.105
-0.1035
-0.101
-0.0975
-0.0955
-0.094
-0.093
-0.1025
-0.11
-0.111
-0.1075
-0.0965
-0.096
-0.1
-0.102
-0.101
-0.104
-0.1035
-0.094
-0.0955
-0.1055
-0.1035
-0.097
-0.1015
-0.1025
-0.094
-0.0925
-0.098
-0.1005
-0.099
-0.0975
-0.1035
-0.1015
-0.098
-0.1085
-0.106
-0.0975
-0.105
-0.105
-0.0975
-0.106
-0.121
-0.113
-0.098
-0.1035
-0.1095
-0.11
-0.106
-0.1005
-0.1035
-0.108
-0.1165
-0.1135
-0.1005
-0.096
-0.1015
-0.1095
-0.113
-0.1055
-0.0935
-0.09
-0.093
-0.1015
-0.107
-0.111
-0.1055
-0.101
-0.117
-0.1225
-0.1145
-0.113
-0.112
-0.1105
-0.1085
-0.107
-0.108
-0.1
-0.089
-0.1025
-0.1315
-0.1355
-0.1295
-0.116
-0.108
-0.1175
-0.1095
-0.1115
-0.1165
-0.1105
-0.107
-0.108
-0.117
-0.1125
-0.105
-0.107
-0.1
-0.104
-0.1145
-0.108
-0.1055
-0.1155
-0.115
-0.1165
-0.1225
-0.119
-0.124
-0.128
-0.121
-0.115
-0.12
-0.12
-0.1085
-0.109
-0.1135
-0.1165
-0.1075
-0.1105
-0.1295
-0.125
-0.117
-0.111
-0.112
-0.1165
-0.116
-0.115
-0.111
-0.1145
-0.1115
-0.111
-0.116
-0.111
-0.119
-0.131
-0.129
-0.1245
-0.1265
-0.125
-0.118
-0.117
-0.115
-0.1115
-0.1175
-0.1215
-0.1255
-0.1325
-0.142
-0.132
-0.1145
-0.1315
-0.134
-0.1225
-0.125
-0.126
-0.13
-0.129
-0.1205
-0.1255
-0.134
-0.134
-0.1315
-0.1295
-0.1315
-0.133
-0.1305
-0.133
-0.135
-0.132
-0.127
-0.1255
-0.125
-0.1235
-0.1365
-0.1375
-0.1285
-0.1325
-0.1335
-0.134
-0.126
-0.125
-0.1405
-0.14
-0.1305
-0.131
-0.138
-0.14
-0.136
-0.13
-0.1255
-0.1255
-0.1265
-0.13
-0.124
-0.117
-0.119
-0.121
-0.125
-0.1295
-0.126
-0.1235
-0.128
-0.1265
-0.1285
-0.1335
-0.13
-0.1275
-0.124
-0.125
-0.1305
-0.1275
-0.1235
-0.123
-0.1255
-0.1285
-0.1265
-0.1245
-0.123
-0.1205
-0.126
-0.1335
-0.1355
-0.1335
-0.134
-0.132
-0.134
-0.1375
-0.1365
-0.137
-0.1365
-0.1365
-0.1345
-0.1315
-0.12
-0.1275
-0.1355
-0.1305
-0.1345
-0.131
-0.124
-0.1235
-0.1285
-0.126
-0.1285
-0.1355
-0.1375
-0.147
-0.143
-0.137
-0.136
-0.1335
-0.132
-0.1245
-0.136
-0.145
-0.1355
-0.134
-0.1395
-0.145
-0.136
-0.129
-0.137
-0.1355
-0.1335
-0.1335
-0.137
-0.1395
-0.135
-0.128
-0.127
-0.123
-0.1215
-0.1345
-0.138
-0.1505
-0.155
-0.1375
-0.1285
-0.126
-0.1275
-0.132
-0.133
-0.126
-0.128
-0.1295
-0.128
-0.134
-0.131
-0.1305
-0.1355
-0.137
-0.13
-0.126
-0.1255
-0.1195
-0.132
-0.14
-0.131
-0.127
-0.126
-0.1225
-0.12
-0.1315
-0.1395
-0.1415
-0.1385
-0.1315
-0.1325
-0.1275
-0.1225
-0.1215
-0.1255
-0.1255
-0.124
-0.1285
-0.121
-0.1205
-0.129
-0.138
-0.1405
-0.134
-0.1325
-0.1305
-0.13
-0.127
-0.1255
-0.1225
-0.1245
-0.1475
-0.1485
-0.1275
-0.124
-0.1245
-0.1255
-0.122
-0.1185
-0.1325
-0.1325
-0.125
-0.1255
-0.119
-0.1155
-0.119
-0.1275
-0.1255
-0.127
-0.1415
-0.1415
-0.1325
-0.1345
-0.1405
-0.135
-0.1345
-0.14
-0.139
-0.131
-0.127
-0.125
-0.1205
-0.1235
-0.1225
-0.1255
-0.1285
-0.1295
-0.1345
-0.133
-0.1315
-0.1295
-0.125
-0.128
-0.1275
-0.1205
-0.1195
-0.1215
-0.1235
-0.118
-0.117
-0.131
-0.147
-0.146
-0.132
-0.125
-0.1245
-0.126
-0.1305
-0.1405
-0.132
-0.1125
-0.1185
-0.135
-0.1335
-0.1305
-0.131
-0.1285
-0.125
-0.1205
-0.125
-0.1245
-0.1265
-0.1305
-0.1235
-0.112
-0.112
-0.1185
-0.109
-0.121
-0.1245
-0.1115
-0.12
-0.128
-0.127
-0.122
-0.1245
-0.124
-0.133
-0.1435
-0.133
-0.122
-0.1135
-0.1095
-0.112
-0.1135
-0.111
-0.1275
-0.1345
-0.1205
-0.122
-0.127
-0.124
-0.1225
-0.122
-0.115
-0.115
-0.1175
-0.1145
-0.112
-0.1105
-0.1085
-0.1255
-0.14
-0.1245
-0.1165
-0.12
-0.1225
-0.1235
-0.126
-0.116
-0.1105
-0.1085
-0.1075
-0.116
-0.1215
-0.128
-0.1235
-0.1185
-0.117
-0.1165
-0.115
-0.1155
-0.116
-0.1075
-0.1075
-0.1095
-0.112
-0.1045
-0.101
-0.1025
-0.0975
-0.091
-0.084
-0.0885
-0.087
-0.084
-0.0785
-0.073
-0.0735
-0.068
-0.0745
-0.0865
-0.086
-0.08
-0.0695
-0.057
-0.0485
-0.045
-0.0425
-0.041
-0.05
-0.059
-0.071
-0.0775
-0.07
-0.0725
-0.07
-0.0675
-0.067
-0.063
-0.0635
-0.0595
-0.0615
-0.06
-0.058
-0.058
-0.0485
-0.0425
-0.0345
-0.031
-0.0245
-0.024
-0.042
-0.042
-0.0365
-0.0395
-0.049
-0.0505
-0.0455
-0.0525
-0.0525
-0.0595
-0.066
-0.0595
-0.0595
-0.061
-0.065
-0.0815
-0.0915
-0.0855
-0.0875
-0.1005
-0.1075
-0.109
-0.1095
-0.112
-0.12
-0.1235
-0.124
-0.1255
-0.129
-0.1295
-0.1295
-0.1305
-0.132
-0.1315
-0.1295
-0.128
-0.126
-0.1295
-0.1285
-0.1285
-0.14
-0.141
-0.144
-0.15
-0.141
-0.1365
-0.1365
-0.1325
-0.142
-0.162
-0.1485
-0.142
-0.146
-0.1345
-0.1375
-0.1385
-0.135
-0.1335
-0.129
-0.129
-0.1325
-0.1375
-0.1415
-0.1395
-0.1385
-0.1405
-0.136
-0.1395
-0.1415
-0.1395
-0.13
-0.121
-0.125
-0.133
-0.162
-0.174
-0.1525
-0.1345
-0.134
-0.1345
-0.1195
-0.112
-0.124
-0.1275
-0.1135
-0.1185
-0.1355
-0.144
-0.1505
-0.154
-0.148
-0.1415
-0.149
-0.154
-0.1525
-0.149
-0.1545
-0.1435
-0.119
-0.1165
-0.0965
-0.0765
-0.063
-0.029
0.005
0.0325
0.067
0.1115
0.1475
0.176
0.2165
0.2745
0.324
0.3585
0.3845
0.394
0.4105
0.4035
0.3725
0.351
0.3145
0.2705
0.2335
0.2185
0.21
0.2005
0.1915
0.1635
0.1515
0.1235
0.061
0.01
-0.0485
-0.0955
-0.123
-0.14
-0.1595
-0.1875
-0.217
-0.2265
-0.221
-0.225
-0.2195
-0.215
-0.201
-0.186
-0.183
-0.178
-0.1765
-0.1725
-0.1595
-0.155
-0.157
-0.157
-0.157
-0.1515
-0.1495
-0.149
-0.142
-0.143
-0.1525
-0.1575
-0.1555
-0.1515
-0.141
-0.1375
-0.144
-0.145
-0.145
-0.143
-0.152
-0.158
-0.1465
-0.1395
-0.1415
-0.1415
-0.1405
-0.1445
-0.139
-0.133
-0.1295
-0.137
-0.1465
-0.1455
-0.1485
-0.1455
-0.1645
-0.163
-0.135
-0.131
-0.1285
-0.1325
-0.1345
-0.127
-0.124
-0.1355
-0.1375
-0.126
-0.129
-0.121
-0.112
-0.121
-0.131
-0.1365
-0.1265
-0.1255
-0.136
-0.134
-0.1375
-0.14
-0.1355
-0.1295
-0.127
-0.1215
-0.119
-0.1225
-0.1175
-0.1125
-0.1065
-0.1215
-0.1415
-0.132
-0.1315
-0.143
-0.143
-0.1405
-0.138
-0.135
-0.136
-0.131
-0.13
-0.135
-0.1285
-0.12
-0.1235
-0.1295
-0.1315
-0.134
-0.126
-0.1165
-0.1215
-0.126
-0.1325
-0.132
-0.127
-0.123
-0.121
-0.123
-0.127
-0.151
-0.155
-0.1305
-0.1205
-0.1195
-0.1215
-0.1355
-0.137
-0.12
-0.106
-0.1
-0.113
-0.1265
-0.135
-0.1365
-0.1275
-0.1225
-0.125
-0.131
-0.1325
-0.1285
-0.122
-0.12
-0.117
-0.1165
-0.114
-0.1145
-0.1085
-0.103
-0.119
-0.125
-0.132
-0.132
-0.12
-0.118
-0.1135
-0.113
-0.1125
-0.116
-0.1125
-0.1015
-0.112
-0.125
-0.1185
-0.1
-0.0985
-0.113
-0.1175
-0.1105
-0.0985
-0.092
-0.1175
-0.145
-0.1295
-0.105
-0.1105
-0.116
-0.1045
-0.113
-0.1195
-0.1135
-0.119
-0.119
-0.113
-0.113
-0.113
-0.1115
-0.107
-0.101
-0.0995
-0.101
-0.101
-0.104
-0.104
-0.0995
-0.1
-0.0965
-0.1
-0.102
-0.0965
-0.0965
-0.099
-0.1065
-0.1065
-0.101
-0.0995
-0.1
-0.0975
-0.095
-0.0985
-0.098
-0.101
-0.1025
-0.1075
-0.1
-0.087
-0.097
-0.0975
-0.0945
-0.096
-0.096
-0.096
-0.0945
-0.092
-0.0935
-0.0955
-0.094
-0.103
-0.105
-0.096
-0.0955
-0.094
-0.094
-0.1035
-0.1115
-0.1105
-0.107
-0.105
-0.1095
-0.1055
-0.0985
-0.0945
-0.0895
-0.104
-0.111
-0.1115
-0.109
-0.099
-0.101
-0.1085
-0.1125
-0.112
-0.114
-0.113
-0.1095
-0.1005
-0.097
-0.1005
-0.104
-0.116
-0.1235
-0.1145
-0.099
-0.0935
-0.0985
-0.104
-0.1075
-0.1125
-0.103
-0.093
-0.103
-0.104
-0.0995
-0.0985
-0.0955
-0.0905
-0.089
-0.089
-0.0885
-0.0845
-0.0915
-0.113
-0.113
-0.1145
-0.109
-0.1025
-0.1145
-0.109
-0.099
-0.1015
-0.1085
-0.118
-0.1165
-0.1075
-0.1095
-0.1115
-0.1045
-0.1015
-0.107
-0.1085
-0.101
-0.0925
-0.0945
-0.094
-0.0925
-0.0985
-0.1005
-0.1015
-0.1035
-0.1055
-0.1085
-0.1155
-0.1115
-0.1055
-0.12
-0.121
-0.103
-0.0965
-0.1025
-0.1095
-0.1145
-0.111
-0.1065
-0.104
-0.1055
-0.111
-0.108
-0.102
-0.0955
-0.094
-0.1015
-0.1105
-0.111
-0.104
-0.1035
-0.1065
-0.1035
-0.114
-0.1265
-0.12
-0.115
-0.1155
-0.1125
-0.114
-0.1115
-0.1085
-0.109
-0.111
-0.107
-0.0965
-0.0925
-0.09
-0.099
-0.1085
-0.111
-0.118
-0.1195
-0.115
-0.109
-0.114
-0.126
-0.122
-0.107
-0.104
-0.107
-0.11
-0.1075
-0.1
-0.0995
-0.0995
-0.099
-0.097
-0.101
-0.106
-0.1005
-0.1015
-0.101
-0.0985
-0.1065
-0.1125
-0.1145
-0.116
-0.1135
-0.1085
-0.1115
-0.105
-0.0945
-0.097
-0.102
-0.1005
-0.0975
-0.115
-0.1195
-0.116
-0.12
-0.1195
-0.123
-0.115
-0.117
-0.108
-0.1055
-0.1135
-0.1115
-0.1115
-0.0985
-0.114
-0.128
-0.119
-0.1145
-0.1125
-0.1135
-0.1175
-0.122
-0.1225
-0.1235
-0.1175
-0.1165
-0.119
-0.118
-0.1215
-0.1245
-0.1255
-0.1185
-0.11
-0.1075
-0.1135
-0.121
-0.1225
-0.1245
-0.1185
-0.1145
-0.12
-0.1235
-0.121
-0.1195
-0.1195
-0.114
-0.114
-0.1155
-0.1115
-0.1155
-0.122
-0.1225
-0.1255
-0.122
-0.12
-0.118
-0.1045
-0.1
-0.0985
-0.1225
-0.143
-0.1185
-0.1195
-0.1425
-0.135
-0.1215
-0.125
-0.1295
-0.1325
-0.1335
-0.1355
-0.1405
-0.1405
-0.131
-0.1315
-0.1435
-0.1415
-0.1335
-0.1225
-0.114
-0.11
-0.111
-0.112
-0.1125
-0.114
-0.122
-0.138
-0.132
-0.119
-0.114
-0.117
-0.131
-0.1385
-0.127
-0.1155
-0.1245
-0.1385
-0.141
-0.134
-0.129
-0.123
-0.1175
-0.116
-0.123
-0.1305
-0.1295
-0.13
-0.1295
-0.129
-0.1295
-0.127
-0.1225
-0.106
-0.11
-0.1295
-0.121
-0.1195
-0.1195
-0.1135
-0.1215
-0.1305
-0.131
-0.1245
-0.1225
-0.1215
-0.1335
-0.139
-0.1295
-0.128
-0.128
-0.122
-0.113
-0.113
-0.108
-0.118
-0.1355
-0.141
-0.14
-0.1255
-0.1155
-0.103
-0.1065
-0.125
-0.137
-0.1415
-0.125
-0.115
-0.117
-0.1295
-0.136
-0.1285
-0.1265
-0.1275
-0.1285
-0.1245
-0.1245
-0.1245
-0.1225
-0.1235
-0.123
-0.125
-0.123
-0.117
-0.1235
-0.1265
-0.116
-0.1125
-0.116
-0.114
-0.1115
-0.111
-0.109
-0.1105
-0.112
-0.12
-0.121
-0.113
-0.118
-0.121
-0.125
-0.1255
-0.1155
-0.1125
-0.119
-0.124
-0.118
-0.113
-0.112
-0.1115
-0.1185
-0.1185
-0.1125
-0.1055
-0.1025
-0.114
-0.1195
-0.1325
-0.1385
-0.117
-0.1075
-0.104
-0.106
-0.12
-0.124
-0.126
-0.129
-0.126
-0.1235
-0.122
-0.1305
-0.1295
-0.1175
-0.116
-0.111
-0.1145
-0.1155
-0.111
-0.11
-0.1035
-0.105
-0.1075
-0.111
-0.113
-0.1145
-0.113
-0.1115
-0.115
-0.109
-0.1055
-0.1075
-0.108
-0.111
-0.1095
-0.105
-0.106
-0.107
-0.103
-0.102
-0.104
-0.105
-0.1085
-0.1085
-0.104
-0.1055
-0.11
-0.1125
-0.119
-0.1245
-0.12
-0.113
-0.11
-0.104
-0.102
-0.0985
-0.1
-0.1075
-0.1095
-0.105
-0.091
-0.0965
-0.1045
-0.1095
-0.107
-0.09
-0.088
-0.084
-0.079
-0.073
-0.0695
-0.0705
-0.067
-0.069
-0.081
-0.077
-0.065
-0.066
-0.0675
-0.0675
-0.066
-0.0575
-0.048
-0.049
-0.0515
-0.0495
-0.045
-0.0385
-0.0375
-0.039
-0.0475
-0.058
-0.071
-0.067
-0.0415
-0.0445
-0.0435
-0.048
-0.0695
-0.063
-0.0535
-0.048
-0.0445
-0.0455
-0.0425
-0.0405
-0.041
-0.035
-0.0245
-0.019
-0.015
-0.0135
-0.0185
-0.024
-0.026
-0.027
-0.0285
-0.03
-0.0305
-0.031
-0.0335
-0.036
-0.0375
-0.038
-0.0265
-0.0315
-0.0575
-0.0915
-0.1015
-0.09
-0.099
-0.099
-0.1025
-0.1065
-0.0995
-0.1005
-0.103
-0.1155
-0.1285
-0.13
-0.127
-0.119
-0.118
-0.1235
-0.124
-0.134
-0.1375
-0.1225
-0.1255
-0.1375
-0.132
-0.126
-0.121
-0.1235
-0.1215
-0.1195
-0.128
-0.122
-0.1155
-0.1195
-0.135
-0.1335
-0.124
-0.126
-0.123
-0.125
-0.1205
-0.12
-0.126
-0.129
-0.133
-0.1305
-0.1285
-0.1295
-0.1285
-0.128
-0.131
-0.128
-0.1195
-0.1155
-0.116
-0.1335
-0.139
-0.1305
-0.1285
-0.127
-0.1275
-0.135
-0.1395
-0.135
-0.131
-0.1225
-0.115
-0.114
-0.117
-0.116
-0.1145
-0.1135
-0.1135
-0.124
-0.131
-0.138
-0.144
-0.142
-0.144
-0.149
-0.142
-0.1445
-0.148
-0.128
-0.1105
-0.1
-0.0835
-0.0575
-0.043
-0.0265
0.0155
0.0635
0.1025
0.137
0.1805
0.2225
0.267
0.309
0.3495
0.389
0.4165
0.4425
0.4465
0.4045
0.368
0.348
0.3205
0.283
0.2575
0.2495
0.229
0.2235
0.2155
0.1805
0.1415
0.093
0.034
-0.021
-0.0655
-0.0975
-0.114
-0.1305
-0.1575
-0.188
-0.218
-0.2275
-0.219
-0.2095
-0.2035
-0.204
-0.197
-0.181
-0.167
-0.158
-0.158
-0.147
-0.1395
-0.1665
-0.1845
-0.1805
-0.168
-0.152
-0.146
-0.1445
-0.1535
-0.159
-0.1535
-0.146
-0.139
-0.139
-0.149
-0.1515
-0.147
-0.1405
-0.1325
-0.1305
-0.1315
-0.126
-0.124
-0.122
-0.122
-0.13
-0.135
-0.145
-0.143
-0.134
-0.133
-0.1305
-0.126
-0.1225
-0.1215
-0.129
-0.1375
-0.1315
-0.131
-0.1325
-0.1275
-0.1275
-0.1255
-0.119
-0.121
-0.121
-0.117
-0.117
-0.1265
-0.145
-0.1405
-0.127
-0.1275
-0.129
-0.128
-0.1205
-0.1175
-0.1285
-0.132
-0.128
-0.1255
-0.13
-0.135
-0.1325
-0.13
-0.1265
-0.125
-0.128
-0.125
-0.121
-0.1185
-0.123
-0.1335
-0.131
-0.124
-0.1175
-0.117
-0.12
-0.119
-0.114
-0.1085
-0.115
-0.1165
-0.1125
-0.114
-0.115
-0.1235
-0.139
-0.1385
-0.1355
-0.1345
-0.123
-0.116
-0.1105
-0.1125
-0.121
-0.121
-0.1205
-0.1155
-0.114
-0.1285
-0.1425
-0.1435
-0.1305
-0.112
-0.1045
-0.1035
-0.106
-0.1105
-0.1065
-0.1145
-0.124
-0.1225
-0.1265
-0.129
-0.1275
-0.119
-0.1065
-0.106
-0.1155
-0.1225
-0.1195
-0.1195
-0.121
-0.1195
-0.125
-0.122
-0.116
-0.116
-0.1145
-0.1145
-0.1105
-0.1125
-0.117
-0.116
-0.114
-0.1125
-0.1105
-0.1065
-0.0995
-0.0945
-0.103
-0.1125
-0.1065
-0.106
-0.1115
-0.1025
-0.1055
-0.128
-0.123
-0.1035
-0.099
-0.094
-0.0925
-0.093
-0.0965
-0.102
-0.102
-0.103
-0.102
-0.105
-0.1025
-0.0985
-0.102
-0.097
-0.0935
-0.0905
-0.094
-0.1075
-0.1045
-0.094
-0.0925
-0.089
-0.0905
-0.0955
-0.098
-0.0965
-0.096
-0.096
-0.0935
-0.0965
-0.0935
-0.0965
-0.097
-0.0875
-0.0875
-0.0935
-0.099
-0.1025
-0.102
-0.1005
-0.1005
-0.0985
-0.101
-0.0995
-0.0935
-0.092
-0.0965
-0.1
-0.094
-0.095
-0.0965
-0.0935
-0.09
-0.0925
-0.102
-0.1005
-0.1015
-0.1035
-0.1025
-0.1025
-0.1025
-0.095
-0.0865
-0.089
-0.092
-0.0985
-0.111
-0.1155
-0.1075
-0.1115
-0.1105
-0.107
-0.1
-0.084
-0.0785
-0.088
-0.11
-0.112
-0.119
-0.12
-0.1025
-0.1055
-0.1155
-0.1255
-0.118
-0.1045
-0.1045
-0.1015
-0.1065
-0.115
-0.11
-0.104
-0.106
-0.106
-0.106
-0.115
-0.1235
-0.1195
-0.1105
-0.109
-0.1125
-0.11
-0.11
-0.113
-0.1125
-0.114
-0.111
-0.1075
-0.1005
-0.098
-0.1075
-0.1135
-0.1135
-0.113
-0.112
-0.087
-0.09
-0.1185
-0.1155
-0.113
-0.11
-0.116
-0.12
-0.1065
-0.1065
-0.1125
-0.118
-0.1145
-0.107
-0.1105
-0.1135
-0.113
-0.1135
-0.1125
-0.114
-0.1115
-0.1075
-0.113
-0.1125
-0.109
-0.1095
-0.111
-0.1285
-0.141
-0.1265
-0.1145
-0.115
-0.1125
-0.114
-0.1155
-0.117
-0.1115
-0.106
-0.1155
-0.129
-0.1365
-0.1255
-0.114
-0.114
-0.1115
-0.111
-0.11
-0.108
-0.114
-0.121
-0.1125
-0.1025
-0.114
-0.126
-0.1205
-0.1155
-0.1165
-0.117
-0.1205
-0.123
-0.116
-0.1135
-0.1115
-0.111
-0.121
-0.1195
-0.115
-0.118
-0.119
-0.116
-0.1135
-0.11
-0.103
-0.0995
-0.1175
-0.1245
-0.113
-0.1165
-0.12
-0.117
-0.1125
-0.109
-0.113
-0.124
-0.125
-0.1195
-0.1235
-0.127
-0.1185
-0.1135
-0.1135
-0.114
-0.122
-0.1175
-0.12
-0.1255
-0.1175
-0.12
-0.119
-0.1155
-0.1135
-0.113
-0.114
-0.113
-0.1215
-0.1175
-0.115
-0.1215
-0.118
-0.115
-0.12
-0.125
-0.126
-0.1265
-0.1265
-0.127
-0.1295
-0.1335
-0.1295
-0.1235
-0.121
-0.118
-0.126
-0.1365
-0.134
-0.126
-0.124
-0.1215
-0.112
-0.11
-0.1125
-0.118
-0.128
-0.1225
-0.1185
-0.1215
-0.1205
-0.13
-0.128
-0.1185
-0.1195
-0.1255
-0.1445
-0.1415
-0.126
-0.123
-0.1265
-0.129
-0.1275
-0.132
-0.1285
-0.123
-0.126
-0.132
-0.1315
-0.1245
-0.12
-0.124
-0.127
-0.127
-0.1315
-0.1315
-0.131
-0.1275
-0.1245
-0.1235
-0.121
-0.123
-0.124
-0.123
-0.1245
-0.124
-0.1215
-0.12
-0.117
-0.119
-0.1175
-0.121
-0.133
-0.1325
-0.1335
-0.1335
-0.128
-0.1265
-0.1255
-0.1225
-0.129
-0.1315
-0.1355
-0.1395
-0.1325
-0.127
-0.121
-0.1205
-0.131
-0.141
-0.1385
-0.1365
-0.126
-0.126
-0.1305
-0.1195
-0.1205
-0.1265
-0.127
-0.1255
-0.1285
-0.1285
-0.125
-0.1295
-0.128
-0.124
-0.1225
-0.12
-0.1205
-0.126
-0.126
-0.1295
-0.1305
-0.1335
-0.1465
-0.1395
-0.1265
-0.1285
-0.132
-0.1295
-0.132
-0.133
-0.13
-0.127
-0.123
-0.1245
-0.121
-0.1185
-0.1275
-0.1295
-0.1295
-0.141
-0.1365
-0.127
-0.126
-0.12
-0.123
-0.126
-0.123
-0.1215
-0.119
-0.1225
-0.123
-0.1245
-0.125
-0.123
-0.123
-0.12
-0.122
-0.122
-0.1205
-0.1165
-0.115
-0.1215
-0.1325
-0.134
-0.123
-0.126
-0.1265
-0.13
-0.1365
-0.1295
-0.1215
-0.1135
-0.115
-0.1165
-0.126
-0.13
-0.124
-0.127
-0.1245
-0.1225
-0.12
-0.12
-0.1255
-0.1315
-0.1355
-0.142
-0.145
-0.13
-0.1235
-0.126
-0.126
-0.1335
-0.132
-0.1305
-0.1325
-0.1255
-0.119
-0.117
-0.1225
-0.1255
-0.1245
-0.1315
-0.1335
-0.132
-0.132
-0.1255
-0.125
-0.124
-0.123
-0.1225
-0.12
-0.1295
-0.1345
-0.1315
-0.129
-0.123
-0.122
-0.1275
-0.13
-0.1275
-0.126
-0.1265
-0.1265
-0.13
-0.13
-0.1305
-0.13
-0.124
-0.1225
-0.12
-0.1195
-0.122
-0.122
-0.119
-0.1165
-0.118
-0.1195
-0.119
-0.116
-0.1175
-0.119
-0.1165
-0.118
-0.1205
-0.123
-0.1205
-0.121
-0.1215
-0.1185
-0.1135
-0.1135
-0.116
-0.1175
-0.1175
-0.107
-0.1045
-0.109
-0.115
-0.117
-0.116
-0.119
-0.1185
-0.1185
-0.1265
-0.1315
-0.1245
-0.119
-0.1165
-0.1125
-0.114
-0.117
-0.113
-0.115
-0.113
-0.1055
-0.109
-0.1075
-0.102
-0.101
-0.106
-0.114
-0.1155
-0.11
-0.1015
-0.1025
-0.0995
-0.0835
-0.076
-0.0755
-0.0795
-0.0825
-0.077
-0.069
-0.0625
-0.0575
-0.059
-0.0645
-0.067
-0.0675
-0.0625
-0.068
-0.0665
-0.051
-0.05
-0.0485
-0.042
-0.0375
-0.038
-0.04
-0.0435
-0.047
-0.048
-0.0565
-0.059
-0.057
-0.055
-0.0495
-0.0545
-0.053
-0.045
-0.0455
-0.0465
-0.0485
-0.0405
-0.0315
-0.0305
-0.028
-0.0245
-0.0235
-0.021
-0.0205
-0.025
-0.026
-0.026
-0.0235
-0.025
-0.0345
-0.04
-0.0375
-0.035
-0.043
-0.047
-0.049
-0.0555
-0.0595
-0.064
-0.065
-0.0665
-0.0765
-0.079
-0.074
-0.081
-0.0925
-0.1065
-0.1125
-0.112
-0.1165
-0.1195
-0.115
-0.1165
-0.1285
-0.1295
-0.131
-0.1335
-0.13
-0.129
-0.136
-0.14
-0.131
-0.1275
-0.1325
-0.1345
-0.1325
-0.1295
-0.129
-0.13
-0.1285
-0.1265
-0.1275
-0.1285
-0.1335
-0.141
-0.139
-0.13
-0.126
-0.127
-0.1265
-0.122
-0.1195
-0.113
-0.1115
-0.1235
-0.14
-0.142
-0.143
-0.1445
-0.13
-0.126
-0.1345
-0.1495
-0.153
-0.145
-0.142
-0.139
-0.135
-0.1335
-0.1365
-0.1345
-0.1335
-0.1335
-0.1335
-0.132
-0.124
-0.1205
-0.1195
-0.1205
-0.1245
-0.131
-0.1355
-0.1395
-0.1465
-0.141
-0.136
-0.1485
-0.1535
-0.1545
-0.152
-0.141
-0.132
-0.12
-0.11
-0.0925
-0.0735
-0.045
-0.01
0.019
0.059
0.095
0.1385
0.176
0.214
0.2665
0.3125
0.3575
0.3895
0.409
0.429
0.4485
0.4335
0.4065
0.3805
0.344
0.3035
0.27
0.259
0.244
0.239
0.229
0.1925
0.159
0.106
0.037
-0.0125
-0.0525
-0.086
-0.111
-0.131
-0.149
-0.1745
-0.1995
-0.2085
-0.215
-0.2155
-0.2075
-0.1965
-0.1775
-0.1655
-0.1655
-0.1665
-0.1645
-0.161
-0.155
-0.148
-0.1475
-0.1575
-0.1535
-0.146
-0.149
-0.151
-0.1485
-0.141
-0.1355
-0.1315
-0.1405
-0.148
-0.144
-0.1435
-0.1475
-0.1445
-0.142
-0.145
-0.144
-0.143
-0.1425
-0.1405
-0.14
-0.1405
-0.14
-0.14
-0.139
-0.1365
-0.1375
-0.135
-0.1335
-0.1385
-0.1395
-0.138
-0.137
-0.137
-0.138
-0.1375
-0.1345
-0.136
-0.141
-0.133
-0.1265
-0.1365
-0.1385
-0.1345
-0.1355
-0.137
-0.138
-0.132
-0.1275
-0.1335
-0.137
-0.1385
-0.1415
-0.1365
-0.137
-0.139
-0.1335
-0.129
-0.125
-0.125
-0.13
-0.134
-0.1275
-0.12
-0.123
-0.1295
-0.131
-0.1295
-0.1345
-0.131
-0.124
-0.1285
-0.132
-0.1265
-0.126
-0.1275
-0.1265
-0.128
-0.1295
-0.128
-0.131
-0.1345
-0.132
-0.1325
-0.1335
-0.1265
-0.121
-0.1185
-0.1135
-0.121
-0.1285
-0.1255
-0.1235
-0.113
-0.114
-0.133
-0.135
-0.1265
-0.1225
-0.121
-0.126
-0.1275
-0.1365
-0.143
-0.123
-0.1135
-0.1245
-0.126
-0.1215
-0.1195
-0.124
-0.127
-0.123
-0.1225
-0.1235
-0.1235
-0.1245
-0.124
-0.126
-0.1215
-0.119
-0.118
-0.115
-0.1195
-0.1235
-0.1245
-0.123
-0.123
-0.117
-0.1145
-0.117
-0.1115
-0.1115
-0.115
-0.1155
-0.1125
-0.114
-0.116
-0.1175
-0.1185
-0.113
-0.111
-0.1045
-0.104
-0.106
-0.102
-0.106
-0.109
-0.1065
-0.105
-0.103
-0.1025
-0.1045
-0.1005
-0.0985
-0.094
-0.099
-0.113
-0.107
-0.1035
-0.099
-0.0975
-0.0995
-0.098
-0.102
-0.102
-0.0975
-0.093
-0.0925
-0.0925
-0.091
-0.0865
-0.0885
-0.0945
-0.1015
-0.1065
-0.0975
-0.092
-0.0885
-0.092
-0.0975
-0.094
-0.0975
-0.0985
-0.0955
-0.0975
-0.097
-0.0945
-0.093
-0.0915
-0.0875
-0.094
-0.097
-0.0905
-0.104
-0.112
-0.1095
-0.105
-0.103
-0.0995
-0.097
-0.102
-0.1005
-0.0985
-0.0925
-0.081
-0.0595
-0.0645
-0.0975
-0.119
-0.115
-0.1015
-0.0965
-0.1085
-0.1225
-0.111
-0.104
-0.1015
-0.0985
-0.0965
-0.094
-0.097
-0.095
-0.102
-0.115
-0.115
-0.1
-0.0885
-0.0915
-0.0885
-0.0965
-0.1075
-0.1035
-0.105
-0.1085
-0.115
-0.118
-0.1215
-0.12
-0.113
-0.111
-0.1075
-0.1155
-0.126
-0.1125
-0.1015
-0.1165
-0.117
-0.1075
-0.116
-0.114
-0.1135
-0.123
-0.1225
-0.113
-0.099
-0.0975
-0.1015
-0.1035
-0.1045
-0.1045
-0.1065
-0.1055
-0.108
-0.1125
-0.113
-0.112
-0.1135
-0.1105
-0.11
-0.1135
-0.1085
-0.1045
-0.103
-0.1035
-0.1155
-0.123
-0.1155
-0.11
-0.1085
-0.111
-0.115
-0.1135
-0.116
-0.119
-0.1155
-0.114
-0.1125
-0.108
-0.1125
-0.115
-0.1225
-0.1225
-0.1045
-0.1075
-0.1135
-0.112
-0.1155
-0.117
-0.115
-0.1125
-0.111
-0.106
-0.102
-0.107
-0.106
-0.1095
-0.123
