ECG
0.031
0.029
0.03
0.0275
0.0295
0.033
0.0345
0.0355
0.034
0.0315
0.033
0.0345
0.033
0.0355
0.0365
0.036
0.0385
0.039
0.043
0.044
0.042
0.0415
0.04
0.038
0.0355
0.0415
0.0415
0.041
0.039
0.0365
0.0365
0.036
0.0375
0.035
0.0385
0.038
0.035
0.0355
0.0345
0.0355
0.0345
0.038
0.0405
0.039
0.0395
0.038
0.0395
0.0415
0.043
0.0455
0.045
0.0395
0.0405
0.048
0.0485
0.0485
0.0465
0.045
0.045
0.0465
0.0485
0.0495
0.0515
0.0525
0.0575
0.0565
0.056
0.0585
0.06
0.0635
0.061
0.0585
0.059
0.066
0.07
0.068
0.0695
0.0675
0.068
0.0715
0.073
0.077
0.079
0.0755
0.071
0.071
0.0745
0.0785
0.0835
0.083
0.08
0.0795
0.084
0.0895
0.09
0.092
0.094
0.0925
0.0925
0.096
0.099
0.096
0.095
0.099
0.1005
0.1025
0.1005
0.1015
0.1055
0.1035
0.103
0.1025
0.106
0.1125
0.112
0.109
0.1115
0.1135
0.1145
0.1155
0.1175
0.1165
0.112
0.109
0.109
0.1115
0.1105
0.1095
0.11
0.107
0.1105
0.1135
0.1135
0.117
0.1165
0.115
0.119
0.122
0.117
0.116
0.118
0.12
0.121
0.118
0.117
0.1175
0.1165
0.114
0.1125
0.1125
0.1125
0.108
0.106
0.1055
0.1025
0.1025
0.1015
0.1
0.098
0.097
0.0995
0.0955
0.087
0.08
0.0795
0.08
0.077
0.071
0.0655
0.067
0.0635
0.059
0.0625
0.062
0.059
0.059
0.0625
0.06
0.0515
0.046
0.039
0.038
0.037
0.0335
0.032
0.0295
0.027
0.0245
0.0235
0.024
0.0225
0.022
0.0205
0.022
0.025
0.023
0.021
0.022
0.019
0.015
0.0135
0.0135
0.0145
0.0085
0.005
0.0065
0.0045
0.0045
0.0065
0.003
-0.003
-0.0065
-0.006
-0.004
-0.0085
-0.0075
-0.002
-0.006
-0.0055
-0.0035
-0.006
-0.0035
-0.0035
-0.0085
-0.0115
-0.0085
-0.0055
-0.009
-0.012
-0.0105
-0.0095
-0.0085
-0.0105
-0.013
-0.0115
-0.0095
-0.0075
-0.0105
-0.0135
-0.01
-0.0065
-0.006
-0.0085
-0.014
-0.013
-0.014
-0.0165
-0.017
-0.0195
-0.022
-0.023
-0.0285
-0.0295
-0.025
-0.0215
-0.021
-0.026
-0.028
-0.0265
-0.023
-0.023
-0.028
-0.032
-0.0375
-0.0385
-0.035
-0.0325
-0.0315
-0.0335
-0.0335
-0.0355
-0.0355
-0.034
-0.037
-0.037
-0.0355
-0.031
-0.0315
-0.033
-0.0315
-0.0315
-0.028
-0.0255
-0.0275
-0.0305
-0.0275
-0.03
-0.034
-0.033
-0.0335
-0.033
-0.03
-0.026
-0.0255
-0.0255
-0.0275
-0.0285
-0.024
-0.021
-0.0185
-0.017
-0.0195
-0.021
-0.0255
-0.027
-0.026
-0.0265
-0.023
-0.0225
-0.023
-0.022
-0.0195
-0.017
-0.0165
-0.0165
-0.0165
-0.017
-0.02
-0.0225
-0.0255
-0.025
-0.0215
-0.0195
-0.0185
-0.0185
-0.02
-0.02
-0.0175
-0.0185
-0.0205
-0.0205
-0.022
-0.0215
-0.0165
-0.015
-0.016
-0.016
-0.018
-0.0205
-0.019
-0.0185
-0.0185
-0.0165
-0.0195
-0.02
-0.016
-0.014
-0.0185
-0.0195
-0.0195
-0.0195
-0.0165
-0.017
-0.016
-0.017
-0.022
-0.0225
-0.022
-0.0215
-0.02
-0.0195
-0.017
-0.0165
-0.02
-0.0235
-0.0295
-0.0295
-0.0225
-0.0175
-0.016
-0.0195
-0.022
-0.021
-0.017
-0.0125
-0.0125
-0.016
-0.0195
-0.0205
-0.0195
-0.0215
-0.018
-0.0155
-0.0195
-0.0155
-0.0145
-0.013
-0.0115
-0.0185
-0.0225
-0.0255
-0.0295
-0.024
-0.0245
-0.0275
-0.022
-0.017
-0.0135
-0.024
-0.033
-0.0345
-0.037
-0.033
-0.034
-0.0375
-0.038
-0.0375
-0.035
-0.035
-0.0355
-0.0345
-0.0325
-0.0345
-0.0345
-0.033
-0.0345
-0.0345
-0.034
-0.034
-0.0325
-0.033
-0.0335
-0.0345
-0.0375
-0.037
-0.039
-0.0355
-0.035
-0.0385
-0.0375
-0.0415
-0.042
-0.041
-0.0425
-0.0405
-0.0385
-0.0395
-0.039
-0.037
-0.0345
-0.033
-0.0335
-0.0365
-0.037
-0.037
-0.0345
-0.0335
-0.039
-0.039
-0.0355
-0.0355
-0.037
-0.0405
-0.0405
-0.037
-0.0375
-0.0375
-0.038
-0.04
-0.039
-0.0405
-0.042
-0.0415
-0.044
-0.0475
-0.0455
-0.044
-0.0435
-0.0455
-0.048
-0.0475
-0.048
-0.045
-0.0405
-0.0405
-0.0405
-0.04
-0.0405
-0.04
-0.041
-0.042
-0.0425
-0.0455
-0.048
-0.0445
-0.042
-0.044
-0.0425
-0.0415
-0.042
-0.041
-0.0425
-0.045
-0.0485
-0.0505
-0.0505
-0.047
-0.0465
-0.048
-0.0445
-0.042
-0.04
-0.0405
-0.043
-0.044
-0.043
-0.0435
-0.045
-0.044
-0.0465
-0.0465
-0.046
-0.049
-0.0475
-0.046
-0.0445
-0.043
-0.0465
-0.0445
-0.042
-0.041
-0.0405
-0.043
-0.043
-0.0475
-0.0505
-0.051
-0.05
-0.049
-0.049
-0.0465
-0.044
-0.041
-0.04
-0.042
-0.044
-0.047
-0.0455
-0.0455
-0.0465
-0.0435
-0.046
-0.0445
-0.046
-0.0465
-0.045
-0.0525
-0.0535
-0.0485
-0.045
-0.047
-0.0485
-0.0475
-0.044
-0.045
-0.048
-0.048
-0.0505
-0.0475
-0.047
-0.047
-0.048
-0.051
-0.05
-0.05
-0.051
-0.0535
-0.054
-0.0505
-0.0515
-0.048
-0.0475
-0.0515
-0.0495
-0.0475
-0.045
-0.047
-0.046
-0.046
-0.049
-0.0475
-0.046
-0.0455
-0.0445
-0.0435
-0.0455
-0.0445
-0.044
-0.044
-0.045
-0.048
-0.047
-0.049
-0.0495
-0.049
-0.0485
-0.0475
-0.0455
-0.0445
-0.047
-0.0475
-0.0465
-0.0445
-0.0465
-0.0475
-0.0485
-0.05
-0.0505
-0.0505
-0.049
-0.049
-0.0495
-0.049
-0.0445
-0.0455
-0.047
-0.0435
-0.046
-0.0495
-0.0505
-0.0505
-0.05
-0.051
-0.0555
-0.0565
-0.054
-0.0555
-0.056
-0.053
-0.052
-0.0505
-0.047
-0.0475
-0.0475
-0.041
-0.0375
-0.036
-0.038
-0.042
-0.04
-0.039
-0.04
-0.0425
-0.0465
-0.0475
-0.046
-0.047
-0.0475
-0.043
-0.043
-0.042
-0.0405
-0.039
-0.0355
-0.0315
-0.03
-0.028
-0.024
-0.0235
-0.022
-0.0195
-0.0175
-0.016
-0.016
-0.0175
-0.0205
-0.019
-0.014
-0.0095
-0.0085
-0.004
0.001
-0.001
-0.002
-0.0015
-0.002
0.0035
0.0075
0.0075
0.01
0.013
0.013
0.013
0.011
0.0065
0.006
0.007
0.007
0.001
-0.005
-0.0075
-0.0115
-0.0135
-0.0125
-0.0105
-0.0115
-0.014
-0.015
-0.0135
-0.015
-0.02
-0.0275
-0.0335
-0.033
-0.0335
-0.037
-0.038
-0.0435
-0.048
-0.05
-0.052
-0.0565
-0.0585
-0.0495
-0.0485
-0.05
-0.0535
-0.0585
-0.0605
-0.063
-0.061
-0.0605
-0.06
-0.0585
-0.0565
-0.058
-0.0575
-0.0545
-0.0555
-0.0555
-0.0585
-0.061
-0.0605
-0.0625
-0.0635
-0.065
-0.0635
-0.062
-0.0635
-0.061
-0.0585
-0.0605
-0.063
-0.065
-0.066
-0.0645
-0.0635
-0.0635
-0.066
-0.068
-0.07
-0.0735
-0.0715
-0.0705
-0.071
-0.071
-0.069
-0.068
-0.065
-0.06
-0.054
-0.047
-0.0475
-0.047
-0.049
-0.055
-0.0605
-0.0635
-0.055
-0.0425
-0.028
-0.012
0.003
0.023
0.045
0.0675
0.092
0.125
0.1715
0.212
0.2345
0.2525
0.276
0.3015
0.3395
0.383
0.412
0.445
0.4715
0.494
0.5195
0.5385
0.552
0.5545
0.555
0.535
0.51
0.485
0.4415
0.4005
0.358
0.3105
0.2545
0.1965
0.147
0.106
0.064
0.0245
-0.008
-0.027
-0.017
-0.0145
-0.0225
-0.028
-0.038
-0.038
-0.045
-0.054
-0.0575
-0.0605
-0.0615
-0.066
-0.069
-0.071
-0.0745
-0.0745
-0.0755
-0.074
-0.0725
-0.075
-0.0735
-0.0755
-0.0725
-0.064
-0.062
-0.0595
-0.054
-0.0495
-0.049
-0.0485
-0.047
-0.047
-0.0485
-0.0505
-0.051
-0.0495
-0.049
-0.0505
-0.0525
-0.0545
-0.054
-0.053
-0.052
-0.049
-0.0475
-0.05
-0.05
-0.0515
-0.0535
-0.0495
-0.0475
-0.047
-0.047
-0.0515
-0.0505
-0.0495
-0.0505
-0.0505
-0.052
-0.049
-0.047
-0.0455
-0.0465
-0.045
-0.043
-0.045
-0.0455
-0.047
-0.0475
-0.0455
-0.042
-0.041
-0.038
-0.0405
-0.0455
-0.0475
-0.0495
-0.048
-0.045
-0.0425
-0.0445
-0.0465
-0.047
-0.0475
-0.044
-0.0435
-0.044
-0.0435
-0.044
-0.0435
-0.043
-0.041
-0.0385
-0.0405
-0.0415
-0.042
-0.043
-0.0435
-0.0475
-0.05
-0.05
-0.0505
-0.0495
-0.0485
-0.0505
-0.0515
-0.049
-0.0465
-0.0445
-0.043
-0.041
-0.04
-0.037
-0.0385
-0.0445
-0.0395
-0.038
-0.0405
-0.04
-0.0445
-0.0455
-0.0435
-0.045
-0.04
-0.04
-0.041
-0.0405
-0.04
-0.037
-0.04
-0.039
-0.037
-0.0395
-0.04
-0.0415
-0.0405
-0.04
-0.042
-0.0425
-0.0425
-0.0405
-0.038
-0.0365
-0.037
-0.036
-0.0355
-0.0345
-0.0325
-0.0285
-0.027
-0.03
-0.03
-0.0335
-0.037
-0.0355
-0.031
-0.0255
-0.023
-0.0175
-0.017
-0.0225
-0.023
-0.0195
-0.0165
-0.018
-0.021
-0.02
-0.02
-0.02
-0.019
-0.0245
-0.027
-0.0265
-0.0255
-0.0225
-0.0195
-0.0195
-0.022
-0.016
-0.014
-0.0145
-0.013
-0.0125
-0.0095
-0.006
-0.0055
-0.005
-0.003
-0.0005
0.0035
0.0055
0.0025
0.0015
-0.0005
-0.0005
0.0015
0.001
0.0035
0.005
0.0055
0.0045
0.0065
0.0085
0.009
0.0135
0.015
0.0165
0.0205
0.021
0.022
0.0225
0.0225
0.0235
0.022
0.024
0.025
0.0295
0.0345
0.031
0.0305
0.0315
0.032
0.033
0.038
0.0465
0.0495
0.0515
0.0495
0.045
0.0475
0.054
0.0585
0.06
0.0565
0.054
0.0535
0.055
0.0565
0.056
0.056
0.0555
0.0535
0.053
0.058
0.0585
0.056
0.0545
0.053
0.055
0.0575
0.06
0.0625
0.0625
0.0625
0.0585
0.0525
0.054
0.0575
0.058
0.057
0.053
0.0475
0.045
0.047
0.05
0.0495
0.046
0.0455
0.044
0.0425
0.044
0.0455
0.045
0.042
0.041
0.039
0.035
0.0315
0.0255
0.024
0.025
0.023
0.024
0.0245
0.021
0.0185
0.017
0.015
0.01
0.007
0.005
0.0055
0.0045
-0.0015
-0.0015
0.002
-0.0015
-0.0105
-0.0145
-0.0125
-0.014
-0.0165
-0.0175
-0.0195
-0.019
-0.02
-0.024
-0.026
-0.0265
-0.0255
-0.0255
-0.029
-0.032
-0.0325
-0.0355
-0.036
-0.0355
-0.0385
-0.0415
-0.043
-0.0425
-0.0445
-0.047
-0.046
-0.043
-0.0415
-0.0435
-0.0435
-0.0415
-0.0405
-0.04
-0.04
-0.04
-0.043
-0.0465
-0.0465
-0.0465
-0.0445
-0.041
-0.037
-0.039
-0.0425
-0.0425
-0.0385
-0.0335
-0.033
-0.0365
-0.037
-0.037
-0.042
-0.049
-0.0505
-0.046
-0.046
-0.0465
-0.043
-0.0435
-0.046
-0.0435
-0.044
-0.0465
-0.047
-0.049
-0.049
-0.048
-0.0475
-0.0485
-0.047
-0.0465
-0.0445
-0.044
-0.049
-0.0495
-0.0495
-0.051
-0.0525
-0.047
-0.046
-0.049
-0.0495
-0.0555
-0.056
-0.055
-0.0575
-0.053
-0.051
-0.0495
-0.0495
-0.053
-0.0475
-0.0455
-0.048
-0.0515
-0.056
-0.0565
-0.057
-0.0595
-0.06
-0.0565
-0.0575
-0.057
-0.0585
-0.061
-0.058
-0.057
-0.057
-0.06
-0.0605
-0.0595
-0.06
-0.0595
-0.0545
-0.055
-0.0605
-0.0605
-0.06
-0.0595
-0.0615
-0.0615
-0.0575
-0.0555
-0.057
-0.0535
-0.049
-0.0505
-0.053
-0.0535
-0.0515
-0.05
-0.0505
-0.0505
-0.0525
-0.0545
-0.056
-0.0545
-0.053
-0.056
-0.056
-0.055
-0.054
-0.0525
-0.0505
-0.053
-0.054
-0.05
-0.0525
-0.052
-0.0485
-0.047
-0.044
-0.047
-0.0495
-0.048
-0.048
-0.047
-0.047
-0.0475
-0.047
-0.046
-0.0445
-0.051
-0.057
-0.056
-0.055
-0.0555
-0.057
-0.0535
-0.0545
-0.0575
-0.053
-0.054
-0.0535
-0.0505
-0.0505
-0.0505
-0.0545
-0.0565
-0.055
-0.054
-0.055
-0.0575
-0.0575
-0.0575
-0.053
-0.054
-0.0535
-0.0535
-0.056
-0.0495
-0.048
-0.047
-0.045
-0.0435
-0.0455
-0.047
-0.048
-0.052
-0.0535
-0.055
-0.0555
-0.053
-0.051
-0.0505
-0.05
-0.0495
-0.0495
-0.047
-0.049
-0.0545
-0.053
-0.0495
-0.0505
-0.053
-0.052
-0.0505
-0.048
-0.0505
-0.054
-0.054
-0.057
-0.0555
-0.0545
-0.0535
-0.0505
-0.053
-0.0545
-0.054
-0.0525
-0.0505
-0.05
-0.0475
-0.049
-0.051
-0.049
-0.0505
-0.0525
-0.0505
-0.0495
-0.0505
-0.052
-0.0495
-0.048
-0.0505
-0.0525
-0.0545
-0.057
-0.0575
-0.0585
-0.063
-0.062
-0.058
-0.062
-0.064
-0.065
-0.065
-0.064
-0.063
-0.06
-0.0595
-0.0575
-0.057
-0.0565
-0.056
-0.0585
-0.0595
-0.0565
-0.0525
-0.053
-0.054
-0.054
-0.0545
-0.0565
-0.057
-0.0575
-0.056
-0.054
-0.054
-0.054
-0.0545
-0.055
-0.0575
-0.056
-0.0565
-0.055
-0.05
-0.0525
-0.0565
-0.059
-0.062
-0.063
-0.0655
-0.0675
-0.065
-0.0635
-0.063
-0.063
-0.0645
-0.063
-0.0615
-0.0625
-0.063
-0.064
-0.0625
-0.0605
-0.061
-0.0605
-0.0605
-0.061
-0.0615
-0.062
-0.061
-0.058
-0.0595
-0.061
-0.061
-0.06
-0.057
-0.0575
-0.057
-0.059
-0.0625
-0.064
-0.063
-0.0615
-0.056
-0.0515
-0.054
-0.055
-0.058
-0.056
-0.0545
-0.0555
-0.0525
-0.0535
-0.056
-0.0565
-0.057
-0.0555
-0.0555
-0.0575
-0.061
-0.06
-0.0585
-0.057
-0.055
-0.061
-0.0615
-0.0595
-0.06
-0.0585
-0.057
-0.059
-0.0585
-0.0565
-0.0585
-0.06
-0.0605
-0.0615
-0.0595
-0.0585
-0.0625
-0.0635
-0.0635
-0.064
-0.061
-0.06
-0.063
-0.065
-0.07
-0.071
-0.0675
-0.0695
-0.071
-0.0715
-0.071
-0.0705
-0.0725
-0.0715
-0.071
-0.076
-0.077
-0.0745
-0.0715
-0.07
-0.0725
-0.0725
-0.0705
-0.071
-0.0695
-0.068
-0.0675
-0.066
-0.065
-0.067
-0.0695
-0.069
-0.0685
-0.068
-0.067
-0.0675
-0.0665
-0.0635
-0.064
-0.0625
-0.0605
-0.0575
-0.059
-0.0585
-0.057
-0.0565
-0.0515
-0.053
-0.0515
-0.0505
-0.05
-0.0455
-0.0445
-0.0485
-0.0555
-0.062
-0.0615
-0.06
-0.059
-0.0565
-0.059
-0.061
-0.0635
-0.0635
-0.059
-0.0565
-0.056
-0.054
-0.0495
-0.0505
-0.0535
-0.0545
-0.0525
-0.0505
-0.051
-0.052
-0.0515
-0.051
-0.0515
-0.0495
-0.049
-0.049
-0.052
-0.054
-0.054
-0.052
-0.0475
-0.047
-0.044
-0.0395
-0.04
-0.04
-0.0355
-0.0315
-0.031
-0.029
-0.0275
-0.029
-0.03
-0.027
-0.0265
-0.0265
-0.0265
-0.024
-0.019
-0.015
-0.009
-0.005
-0.006
-0.005
-0.002
-0.0005
-0.0015
-0.003
0.0035
0.0035
0.0005
0.0035
0.006
0.0025
0.0
0.0005
-0.0015
-0.002
-0.006
-0.008
-0.0055
-0.008
-0.012
-0.0125
-0.014
-0.0195
-0.024
-0.0275
-0.032
-0.037
-0.0405
-0.043
-0.0455
-0.0465
-0.0435
-0.045
-0.05
-0.0515
-0.0535
-0.054
-0.056
-0.059
-0.06
-0.064
-0.0635
-0.0635
-0.065
-0.066
-0.067
-0.0675
-0.069
-0.072
-0.0745
-0.0715
-0.066
-0.0645
-0.068
-0.0695
-0.07
-0.073
-0.072
-0.072
-0.0765
-0.0785
-0.0795
-0.081
-0.082
-0.0835
-0.0845
-0.0845
-0.0845
-0.0845
-0.085
-0.084
-0.0825
-0.08
-0.078
-0.078
-0.0775
-0.078
-0.0765
-0.074
-0.074
-0.0755
-0.0775
-0.0765
-0.0765
-0.0765
-0.074
-0.0715
-0.065
-0.0565
-0.0555
-0.0565
-0.054
-0.0565
-0.0645
-0.0665
-0.062
-0.0505
-0.0385
-0.024
-0.003
0.0085
0.029
0.0515
0.07
0.1025
0.1495
0.1955
0.226
0.2455
0.2705
0.3035
0.341
0.39
0.428
0.4555
0.4825
0.5065
0.533
0.558
0.572
0.574
0.568
0.548
0.519
0.4855
0.444
0.394
0.343
0.2885
0.2315
0.1825
0.135
0.088
0.0395
-0.003
-0.0355
-0.055
-0.048
-0.045
-0.0555
-0.063
-0.0715
-0.0775
-0.079
-0.084
-0.092
-0.099
-0.0995
-0.098
-0.1
-0.102
-0.0985
-0.087
-0.0815
-0.0845
-0.086
-0.0855
-0.0825
-0.079
-0.0795
-0.082
-0.0805
-0.0745
-0.068
-0.0675
-0.071
-0.0735
-0.0755
-0.0745
-0.0735
-0.0745
-0.0755
-0.0775
-0.078
-0.0765
-0.0745
-0.074
-0.072
-0.0705
-0.0705
-0.071
-0.073
-0.074
-0.0735
-0.072
-0.071
-0.0735
-0.0755
-0.075
-0.0745
-0.073
-0.071
-0.0725
-0.0745
-0.074
-0.072
-0.071
-0.07
-0.068
-0.0665
-0.069
-0.073
-0.073
-0.07
-0.0705
-0.0715
-0.071
-0.071
-0.0685
-0.067
-0.0675
-0.0685
-0.0695
-0.071
-0.071
-0.072
-0.0735
-0.072
-0.072
-0.071
-0.07
-0.071
-0.072
-0.073
-0.0745
-0.07
-0.0675
-0.0705
-0.0715
-0.072
-0.069
-0.0685
-0.0695
-0.0665
-0.0655
-0.066
-0.0655
-0.066
-0.0675
-0.0645
-0.064
-0.0665
-0.063
-0.0615
-0.0625
-0.0605
-0.0595
-0.061
-0.0635
-0.065
-0.07
-0.0715
-0.0675
-0.066
-0.063
-0.064
-0.0635
-0.061
-0.061
-0.059
-0.059
-0.062
-0.061
-0.06
-0.0585
-0.0565
-0.057
-0.058
-0.058
-0.0575
-0.055
-0.054
-0.058
-0.0575
-0.0575
-0.0555
-0.054
-0.056
-0.0545
-0.052
-0.0525
-0.054
-0.0525
-0.052
-0.0515
-0.0495
-0.049
-0.048
-0.0465
-0.0495
-0.0505
-0.0495
-0.046
-0.0435
-0.042
-0.0415
-0.0415
-0.04
-0.0375
-0.036
-0.0375
-0.037
-0.0365
-0.037
-0.036
-0.0355
-0.037
-0.0365
-0.038
-0.0385
-0.036
-0.036
-0.034
-0.032
-0.0275
-0.025
-0.0265
-0.0245
-0.021
-0.02
-0.0215
-0.025
-0.026
-0.022
-0.0225
-0.023
-0.017
-0.0145
-0.0125
-0.0075
-0.008
-0.0065
-0.0055
-0.0045
0.0
0.002
0.0045
0.0025
0.0005
0.003
0.0025
-0.001
0.002
0.007
0.0075
0.009
0.01
0.01
0.011
0.0125
0.0165
0.0205
0.022
0.0215
0.022
0.0225
0.0275
0.031
0.033
0.0365
0.0385
0.0415
0.0405
0.039
0.039
0.038
0.0345
0.0375
0.037
0.038
0.0435
0.043
0.047
0.0485
0.049
0.047
0.0455
0.048
0.0475
0.048
0.048
0.0465
0.045
0.0455
0.0455
0.045
0.048
0.052
0.05
0.0485
0.049
0.048
0.0495
0.052
0.0515
0.051
0.053
0.053
0.0545
0.054
0.0485
0.045
0.04
0.038
0.038
0.037
0.036
0.033
0.031
0.028
0.026
0.027
0.0275
0.022
0.0185
0.018
0.0155
0.014
0.011
0.0085
0.0055
0.001
0.0005
-0.0025
-0.006
-0.006
-0.0085
-0.013
-0.0155
-0.016
-0.0165
-0.0165
-0.017
-0.0155
-0.022
-0.0295
-0.0295
-0.033
-0.033
-0.0345
-0.037
-0.0395
-0.044
-0.045
-0.047
-0.047
-0.051
-0.0525
-0.054
-0.058
-0.0555
-0.0545
-0.0535
-0.056
-0.057
-0.058
-0.0605
-0.0615
-0.0635
-0.0615
-0.0615
-0.0605
-0.061
-0.06
-0.062
-0.0675
-0.0615
-0.0635
-0.0675
-0.067
-0.0675
-0.067
-0.0665
-0.068
-0.068
-0.0675
-0.0705
-0.0675
-0.0635
-0.066
-0.0695
-0.0685
-0.068
-0.0665
-0.066
-0.066
-0.0645
-0.0705
-0.071
-0.07
-0.0675
-0.066
-0.0705
-0.074
-0.0745
-0.0725
-0.0685
-0.066
-0.0665
-0.0685
-0.0705
-0.0705
-0.0735
-0.0745
-0.071
-0.0705
-0.07
-0.0685
-0.066
-0.0655
-0.0685
-0.0675
-0.0675
-0.0635
-0.061
-0.0645
-0.069
-0.066
-0.061
-0.064
-0.067
-0.0685
-0.0705
-0.071
-0.0685
-0.0695
-0.073
-0.0695
-0.064
-0.0635
-0.06
-0.0565
-0.056
-0.0545
-0.0555
-0.054
-0.0545
-0.0575
-0.0545
-0.055
-0.0565
-0.058
-0.062
-0.056
-0.0555
-0.0585
-0.057
-0.061
-0.064
-0.062
-0.061
-0.0605
-0.061
-0.0605
-0.058
-0.059
-0.0565
-0.053
-0.054
-0.0545
-0.0515
-0.0535
-0.0575
-0.0585
-0.063
-0.0625
-0.0565
-0.053
-0.051
-0.05
-0.0525
-0.051
-0.0505
-0.0545
-0.054
-0.0525
-0.0515
-0.0515
-0.05
-0.0515
-0.054
-0.052
-0.0515
-0.0505
-0.049
-0.05
-0.0515
-0.0505
-0.054
-0.056
-0.051
-0.05
-0.0505
-0.0495
-0.05
-0.054
-0.0535
-0.05
-0.0455
-0.0465
-0.0565
-0.0605
-0.0565
-0.057
-0.0575
-0.0555
-0.0575
-0.0525
-0.0515
-0.053
-0.0515
-0.0545
-0.0545
-0.0515
-0.05
-0.0515
-0.052
-0.054
-0.054
-0.051
-0.051
-0.053
-0.055
-0.0545
-0.055
-0.053
-0.053
-0.0555
-0.056
-0.053
-0.0525
-0.057
-0.053
-0.0545
-0.0555
-0.054
-0.053
-0.05
-0.0535
-0.0545
-0.053
-0.054
-0.054
-0.052
-0.0515
-0.056
-0.0555
-0.053
-0.0555
-0.0575
-0.0595
-0.061
-0.062
-0.061
-0.0575
-0.0575
-0.057
-0.0575
-0.06
-0.0615
-0.0625
-0.064
-0.067
-0.0655
-0.0615
-0.063
-0.0635
-0.0655
-0.07
-0.0705
-0.0715
-0.0685
-0.0625
-0.064
-0.0645
-0.07
-0.0725
-0.0635
-0.061
-0.059
-0.059
-0.0635
-0.064
-0.067
-0.066
-0.065
-0.0675
-0.068
-0.068
-0.07
-0.0705
-0.063
-0.0565
-0.06
-0.065
-0.066
-0.0675
-0.0675
-0.067
-0.0655
-0.066
-0.0675
-0.068
-0.066
-0.0635
-0.067
-0.0675
-0.0705
-0.072
-0.0655
-0.0635
-0.0645
-0.065
-0.067
-0.065
-0.0635
-0.0685
-0.0695
-0.0705
-0.067
-0.066
-0.067
-0.064
-0.0695
-0.0685
-0.0675
-0.0675
-0.067
-0.0705
-0.0695
-0.0675
-0.063
-0.0635
-0.0635
-0.065
-0.0685
-0.0645
-0.0675
-0.07
-0.0665
-0.0635
-0.0665
-0.0665
-0.064
-0.0635
-0.062
-0.066
-0.0675
-0.069
-0.07
-0.068
-0.068
-0.0655
-0.068
-0.069
-0.0655
-0.0655
-0.063
-0.0635
-0.064
-0.0645
-0.067
-0.0695
-0.0715
-0.074
-0.071
-0.0675
-0.073
-0.0765
-0.0725
-0.071
-0.0695
-0.064
-0.0635
-0.058
-0.06
-0.067
-0.068
-0.0705
-0.069
-0.073
-0.074
-0.068
-0.064
-0.0635
-0.065
-0.0665
-0.069
-0.0705
-0.071
-0.071
-0.071
-0.073
-0.0715
-0.0705
-0.0705
-0.0725
-0.0705
-0.064
-0.061
-0.06
-0.0635
-0.066
-0.065
-0.0675
-0.0695
-0.07
-0.0685
-0.067
-0.069
-0.07
-0.0705
-0.0675
-0.063
-0.065
-0.069
-0.0735
-0.074
-0.074
-0.073
-0.0755
-0.0795
-0.078
-0.0775
-0.075
-0.0775
-0.0785
-0.077
-0.0785
-0.076
-0.0735
-0.0725
-0.0695
-0.0665
-0.065
-0.071
-0.071
-0.0715
-0.0685
-0.0635
-0.066
-0.066
-0.0685
-0.0685
-0.064
-0.061
-0.06
-0.063
-0.0705
-0.0695
-0.066
-0.068
-0.067
-0.069
-0.067
-0.0565
-0.055
-0.0595
-0.0605
-0.063
-0.0645
-0.066
-0.065
-0.0615
-0.061
-0.0615
-0.0625
-0.066
-0.069
-0.0705
-0.0715
-0.07
-0.071
-0.072
-0.0665
-0.0635
-0.0655
-0.068
-0.067
-0.0685
-0.069
-0.0685
-0.0675
-0.064
-0.0695
-0.072
-0.07
-0.072
-0.0715
-0.0685
-0.064
-0.059
-0.0545
-0.054
-0.0545
-0.0535
-0.055
-0.0515
-0.045
-0.0435
-0.0435
-0.045
-0.046
-0.045
-0.0435
-0.0405
-0.0325
-0.029
-0.03
-0.0325
-0.0355
-0.0315
-0.0255
-0.0255
-0.028
-0.0255
-0.021
-0.015
-0.0115
-0.0095
-0.0115
-0.0165
-0.018
-0.021
-0.0225
-0.0195
-0.022
-0.0235
-0.024
-0.027
-0.0245
-0.023
-0.0265
-0.0315
-0.033
-0.038
-0.0405
-0.04
-0.0415
-0.047
-0.055
-0.057
-0.058
-0.0615
-0.0645
-0.0675
-0.0745
-0.0765
-0.077
-0.0775
-0.0805
-0.0845
-0.0815
-0.0805
-0.078
-0.0795
-0.0855
-0.088
-0.0945
-0.096
-0.0915
-0.0965
-0.0975
-0.099
-0.099
-0.093
-0.094
-0.0945
-0.0965
-0.0945
-0.0915
-0.094
-0.095
-0.091
-0.088
-0.0905
-0.091
-0.0905
-0.0895
-0.0915
-0.0955
-0.0955
-0.09
-0.088
-0.094
-0.095
-0.093
-0.089
-0.0895
-0.0935
-0.0975
-0.0985
-0.0925
-0.0965
-0.099
-0.098
-0.099
-0.0975
-0.097
-0.09
-0.084
-0.083
-0.081
-0.0715
-0.0695
-0.076
-0.081
-0.0905
-0.087
-0.08
-0.074
-0.0545
-0.0375
-0.0195
0.0025
0.0235
0.041
0.071
0.1155
0.164
0.2025
0.221
0.2485
0.281
0.322
0.376
0.418
0.45
0.4745
0.501
0.523
0.538
0.548
0.551
0.55
0.529
0.5035
0.473
0.427
0.378
0.3285
0.264
0.202
0.1575
0.108
0.0595
0.0125
-0.0315
-0.067
-0.0875
-0.0765
-0.0745
-0.0885
-0.0965
-0.1025
-0.1035
-0.1055
-0.1125
-0.12
-0.125
-0.1235
-0.1225
-0.1215
-0.1265
-0.1255
-0.114
-0.1115
-0.109
-0.1095
-0.1115
-0.107
-0.101
-0.0985
-0.096
-0.094
-0.093
-0.087
-0.083
-0.0755
-0.074
-0.074
-0.072
-0.0765
-0.078
-0.081
-0.079
-0.079
-0.08
-0.0775
-0.0785
-0.0765
-0.0775
-0.0755
-0.07
-0.0715
-0.076
-0.077
-0.071
-0.075
-0.076
-0.0725
-0.074
-0.0735
-0.0745
-0.072
-0.0705
-0.073
-0.076
-0.077
-0.0835
-0.077
-0.069
-0.0755
-0.076
-0.0765
-0.0705
-0.0715
-0.073
-0.067
-0.067
-0.0685
-0.0735
-0.076
-0.076
-0.078
-0.078
-0.076
-0.0745
-0.0735
-0.074
-0.0725
-0.071
-0.07
-0.068
-0.071
-0.071
-0.0685
-0.069
-0.0675
-0.067
-0.069
-0.074
-0.0775
-0.079
-0.076
-0.071
-0.072
-0.0755
-0.075
-0.0775
-0.078
-0.074
-0.075
-0.0735
-0.0705
-0.0705
-0.071
-0.072
-0.0725
-0.068
-0.066
-0.0655
-0.063
-0.065
-0.0625
-0.0625
-0.0655
-0.067
-0.0695
-0.0665
-0.0675
-0.0685
-0.0635
-0.062
-0.0635
-0.0635
-0.0625
-0.0635
-0.0585
-0.0575
-0.0565
-0.06
-0.0635
-0.056
-0.0535
-0.0505
-0.0505
-0.0525
-0.054
-0.056
-0.0525
-0.0495
-0.0555
-0.06
-0.054
-0.0525
-0.0515
-0.051
-0.0495
-0.0435
-0.0405
-0.039
-0.04
-0.0415
-0.0425
-0.0485
-0.049
-0.046
-0.043
-0.043
-0.041
-0.0385
-0.039
-0.04
-0.0405
-0.035
-0.0325
-0.0325
-0.0295
-0.0275
-0.03
-0.035
-0.036
-0.0295
-0.0275
-0.0265
-0.028
-0.0295
-0.027
-0.027
-0.0285
-0.0255
-0.018
-0.0195
-0.021
-0.0165
-0.013
-0.0125
-0.0095
-0.0065
-0.0035
-0.0045
-0.006
-0.002
-0.0065
-0.0065
-0.0015
-0.0055
-0.0065
-0.001
0.0035
0.0025
0.0
0.0055
0.0115
0.0085
0.0075
0.014
0.0175
0.0195
0.022
0.021
0.024
0.0235
0.0215
0.0255
0.022
0.0195
0.025
0.026
0.025
0.0285
0.0355
0.036
0.035
0.0345
0.0375
0.042
0.0395
0.0425
0.0435
0.041
0.047
0.05
0.049
0.0495
0.0525
0.053
0.0505
0.0545
0.0605
0.0555
0.057
0.0565
0.049
0.0525
0.051
0.05
0.0545
0.053
0.0535
0.058
0.0605
0.0575
0.0565
0.0595
0.056
0.0495
0.0505
0.0505
0.051
0.0485
0.051
0.0535
0.0435
0.0445
0.0445
0.0415
0.0425
0.0465
0.0475
0.042
0.038
0.03
0.0295
0.033
0.0315
0.03
0.028
0.0245
0.022
0.0195
0.0175
0.016
0.012
0.0115
0.0105
0.007
0.008
0.005
0.0005
0.0
-0.005
-0.0115
-0.012
-0.0135
-0.018
-0.0195
-0.024
-0.0285
-0.0265
-0.023
-0.0215
-0.03
-0.0355
-0.0395
-0.0355
-0.032
-0.0365
-0.0365
-0.044
-0.0495
-0.0455
-0.044
-0.0475
-0.05
-0.05
-0.048
-0.046
-0.045
-0.048
-0.0505
-0.0495
-0.0515
-0.0545
-0.0575
-0.055
-0.057
-0.061
-0.0565
-0.059
-0.0635
-0.065
-0.062
-0.06
-0.063
-0.0615
-0.065
-0.0665
-0.0655
-0.061
-0.0555
-0.057
-0.0575
-0.057
-0.057
-0.0635
-0.061
-0.055
-0.058
-0.0555
-0.0545
-0.065
-0.075
-0.073
-0.066
-0.063
-0.065
-0.069
-0.0655
-0.063
-0.064
-0.0615
-0.063
-0.065
-0.0625
-0.0585
-0.0595
-0.061
-0.0635
-0.0635
-0.068
-0.068
-0.069
-0.0705
-0.064
-0.068
-0.067
-0.0645
-0.0645
-0.069
-0.0675
-0.06
-0.0625
-0.063
-0.0665
-0.0645
-0.06
-0.0595
-0.057
-0.0565
-0.06
-0.065
-0.0655
-0.0695
-0.069
-0.062
-0.058
-0.0575
-0.059
-0.0585
-0.0575
-0.056
-0.054
-0.055
-0.0535
-0.0525
-0.0555
-0.061
-0.0585
-0.0535
-0.057
-0.0545
-0.0575
-0.0615
-0.0615
-0.0645
-0.062
-0.061
-0.06
-0.0645
-0.0605
-0.0565
-0.063
-0.064
-0.0675
-0.0595
-0.0515
-0.0545
-0.0605
-0.062
-0.0605
-0.0635
-0.06
-0.0565
-0.0595
-0.0645
-0.067
-0.0645
-0.059
-0.0605
-0.0635
-0.065
-0.0665
-0.068
-0.0705
-0.0615
-0.058
-0.0615
-0.0565
-0.0605
-0.0635
-0.054
-0.053
-0.0585
-0.063
-0.068
-0.0685
-0.0745
-0.0735
-0.0655
-0.0665
-0.065
-0.0655
-0.067
-0.0625
-0.062
-0.0615
-0.0555
-0.06
-0.0655
-0.0575
-0.0575
-0.06
-0.064
-0.063
-0.0605
-0.06
-0.0595
-0.0655
-0.065
-0.064
-0.0645
-0.065
-0.066
-0.0635
-0.0625
-0.0635
-0.064
-0.058
-0.056
-0.058
-0.06
-0.0625
-0.061
-0.061
-0.0615
-0.0585
-0.065
-0.068
-0.068
-0.069
-0.06
-0.056
-0.0535
-0.055
-0.06
-0.0615
-0.061
-0.062
-0.0635
-0.0565
-0.0565
-0.0565
-0.0615
-0.0635
-0.064
-0.07
-0.0675
-0.0705
-0.0635
-0.0625
-0.064
-0.0605
-0.064
-0.0645
-0.067
-0.066
-0.061
-0.061
-0.0645
-0.0625
-0.062
-0.064
-0.065
-0.068
-0.068
-0.0695
-0.0695
-0.068
-0.072
-0.0745
-0.075
-0.0725
-0.0655
-0.064
-0.0675
-0.066
-0.0665
-0.0695
-0.062
-0.064
-0.0685
-0.0565
-0.0555
-0.0645
-0.0715
-0.0745
-0.0715
-0.0655
-0.0645
-0.07
-0.0695
-0.0655
-0.064
-0.071
-0.07
-0.0645
-0.0695
-0.0655
-0.065
-0.0685
-0.0745
-0.08
-0.073
-0.071
-0.0705
-0.0715
-0.0735
-0.0705
-0.0715
-0.07
-0.071
-0.072
-0.0645
-0.0715
-0.074
-0.0695
-0.068
-0.0685
-0.074
-0.072
-0.072
-0.071
-0.0705
-0.0715
-0.0735
-0.077
-0.075
-0.0715
-0.075
-0.078
-0.0755
-0.074
-0.0715
-0.071
-0.069
-0.067
-0.062
-0.063
-0.0705
-0.0735
-0.0745
-0.0715
-0.0735
-0.075
-0.073
-0.0745
-0.077
-0.079
-0.078
-0.0785
-0.0795
-0.0745
-0.0725
-0.0725
-0.074
-0.0745
-0.0685
-0.0715
-0.078
-0.0745
-0.0745
-0.073
-0.067
-0.0675
-0.071
-0.072
-0.0695
-0.072
-0.0725
-0.0655
-0.063
-0.06
-0.062
-0.0665
-0.0705
-0.0725
-0.069
-0.07
-0.065
-0.0595
-0.062
-0.0685
-0.0775
-0.0705
-0.0695
-0.0745
-0.074
-0.074
-0.073
-0.0735
-0.073
-0.0715
-0.066
-0.061
-0.061
-0.06
-0.06
-0.061
-0.062
-0.066
-0.0695
-0.072
-0.076
-0.0785
-0.076
-0.072
-0.0705
-0.065
-0.065
-0.0675
-0.064
-0.0665
-0.0705
-0.0665
-0.067
-0.072
-0.071
-0.074
-0.074
-0.071
-0.0705
-0.073
-0.075
-0.074
-0.0685
-0.0655
-0.066
-0.0645
-0.0635
-0.055
-0.051
-0.051
-0.057
-0.0605
-0.0535
-0.051
-0.0445
-0.0425
-0.042
-0.0445
-0.049
-0.047
-0.0465
-0.0505
-0.0455
-0.0365
-0.037
-0.0325
-0.0285
-0.0315
-0.031
-0.0265
-0.025
-0.0245
-0.022
-0.0195
-0.021
-0.0195
-0.0135
-0.017
-0.0255
-0.026
-0.0215
-0.019
-0.022
-0.0225
-0.0215
-0.026
-0.026
-0.026
-0.0345
-0.039
-0.042
-0.052
-0.054
-0.0565
-0.0615
-0.0595
-0.056
-0.061
-0.069
-0.0765
-0.0775
-0.076
-0.081
-0.0775
-0.0835
-0.09
-0.087
-0.0845
-0.084
-0.083
-0.082
-0.087
-0.0865
-0.0835
-0.0845
-0.081
-0.0765
-0.0835
-0.088
-0.0895
-0.0905
-0.0865
-0.088
-0.0895
-0.092
-0.09
-0.088
-0.093
-0.094
-0.089
-0.0885
-0.091
-0.0915
-0.0945
-0.0915
-0.091
-0.0915
-0.0905
-0.0965
-0.096
-0.091
-0.0845
-0.0885
-0.091
-0.093
-0.094
-0.089
-0.096
-0.0965
-0.0915
-0.0855
-0.084
-0.0895
-0.0835
-0.0775
-0.0755
-0.0725
-0.071
-0.072
-0.0745
-0.076
-0.0835
-0.0865
-0.0755
-0.0565
-0.04
-0.0245
-0.008
0.008
0.029
0.043
0.067
0.111
0.159
0.1955
0.219
0.2455
0.2705
0.3055
0.3505
0.3895
0.427
0.448
0.4755
0.4955
0.506
0.52
0.524
0.5235
0.5025
0.4775
0.4445
0.398
0.352
0.3085
0.2555
0.193
0.145
0.096
0.051
0.005
-0.0395
-0.0685
-0.085
-0.0805
-0.0775
-0.085
-0.094
-0.097
-0.0985
-0.1025
-0.108
-0.116
-0.119
-0.1225
-0.1195
-0.112
-0.1115
-0.112
-0.1055
-0.0995
-0.0955
-0.097
-0.0985
-0.094
-0.0905
-0.089
-0.0855
-0.08
-0.081
-0.08
-0.0695
-0.071
-0.077
-0.0735
-0.0745
-0.069
-0.0665
-0.069
-0.067
-0.0695
-0.072
-0.071
-0.065
-0.062
-0.0685
-0.075
-0.0715
-0.067
-0.0665
-0.061
-0.0615
-0.063
-0.0575
-0.054
-0.054
-0.061
-0.062
-0.063
-0.072
-0.073
-0.0705
-0.0705
-0.068
-0.0585
-0.0575
-0.062
-0.0595
-0.0585
-0.063
-0.0645
-0.0645
-0.064
-0.0645
-0.063
-0.061
-0.0575
-0.0465
-0.048
-0.0555
-0.0525
-0.051
-0.0555
-0.057
-0.0595
-0.059
-0.0545
-0.0535
-0.05
-0.049
-0.05
-0.049
-0.047
-0.049
-0.048
-0.0415
-0.04
-0.042
-0.043
-0.0495
-0.055
-0.0545
-0.052
-0.053
-0.055
-0.0555
-0.053
-0.0475
-0.0475
-0.047
-0.0455
-0.046
-0.0415
-0.0415
-0.049
-0.0495
-0.048
-0.0465
-0.0445
-0.041
-0.0435
-0.0445
-0.041
-0.0435
-0.0415
-0.039
-0.0375
-0.0355
-0.0435
-0.0435
-0.042
-0.045
-0.0355
-0.034
-0.034
-0.0345
-0.032
-0.0305
-0.031
-0.0305
-0.033
-0.029
-0.025
-0.0255
-0.0305
-0.026
-0.018
-0.0225
-0.032
-0.0335
-0.0265
-0.026
-0.0305
-0.0305
-0.0255
-0.021
-0.02
-0.024
-0.0265
-0.021
-0.0185
-0.0195
-0.016
-0.012
-0.0135
-0.0215
-0.0235
-0.0215
-0.0195
-0.014
-0.01
-0.0095
-0.012
-0.014
-0.0155
-0.0115
-0.0045
-0.003
-0.004
-0.006
-0.005
-0.0025
-0.006
-0.012
-0.0135
-0.0105
-0.006
-0.0015
0.0055
0.0035
-0.003
0.001
0.0125
0.0155
0.014
0.0155
0.0155
0.015
0.017
0.0205
0.0215
0.0315
0.031
0.0265
0.027
0.0235
0.034
0.036
0.034
0.039
0.041
0.04
0.044
0.0505
0.0475
0.0485
0.0505
0.0495
0.0525
0.0545
0.056
0.0575
0.0565
0.0525
0.0555
0.062
0.0645
0.063
0.064
0.0675
0.0725
0.071
0.063
0.0615
0.066
0.0715
0.0755
0.075
0.067
0.0665
0.0755
0.0765
0.0705
0.07
0.0715
0.072
0.0755
0.0755
0.074
0.076
0.0735
0.0755
0.0795
0.0865
0.088
0.0755
0.077
0.0815
0.082
0.0795
0.075
0.0715
0.0735
0.0765
0.0715
0.071
0.073
0.071
0.07
0.065
0.061
0.0655
0.0655
0.0625
0.062
0.056
0.0535
0.0535
0.045
0.0415
0.039
0.039
0.0415
0.035
0.0275
0.027
0.026
0.0245
0.019
0.015
0.017
0.0165
0.0135
0.0105
0.016
0.012
0.004
0.0015
-0.005
-0.0075
-0.0015
-0.0015
-0.0105
-0.013
-0.019
-0.0195
-0.0185
-0.0245
-0.0245
-0.0215
-0.025
-0.0265
-0.0285
-0.033
-0.0335
-0.0355
-0.0335
-0.0325
-0.032
-0.0285
-0.0345
-0.0365
-0.032
-0.0365
-0.0405
-0.0365
-0.037
-0.0395
-0.043
-0.043
-0.038
-0.031
-0.031
-0.039
-0.041
-0.038
-0.0375
-0.041
-0.0425
-0.046
-0.0435
-0.0405
-0.047
-0.0475
-0.046
-0.0405
-0.041
-0.038
-0.033
-0.034
-0.027
-0.032
-0.037
-0.0385
-0.037
-0.0365
-0.04
-0.0335
-0.0335
-0.039
-0.042
-0.0365
-0.033
-0.0375
-0.0415
-0.039
-0.0395
-0.042
-0.038
-0.032
-0.031
-0.0385
-0.041
-0.04
-0.033
-0.0315
-0.0395
-0.039
-0.036
-0.0365
-0.04
-0.0405
-0.0425
-0.0495
-0.0555
-0.0525
-0.0505
-0.0515
-0.0475
-0.0435
-0.046
-0.0445
-0.0375
-0.0415
-0.0455
-0.04
-0.0405
-0.0435
-0.0435
-0.0435
-0.0435
-0.043
-0.0485
-0.05
-0.0415
-0.04
-0.0435
-0.045
-0.042
-0.04
-0.042
-0.044
-0.045
-0.0445
-0.039
-0.0375
-0.042
-0.0415
-0.0475
-0.049
-0.0425
-0.041
-0.0405
-0.0395
-0.039
-0.0445
-0.046
-0.0435
-0.045
-0.0465
-0.044
-0.0365
-0.0395
-0.0365
-0.033
-0.038
-0.0385
-0.042
-0.0425
-0.0465
-0.046
-0.04
-0.0475
-0.046
-0.049
-0.049
-0.044
-0.047
-0.0415
-0.045
-0.0555
-0.052
-0.039
-0.0425
-0.05
-0.0475
-0.0445
-0.0475
-0.046
-0.0375
-0.0395
-0.0415
-0.046
-0.0535
-0.0525
-0.0465
-0.043
-0.0455
-0.0455
-0.0465
-0.0495
-0.053
-0.0515
-0.0445
-0.0405
-0.0395
-0.0395
-0.0325
-0.0375
-0.049
-0.05
-0.052
-0.05
-0.0435
-0.045
-0.0455
-0.046
-0.0495
-0.0475
-0.0475
-0.047
-0.048
-0.047
-0.042
-0.0415
-0.0435
-0.046
-0.0465
-0.0475
-0.0475
-0.0465
-0.05
-0.0495
-0.0505
-0.0545
-0.0545
-0.053
-0.052
-0.0495
-0.0495
-0.052
-0.0485
-0.051
-0.0515
-0.0475
-0.0425
-0.0455
-0.0485
-0.047
-0.049
-0.0535
-0.056
-0.05
-0.055
-0.054
-0.048
-0.0555
-0.0515
-0.0405
-0.04
-0.0445
-0.0485
-0.051
-0.0505
-0.0515
-0.051
-0.0485
-0.0505
-0.054
-0.054
-0.052
-0.0475
-0.0405
-0.0405
-0.046
-0.0475
-0.0485
-0.051
-0.051
-0.051
-0.0525
-0.0505
-0.051
-0.0505
-0.0495
-0.0525
-0.0535
-0.055
-0.0585
-0.0585
-0.0565
-0.058
-0.056
-0.053
-0.0575
-0.0575
-0.063
-0.0605
-0.057
-0.062
-0.0545
-0.054
-0.0495
-0.0465
-0.051
-0.051
-0.049
-0.048
-0.0545
-0.0515
-0.052
-0.0545
-0.054
-0.057
-0.052
-0.05
-0.052
-0.0515
-0.0485
-0.0475
-0.0475
-0.0475
-0.0435
-0.0325
-0.0315
-0.0385
-0.041
-0.044
-0.048
-0.048
-0.0475
-0.048
-0.0525
-0.0505
-0.048
-0.0495
-0.051
-0.0515
-0.0485
-0.0465
-0.0415
-0.043
-0.042
-0.041
-0.0395
-0.0355
-0.0405
-0.043
-0.044
-0.04
-0.0405
-0.0475
-0.044
-0.0435
-0.0435
-0.0405
-0.0395
-0.0375
-0.0355
-0.0335
-0.038
-0.04
-0.0405
-0.0435
-0.0385
-0.0335
-0.0365
-0.0395
-0.0365
-0.038
-0.0375
-0.033
-0.0325
-0.0365
-0.0405
-0.041
-0.039
-0.0365
-0.043
-0.041
-0.0375
-0.0405
-0.04
-0.04
-0.041
-0.0385
-0.0405
-0.0465
-0.0435
-0.0445
-0.045
-0.044
-0.0445
-0.0435
-0.043
-0.0455
-0.0485
-0.047
-0.0425
-0.0345
-0.0335
-0.0335
-0.039
-0.043
-0.038
-0.034
-0.03
-0.03
-0.03
-0.031
-0.0355
-0.0365
-0.0375
-0.0385
-0.034
-0.0355
-0.041
-0.0365
-0.034
-0.0285
-0.0215
-0.0185
-0.0155
-0.0185
-0.0155
-0.0105
-0.0095
-0.0085
-0.008
-0.0095
-0.0095
-0.0095
-0.007
-0.006
-0.004
-0.006
-0.0105
-0.0005
0.0025
0.0025
0.003
0.004
0.0065
0.0055
0.009
0.0075
0.0095
0.018
0.018
0.023
0.0235
0.0175
0.0145
0.0155
0.016
0.0145
0.014
0.0125
0.015
0.018
0.0145
0.008
0.0085
0.006
0.0045
0.0075
0.006
0.0015
-0.0055
-0.0135
-0.019
-0.0165
-0.016
-0.024
-0.0315
-0.0335
-0.038
-0.037
-0.0345
-0.0405
-0.0405
-0.0405
-0.043
-0.0435
-0.043
-0.039
-0.0365
-0.04
-0.0435
-0.0455
-0.042
-0.0435
-0.047
-0.043
-0.0455
-0.047
-0.0485
-0.0485
-0.051
-0.0525
-0.0425
-0.0395
-0.0375
-0.042
-0.0455
-0.04
-0.0405
-0.0375
-0.038
-0.041
-0.041
-0.043
-0.045
-0.0415
-0.0395
-0.0435
-0.0485
-0.0515
-0.049
-0.0435
-0.0415
-0.0435
-0.0435
-0.045
-0.0485
-0.043
-0.0375
-0.039
-0.0365
-0.029
-0.021
-0.0185
-0.019
-0.021
-0.026
-0.03
-0.0355
-0.035
-0.028
-0.019
-0.002
0.0185
0.034
0.0575
0.075
0.0925
0.125
0.16
0.1925
0.2235
0.2485
0.2735
0.302
0.3315
0.373
0.406
0.429
0.458
0.489
0.5095
0.522
0.532
0.539
0.5375
0.52
0.503
0.4745
0.4345
0.3955
0.349
0.2985
0.243
0.191
0.141
0.0985
0.058
0.018
-0.0105
-0.031
-0.024
-0.023
-0.0315
-0.0365
-0.0455
-0.0495
-0.056
-0.052
-0.0565
-0.0675
-0.0695
-0.0725
-0.071
-0.0715
-0.0745
-0.0675
-0.064
-0.068
-0.063
-0.056
-0.0525
-0.052
-0.053
-0.054
-0.054
-0.0495
-0.044
-0.044
-0.041
-0.036
-0.0395
-0.0375
-0.0355
-0.034
-0.033
-0.0375
-0.039
-0.0385
-0.0365
-0.0375
-0.0405
-0.039
-0.0365
-0.033
-0.032
-0.0345
-0.036
-0.0365
-0.0345
-0.0315
-0.033
-0.036
-0.034
-0.034
-0.035
-0.0315
-0.033
-0.033
-0.034
-0.036
-0.0335
-0.0315
-0.032
-0.0325
-0.029
-0.0275
-0.0245
-0.0225
-0.025
-0.027
-0.0265
-0.026
-0.0235
-0.025
-0.027
-0.0235
-0.0245
-0.0245
-0.0235
-0.02
-0.021
-0.021
-0.0195
-0.0195
-0.023
-0.024
-0.0205
-0.025
-0.027
-0.024
-0.023
-0.023
-0.022
-0.022
-0.0215
-0.02
-0.0205
-0.019
-0.0215
-0.0225
-0.0225
-0.0205
-0.0195
-0.0185
-0.016
-0.0155
-0.0095
-0.0115
-0.008
-0.0075
-0.015
-0.021
-0.026
-0.024
-0.0215
-0.0205
-0.0215
-0.02
-0.02
-0.0175
-0.0165
-0.0155
-0.013
-0.0165
-0.016
-0.017
-0.0155
-0.0105
-0.012
-0.0155
-0.018
-0.014
-0.012
-0.01
-0.014
-0.0155
-0.014
-0.018
-0.012
-0.0095
-0.008
-0.005
-0.009
-0.008
-0.0055
-0.0075
-0.0075
-0.0035
-0.0055
-0.012
-0.013
-0.013
-0.012
-0.006
-0.0055
-0.004
0.0
-0.001
-0.0025
-0.0015
-0.001
-0.0025
0.0
0.0005
0.001
0.004
0.005
0.009
0.0105
0.0055
0.0045
0.008
0.007
0.007
0.0065
0.0035
0.005
0.0055
0.0055
0.008
0.006
0.009
0.0145
0.014
0.017
0.023
0.024
0.022
0.0205
0.023
0.0215
0.022
0.024
0.0255
0.0275
0.0295
0.0315
0.032
0.036
0.037
0.0385
0.0415
0.0425
0.044
0.043
0.041
0.043
0.0455
0.0445
0.0465
0.049
0.0475
0.05
0.054
0.0545
0.056
0.0575
0.0565
0.055
0.061
0.065
0.0655
0.0685
0.071
0.076
0.0785
0.076
0.08
0.0815
0.078
0.08
0.076
0.075
0.0775
0.0805
0.0835
0.0785
0.0775
0.0795
0.0835
0.0845
0.083
0.0855
0.087
0.0845
0.082
0.086
0.09
0.089
0.085
0.082
0.0825
0.0865
0.0875
0.082
0.079
0.081
0.0805
0.0785
0.0835
0.0855
0.0795
0.0785
0.0795
0.0785
0.077
0.076
0.0755
0.0735
0.0715
0.0695
0.0675
0.0675
0.065
0.0635
0.062
0.0595
0.0585
0.0495
0.0465
0.0505
0.0475
0.0445
0.043
0.042
0.038
0.033
0.0295
0.031
0.03
0.0245
0.024
0.0255
0.0225
0.0175
0.0175
0.017
0.0115
0.0085
0.007
0.005
0.005
0.0075
0.007
0.0055
0.001
-0.002
0.0005
0.001
-0.003
-0.0085
-0.0095
-0.006
-0.006
-0.007
-0.0095
-0.012
-0.013
-0.013
-0.009
-0.0075
-0.0095
-0.012
-0.013
-0.01
-0.005
-0.004
-0.009
-0.0095
-0.012
-0.0095
-0.005
-0.008
-0.009
-0.01
-0.0145
-0.017
-0.0165
-0.0165
-0.0145
-0.0155
-0.0175
-0.018
-0.02
-0.0195
-0.0175
-0.0145
-0.014
-0.016
-0.0165
-0.0155
-0.0125
-0.0175
-0.02
-0.0225
-0.025
-0.0225
-0.022
-0.022
-0.0255
-0.0255
-0.0255
-0.027
-0.025
-0.0235
-0.0215
-0.0195
-0.0185
-0.0165
-0.0185
-0.0205
-0.02
-0.02
-0.0225
-0.022
-0.0205
-0.0265
-0.025
-0.0255
-0.0265
-0.0225
-0.0225
-0.024
-0.027
-0.027
-0.025
-0.023
-0.022
-0.021
-0.0215
-0.024
-0.0285
-0.027
-0.028
-0.0275
-0.025
-0.0265
-0.0255
-0.0235
-0.02
-0.02
-0.0215
-0.021
-0.023
-0.023
-0.0235
-0.0265
-0.027
-0.0265
-0.027
-0.0285
-0.028
-0.0345
-0.038
-0.0365
-0.037
-0.0355
-0.0345
-0.033
-0.033
-0.029
-0.027
-0.0295
-0.0305
-0.0285
-0.0275
-0.024
-0.022
-0.0265
-0.0295
-0.0295
-0.03
-0.0285
-0.0255
-0.0255
-0.0275
-0.0275
-0.0265
-0.0245
-0.0225
-0.0185
-0.0165
-0.0195
-0.02
-0.0195
-0.0195
-0.0185
-0.017
-0.018
-0.0205
-0.0195
-0.02
-0.0175
-0.0145
-0.0115
-0.01
-0.018
-0.0245
-0.022
-0.02
-0.0195
-0.02
-0.0235
-0.022
-0.0195
-0.0235
-0.0255
-0.0275
-0.025
-0.0265
-0.0315
-0.031
-0.0335
-0.0325
-0.032
-0.0315
-0.028
-0.028
-0.03
-0.03
-0.03
-0.032
-0.032
-0.029
-0.0265
-0.027
-0.0275
-0.025
-0.0235
-0.028
-0.0305
-0.029
-0.0295
-0.027
-0.0255
-0.0265
-0.029
-0.03
-0.0275
-0.0285
-0.024
-0.0195
-0.02
-0.026
-0.034
-0.0335
-0.031
-0.0295
-0.03
-0.03
-0.03
-0.0295
-0.0285
-0.031
-0.032
-0.0335
-0.033
-0.0345
-0.0365
-0.033
-0.0315
-0.0325
-0.0345
-0.032
-0.03
-0.029
-0.029
-0.0305
-0.029
-0.03
-0.0305
-0.032
-0.0345
-0.0345
-0.034
-0.0355
-0.0375
-0.0355
-0.0325
-0.033
-0.033
-0.033
-0.0315
-0.0295
-0.0325
-0.036
-0.034
-0.0335
-0.038
-0.0395
-0.0415
-0.042
-0.0405
-0.0405
-0.04
-0.0395
-0.0405
-0.0435
-0.043
-0.0435
-0.0425
-0.041
-0.0405
-0.0375
-0.04
-0.041
-0.0395
-0.0405
-0.0415
-0.044
-0.0455
-0.0425
-0.0435
-0.043
-0.0405
-0.0445
-0.046
-0.045
-0.052
-0.052
-0.0495
-0.0535
-0.051
-0.0515
-0.0525
-0.0535
-0.054
-0.054
-0.0565
-0.0585
-0.059
-0.054
-0.053
-0.0535
-0.051
-0.0495
-0.052
-0.055
-0.055
-0.052
-0.0515
-0.053
-0.0515
-0.05
-0.0515
-0.0525
-0.0475
-0.0475
-0.0495
-0.048
-0.05
-0.0505
-0.0485
-0.047
-0.046
-0.047
-0.0475
-0.051
-0.057
-0.056
-0.0525
-0.0505
-0.05
-0.05
-0.05
-0.0495
-0.0475
-0.0475
-0.046
-0.044
-0.045
-0.0485
-0.0475
-0.0465
-0.0485
-0.049
-0.0475
-0.048
-0.05
-0.0505
-0.0485
-0.0465
-0.0455
-0.0465
-0.0475
-0.046
-0.044
-0.043
-0.046
-0.0495
-0.05
-0.0505
-0.0495
-0.0465
-0.0475
-0.045
-0.0445
-0.047
-0.045
-0.044
-0.0405
-0.041
-0.0435
-0.045
-0.043
-0.0405
-0.0385
-0.035
-0.0355
-0.0375
-0.042
-0.043
-0.0405
-0.0395
-0.043
-0.041
-0.038
-0.0395
-0.0385
-0.0395
-0.0405
-0.0385
-0.0375
-0.0395
-0.038
-0.038
-0.039
-0.0375
-0.038
-0.037
-0.04
-0.038
-0.0365
-0.038
-0.036
-0.0365
-0.0325
-0.0325
-0.038
-0.037
-0.037
-0.0385
-0.038
-0.0405
-0.0405
-0.041
-0.0415
-0.04
-0.041
-0.0435
-0.042
-0.037
-0.0365
-0.0365
-0.034
-0.0305
-0.0265
-0.0235
-0.022
-0.0205
-0.0175
-0.014
-0.012
-0.014
-0.0155
-0.0145
-0.0155
-0.0125
-0.009
-0.01
-0.008
-0.0035
-0.0005
0.0005
0.004
0.0065
0.0045
0.0025
0.0055
0.011
0.0165
0.0205
0.021
0.022
0.0185
0.021
0.025
0.0195
0.016
0.0105
0.0075
0.008
0.0035
0.0035
0.004
0.004
0.0035
0.0025
0.001
-0.0035
-0.0005
0.001
0.0015
0.0005
-0.0055
-0.01
-0.015
-0.0145
-0.018
-0.024
-0.0265
-0.03
-0.028
-0.032
-0.036
-0.037
-0.0405
-0.04
-0.0405
-0.0405
-0.037
-0.039
-0.043
-0.045
-0.047
-0.0465
-0.044
-0.0415
-0.041
-0.0415
-0.043
-0.042
-0.04
-0.043
-0.0445
-0.043
-0.0435
-0.0465
-0.0475
-0.0465
-0.044
-0.044
-0.047
-0.045
-0.044
-0.0465
-0.0465
-0.045
-0.046
-0.0475
-0.046
-0.045
-0.05
-0.052
-0.051
-0.051
-0.049
-0.049
-0.054
-0.0525
-0.0475
-0.0455
-0.042
-0.041
-0.0365
-0.0305
-0.026
-0.0255
-0.0285
-0.0345
-0.0405
-0.0395
-0.031
-0.02
-0.0095
0.008
0.0255
0.0375
0.0595
0.0845
0.108
0.139
0.1835
0.2235
0.2475
0.2645
0.2885
0.317
0.352
0.3935
0.421
0.446
0.469
0.4955
0.524
0.5465
0.5605
0.564
0.5625
0.5445
0.5265
0.5055
0.465
0.4215
0.381
0.334
0.274
0.221
0.1775
0.134
0.0935
0.054
0.0185
-0.001
0.008
0.017
0.009
-0.0035
-0.014
-0.015
-0.0175
-0.022
-0.024
-0.028
-0.033
-0.039
-0.044
-0.0415
-0.043
-0.0415
-0.0435
-0.049
-0.0475
-0.0495
-0.0495
-0.0465
-0.046
-0.045
-0.0435
-0.0395
-0.0345
-0.0345
-0.0345
-0.0335
-0.038
-0.042
-0.0405
-0.039
-0.0395
-0.0395
-0.04
-0.04
-0.0415
-0.0405
-0.0355
-0.033
-0.032
-0.0325
-0.0335
-0.0345
-0.034
-0.0345
-0.0305
-0.031
-0.0345
-0.0325
-0.0325
-0.031
-0.0295
-0.03
-0.0325
-0.035
-0.0385
-0.0375
-0.0345
-0.0365
-0.037
-0.037
-0.0375
-0.038
-0.0365
-0.034
-0.032
-0.0305
-0.0335
-0.031
-0.027
-0.027
-0.025
-0.024
-0.0275
-0.029
-0.0305
-0.034
-0.0335
-0.0335
-0.033
-0.035
-0.039
-0.038
-0.0345
-0.0325
-0.029
-0.0265
-0.033
-0.0345
-0.029
-0.0265
-0.028
-0.0295
-0.0285
-0.0295
-0.03
-0.03
-0.033
-0.033
-0.0315
-0.0295
-0.0265
-0.023
-0.0245
-0.031
-0.0305
-0.0315
-0.0345
-0.031
-0.0295
-0.029
-0.025
-0.023
-0.0255
-0.0265
-0.0265
-0.0275
-0.024
-0.02
-0.022
-0.023
-0.0255
-0.0265
-0.027
-0.024
-0.0205
-0.0225
-0.024
-0.0235
-0.025
-0.03
-0.0295
-0.028
-0.0285
-0.0255
-0.024
-0.02
-0.0165
-0.021
-0.0205
-0.0215
-0.024
-0.022
-0.0195
-0.0195
-0.0195
-0.0175
-0.016
-0.018
-0.018
-0.0155
-0.0145
-0.0135
-0.018
-0.02
-0.0175
-0.016
-0.014
-0.0125
-0.015
-0.017
-0.0165
-0.016
-0.012
-0.009
-0.007
-0.0055
-0.0065
-0.006
-0.0035
-0.001
0.001
0.0005
-0.001
0.002
0.006
0.0075
0.007
0.0075
0.008
0.008
0.011
0.0125
0.012
0.0145
0.0145
0.014
0.016
0.0175
0.02
0.022
0.023
0.026
0.026
0.0245
0.0265
0.028
0.028
0.0275
0.0225
0.0225
0.0245
0.023
0.0285
0.035
0.0375
0.041
0.046
0.048
0.0495
0.0525
0.053
0.0545
0.0545
0.055
0.0595
0.0605
0.0615
0.0625
0.064
0.064
0.063
0.0675
0.07
0.074
0.0755
0.07
0.0665
0.0655
0.068
0.069
0.0695
0.0725
0.071
0.0735
0.0745
0.073
0.076
0.076
0.0755
0.0765
0.0755
0.078
0.082
0.083
0.083
0.0825
0.0865
0.0885
0.0885
0.089
0.089
0.091
0.088
0.087
0.087
0.085
0.0865
0.0855
0.0855
0.086
0.084
0.0835
0.083
0.0825
0.0815
0.0805
0.0785
0.0735
0.0695
0.066
0.0645
0.063
0.057
0.0505
0.0485
0.049
0.0465
0.0435
0.0385
0.035
0.034
0.0315
0.031
0.029
0.0255
0.0245
0.0215
0.0185
0.017
0.0145
0.0145
0.014
0.0115
0.0085
0.004
0.0055
0.0115
0.01
0.0025
-0.001
-0.0025
-0.0015
0.0
-0.003
-0.0065
-0.0095
-0.0095
-0.009
-0.0085
-0.004
-0.0045
-0.0075
-0.0095
-0.0135
-0.0135
-0.0145
-0.0165
-0.017
-0.0165
-0.017
-0.021
-0.0205
-0.0195
-0.019
-0.0185
-0.0205
-0.0195
-0.02
-0.0195
-0.0185
-0.02
-0.0215
-0.0235
-0.026
-0.0265
-0.0245
-0.021
-0.019
-0.022
-0.025
-0.0225
-0.02
-0.022
-0.023
-0.0225
-0.0225
-0.0245
-0.027
-0.026
-0.027
-0.025
-0.0225
-0.0255
-0.0255
-0.0225
-0.0205
-0.0225
-0.021
-0.02
-0.0215
-0.021
-0.023
-0.023
-0.023
-0.023
-0.0205
-0.019
-0.018
-0.0165
-0.0165
-0.016
-0.0155
-0.019
-0.021
-0.022
-0.022
-0.023
-0.024
-0.023
-0.023
-0.023
-0.023
-0.021
-0.02
-0.022
-0.021
-0.0195
-0.021
-0.021
-0.0195
-0.02
-0.022
-0.0235
-0.0265
-0.027
-0.0285
-0.0295
-0.028
-0.026
-0.0255
-0.027
-0.027
-0.0265
-0.0265
-0.026
-0.0245
-0.022
-0.0195
-0.02
-0.02
-0.0215
-0.023
-0.0255
-0.025
-0.023
-0.025
-0.0245
-0.0235
-0.022
-0.027
-0.0295
-0.028
-0.028
-0.0255
-0.026
-0.023
-0.0215
-0.0215
-0.022
-0.023
-0.0225
-0.021
-0.0195
-0.02
-0.023
-0.0245
-0.0225
-0.023
-0.023
-0.023
-0.024
-0.023
-0.0225
-0.0195
-0.0185
-0.0195
-0.0195
-0.019
-0.015
-0.0135
-0.0145
-0.0175
-0.02
-0.0195
-0.0175
-0.02
-0.023
-0.022
-0.02
-0.0195
-0.0205
-0.02
-0.0195
-0.0205
-0.0225
-0.0235
-0.023
-0.0205
-0.019
-0.019
-0.0185
-0.0215
-0.0225
-0.02
-0.02
-0.02
-0.02
-0.0195
-0.0185
-0.02
-0.0215
-0.022
-0.02
-0.0185
-0.019
-0.0215
-0.0235
-0.018
-0.0155
-0.015
-0.013
-0.0165
-0.018
-0.0215
-0.0215
-0.019
-0.0205
-0.02
-0.024
-0.026
-0.023
-0.0205
-0.02
-0.02
-0.02
-0.0235
-0.023
-0.0175
-0.012
-0.009
-0.0095
-0.0095
-0.012
-0.015
-0.014
-0.012
-0.0125
-0.018
-0.019
-0.0155
-0.0155
-0.016
-0.0155
-0.015
-0.0155
-0.0155
-0.017
-0.015
-0.01
-0.0085
-0.013
-0.014
-0.013
-0.0125
-0.013
-0.0155
-0.0165
-0.016
-0.016
-0.016
-0.0165
-0.0195
-0.019
-0.0155
-0.016
-0.0165
-0.019
-0.02
-0.02
-0.0195
-0.0165
-0.015
-0.0195
-0.0225
-0.0225
-0.023
-0.023
-0.022
-0.022
-0.0235
-0.0225
-0.02
-0.016
-0.013
-0.0125
-0.0135
-0.0145
-0.0135
-0.016
-0.017
-0.0175
-0.0195
-0.0195
-0.02
-0.021
-0.021
-0.0205
-0.023
-0.023
-0.023
-0.026
-0.027
-0.031
-0.031
-0.0295
-0.03
-0.0275
-0.025
-0.0215
-0.022
-0.0235
-0.0235
-0.0245
-0.025
-0.024
-0.0255
-0.027
-0.027
-0.029
-0.027
-0.029
-0.028
-0.027
-0.0275
-0.0225
-0.0255
-0.026
-0.0215
-0.021
-0.021
-0.021
-0.0195
-0.019
-0.0215
-0.021
-0.02
-0.0185
-0.018
-0.0205
-0.0205
-0.023
-0.0235
-0.0205
-0.0195
-0.02
-0.0195
-0.0195
-0.022
-0.0205
-0.0195
-0.0185
-0.0185
-0.022
-0.025
-0.024
-0.0225
-0.0235
-0.0235
-0.024
-0.0255
-0.026
-0.0265
-0.028
-0.0275
-0.026
-0.0265
-0.0265
-0.0265
-0.024
-0.0235
-0.0265
-0.026
-0.026
-0.0245
-0.0225
-0.024
-0.0235
-0.02
-0.016
-0.016
-0.0135
-0.0115
-0.0135
-0.014
-0.018
-0.0225
-0.022
-0.022
-0.024
-0.023
-0.0225
-0.025
-0.029
-0.029
-0.0265
-0.0285
-0.0285
-0.026
-0.0285
-0.0285
-0.027
-0.0255
-0.0205
-0.022
-0.0235
-0.022
-0.0235
-0.0215
-0.017
-0.017
-0.017
-0.0185
-0.0195
-0.0195
-0.02
-0.019
-0.0205
-0.018
-0.0175
-0.02
-0.019
-0.02
-0.0225
-0.0205
-0.021
-0.02
-0.02
-0.021
-0.0195
-0.02
-0.0195
-0.0185
-0.0205
-0.022
-0.0235
-0.019
-0.017
-0.02
-0.0175
-0.0195
-0.0205
-0.0195
-0.0185
-0.0165
-0.015
-0.014
-0.014
-0.013
-0.0145
-0.015
-0.0155
-0.014
-0.0145
-0.0175
-0.016
-0.0155
-0.012
-0.009
-0.0105
-0.014
-0.0165
-0.0135
-0.0115
-0.0135
-0.0105
-0.009
-0.0125
-0.013
-0.014
-0.012
-0.01
-0.0105
-0.0095
-0.009
-0.0045
0.0005
0.004
0.0055
0.008
0.0115
0.0105
0.01
0.012
0.0175
0.0215
0.0185
0.0145
0.016
0.0205
0.022
0.026
0.0295
0.0295
0.0285
0.029
0.0295
0.029
0.028
0.03
0.036
0.0385
0.038
0.0375
0.039
0.044
0.049
0.043
0.0365
0.038
0.0345
0.033
0.0295
0.0255
0.0245
0.022
0.0215
0.019
0.017
0.013
0.0095
0.007
0.005
0.005
0.0035
0.0005
-0.0035
-0.0055
-0.007
-0.011
-0.013
-0.013
-0.0125
-0.018
-0.019
-0.018
-0.0215
-0.023
-0.0245
-0.028
-0.03
-0.0305
-0.0305
-0.03
-0.031
-0.03
-0.031
-0.0345
-0.035
-0.0365
-0.0355
-0.035
-0.036
-0.0385
-0.0395
-0.038
-0.0395
-0.04
-0.04
-0.0405
-0.0415
-0.0425
-0.0425
-0.043
-0.0385
-0.0365
-0.0375
-0.0335
-0.036
-0.04
-0.0415
-0.0405
-0.0375
-0.0385
-0.042
-0.0405
-0.04
-0.043
-0.0405
-0.0415
-0.04
-0.038
-0.037
-0.032
-0.028
-0.0195
-0.0175
-0.018
-0.0195
-0.0245
-0.03
-0.0325
-0.0265
-0.014
-0.0015
0.0175
0.038
0.057
0.078
0.0975
0.122
0.1555
0.2015
0.2495
0.2785
0.2945
0.3185
0.351
0.391
0.436
0.4715
0.5045
0.5265
0.5515
0.5795
0.6
0.6185
0.621
0.6165
0.5925
0.565
0.54
0.4975
0.4555
0.4105
0.3585
0.303
0.249
0.202
0.1565
0.112
0.075
0.042
0.0225
0.03
0.0285
0.019
0.012
0.005
0.0035
-0.003
-0.0125
-0.021
-0.0245
-0.025
-0.0305
-0.032
-0.032
-0.0315
-0.0275
-0.0305
-0.0305
-0.03
-0.03
-0.0265
-0.028
-0.0295
-0.0255
-0.0255
-0.025
-0.023
-0.0235
-0.0225
-0.024
-0.024
-0.021
-0.024
-0.026
-0.0265
-0.0295
-0.028
-0.027
-0.0255
-0.0235
-0.0245
-0.0235
-0.026
-0.026
-0.023
-0.023
-0.0235
-0.0245
-0.021
-0.0195
-0.0185
-0.0165
-0.017
-0.015
-0.0165
-0.0175
-0.019
-0.021
-0.0215
-0.023
-0.027
-0.03
-0.0315
-0.03
-0.0285
-0.027
-0.0245
-0.022
-0.021
-0.0205
-0.0215
-0.026
-0.026
-0.0255
-0.027
-0.0265
-0.027
-0.0295
-0.031
-0.0305
-0.03
-0.0275
-0.0275
-0.027
-0.0255
-0.0235
-0.0225
-0.0235
-0.0235
-0.0215
-0.02
-0.02
-0.0205
-0.0195
-0.02
-0.017
-0.013
-0.0195
-0.0225
-0.0255
-0.029
-0.0315
-0.0325
-0.028
-0.0285
-0.0275
-0.0275
-0.0305
-0.0305
-0.028
-0.022
-0.0225
-0.0255
-0.0265
-0.0265
-0.0265
-0.026
-0.0265
-0.0235
-0.0205
-0.0235
-0.0235
-0.0205
-0.02
-0.0195
-0.0205
-0.0205
-0.0205
-0.02
-0.019
-0.02
-0.0185
-0.016
-0.015
-0.0145
-0.0135
-0.012
-0.0145
-0.013
-0.0145
-0.0165
-0.0165
-0.016
-0.0165
-0.016
-0.017
-0.0185
-0.0155
-0.0155
-0.0165
-0.0175
-0.015
-0.015
-0.0155
-0.0135
-0.011
-0.009
-0.0095
-0.009
-0.0095
-0.007
-0.0055
-0.0085
-0.006
-0.0025
-0.0025
-0.0025
-0.005
-0.0065
-0.006
-0.001
0.0005
0.0005
0.0045
0.0015
-0.001
0.003
0.005
0.008
0.009
0.009
0.0125
0.0135
0.0125
0.0175
0.0175
0.016
0.018
0.015
0.0165
0.0205
0.02
0.019
0.021
0.0235
0.0255
0.0255
0.027
0.03
0.0305
0.0315
0.034
0.036
0.0375
0.041
0.042
0.042
0.042
0.0445
0.0505
0.052
0.0525
0.052
0.0535
0.0555
0.056
0.0585
0.0655
0.0695
0.066
0.065
0.067
0.069
0.069
0.07
0.072
0.0725
0.0725
0.0695
0.07
0.0725
0.0735
0.0775
0.08
0.081
0.0835
0.0835
0.0825
0.081
0.0805
0.082
0.0855
0.0865
0.088
0.09
0.089
0.087
0.083
0.0795
0.081
0.0805
0.0795
0.08
0.081
0.084
0.0865
0.087
0.086
0.0865
0.086
0.0815
0.081
0.0845
0.0835
0.0845
0.086
0.081
0.0745
0.0725
0.0745
0.0735
0.0685
0.0695
0.0695
0.069
0.069
0.065
0.062
0.059
0.0555
0.0505
0.0485
0.0495
0.049
0.047
0.0455
0.044
0.0365
0.034
0.0345
0.031
0.0285
0.025
0.022
0.019
0.018
0.018
0.017
0.015
0.0125
0.009
0.0065
0.0045
0.0045
0.003
0.0005
0.001
-0.004
-0.0055
-0.0075
-0.0095
-0.0095
-0.0095
-0.01
-0.0115
-0.0115
-0.0125
-0.0125
-0.0125
-0.0145
-0.018
-0.0185
-0.017
-0.0155
-0.014
-0.013
-0.0165
-0.0195
-0.021
-0.0215
-0.02
-0.0225
-0.0215
-0.0195
-0.0205
-0.018
-0.016
-0.0185
-0.0185
-0.019
-0.02
-0.0195
-0.02
-0.021
-0.021
-0.022
-0.0225
-0.0245
-0.0275
-0.0265
-0.0265
-0.0255
-0.023
-0.0235
-0.0235
-0.0235
-0.0195
-0.019
-0.0245
-0.025
-0.0235
-0.0235
-0.022
-0.023
-0.024
-0.0235
-0.027
-0.0265
-0.0265
-0.0255
-0.024
-0.024
-0.024
-0.0265
-0.027
-0.0295
-0.031
-0.0305
-0.0305
-0.0305
-0.0345
-0.0365
-0.0335
-0.0335
-0.0325
-0.032
-0.034
-0.0335
-0.0345
-0.0345
-0.0335
-0.0345
-0.0325
-0.032
-0.034
-0.0315
-0.029
-0.0255
-0.0265
-0.031
-0.03
-0.03
-0.031
-0.0285
-0.027
-0.031
-0.0335
-0.034
-0.035
-0.034
-0.0335
-0.0335
-0.034
-0.0335
-0.034
-0.0345
-0.0325
-0.031
-0.0295
-0.033
-0.0365
-0.036
-0.0375
-0.0385
-0.0365
-0.037
-0.0375
-0.037
-0.04
-0.0385
-0.036
-0.0355
-0.032
-0.0355
-0.0365
-0.0345
-0.035
-0.0365
-0.037
-0.035
-0.0365
-0.0385
-0.041
-0.0425
-0.04
-0.043
-0.042
-0.0415
-0.0415
-0.0385
-0.0405
-0.042
-0.0385
-0.036
-0.0345
-0.0335
-0.03
-0.0305
-0.029
-0.0265
-0.0315
-0.0355
-0.0375
-0.036
-0.0355
-0.0355
-0.037
-0.0385
-0.0345
-0.036
-0.038
-0.0365
-0.033
-0.0295
-0.0285
-0.027
-0.028
-0.03
-0.032
-0.036
-0.034
-0.034
-0.037
-0.0365
-0.0355
-0.0345
-0.0345
-0.036
-0.037
-0.034
-0.033
-0.0335
-0.034
-0.0375
-0.044
-0.0465
-0.0435
-0.0415
-0.041
-0.0405
-0.039
-0.0455
-0.049
-0.0445
-0.0425
-0.042
-0.0425
-0.042
-0.047
-0.046
-0.0415
-0.0425
-0.043
-0.044
-0.0415
-0.044
-0.0415
-0.0345
-0.034
-0.0345
-0.0355
-0.035
-0.035
-0.034
-0.0315
-0.035
-0.04
-0.0405
-0.039
-0.034
-0.035
-0.0355
-0.034
-0.0355
-0.037
-0.0375
-0.0375
-0.038
-0.0395
-0.042
-0.0425
-0.043
-0.043
-0.043
-0.04
-0.038
-0.0425
-0.0415
-0.039
-0.036
-0.036
-0.037
-0.034
-0.0345
-0.038
-0.039
-0.0365
-0.036
-0.039
-0.0435
-0.045
-0.043
-0.0425
-0.0405
-0.0405
-0.0435
-0.0435
-0.0435
-0.0425
-0.0435
-0.047
-0.0435
-0.044
-0.0455
-0.041
-0.04
-0.0395
-0.0365
-0.034
-0.0335
-0.037
-0.0405
-0.04
-0.0425
-0.0435
-0.0435
-0.044
-0.0425
-0.0405
-0.0405
-0.041
-0.038
-0.036
-0.0365
-0.0385
-0.0385
-0.042
-0.043
-0.042
-0.0425
-0.04
-0.038
-0.0375
-0.0415
-0.042
-0.0405
-0.04
-0.0405
-0.038
-0.036
-0.0365
-0.0385
-0.0425
-0.0435
-0.0455
-0.0415
-0.04
-0.042
-0.0395
-0.0405
-0.041
-0.0395
-0.0425
-0.0415
-0.0425
-0.05
-0.05
-0.0495
-0.051
-0.0485
-0.041
-0.04
-0.0445
-0.0465
-0.0465
-0.041
-0.038
-0.038
-0.0365
-0.0375
-0.0365
-0.038
-0.0415
-0.043
-0.045
-0.047
-0.047
-0.0455
-0.047
-0.05
-0.0515
-0.0485
-0.046
-0.0475
-0.0425
-0.041
-0.041
-0.037
-0.038
-0.0355
-0.033
-0.036
-0.0325
-0.03
-0.035
-0.039
-0.0385
-0.0345
-0.034
-0.0355
-0.0325
-0.035
-0.0395
-0.0345
-0.03
-0.03
-0.0315
-0.0335
-0.033
-0.0355
-0.0395
-0.0375
-0.0385
-0.041
-0.0395
-0.0425
-0.047
-0.048
-0.047
-0.04
-0.036
-0.037
-0.04
-0.038
-0.0375
-0.041
-0.0375
-0.0365
-0.0375
-0.038
-0.0395
-0.041
-0.038
-0.0375
-0.0405
-0.0405
-0.0425
-0.0435
-0.0435
-0.0435
-0.043
-0.0405
-0.042
-0.043
-0.0415
-0.044
-0.0455
-0.044
-0.043
-0.045
-0.043
-0.048
-0.0465
-0.0425
-0.0435
-0.0425
-0.0475
-0.0475
-0.047
-0.0465
-0.0395
-0.037
-0.035
-0.0335
-0.035
-0.0335
-0.035
-0.0345
-0.0345
-0.0385
-0.0405
-0.04
-0.045
-0.051
-0.0465
-0.045
-0.0485
-0.0475
-0.0475
-0.048
-0.0465
-0.044
-0.036
-0.0325
-0.0345
-0.0325
-0.0285
-0.028
-0.0305
-0.033
-0.0405
-0.0395
-0.032
-0.03
-0.0315
-0.0335
-0.038
-0.037
-0.0285
-0.0275
-0.028
-0.0235
-0.018
-0.016
-0.0145
-0.012
-0.007
-0.006
-0.006
-0.0005
0.001
0.004
0.003
-0.0015
0.0015
-0.0005
-0.002
-0.0005
0.001
0.005
0.011
0.0185
0.022
0.024
0.0225
0.0205
0.0205
0.0235
0.0285
0.0275
0.028
0.027
0.025
0.0245
0.0255
0.026
0.0235
0.0235
0.015
0.0075
0.0065
0.006
0.01
0.01
0.007
0.0025
-0.0035
-0.006
-0.008
-0.012
-0.016
-0.018
-0.0225
-0.029
-0.028
-0.0305
-0.034
-0.0375
-0.04
-0.041
-0.0455
-0.043
-0.045
-0.046
-0.047
-0.047
-0.0465
-0.048
-0.046
-0.047
-0.051
-0.054
-0.054
-0.057
-0.0575
-0.054
-0.0565
-0.056
-0.0535
-0.054
-0.0565
-0.056
-0.052
-0.0545
-0.055
-0.0535
-0.0515
-0.053
-0.056
-0.0555
-0.0585
-0.061
-0.0605
-0.0615
-0.063
-0.062
-0.0615
-0.061
-0.064
-0.065
-0.061
-0.057
-0.0545
-0.0585
-0.0595
-0.056
-0.058
-0.0615
-0.0615
-0.057
-0.046
-0.0365
-0.0375
-0.0405
-0.041
-0.0445
-0.0495
-0.051
-0.055
-0.048
-0.0295
-0.0165
0.0015
0.023
0.046
0.0625
0.085
0.1195
0.1615
0.212
0.2455
0.2695
0.2945
0.322
0.3635
0.4165
0.459
0.492
0.52
0.544
0.5715
0.5925
0.6095
0.6145
0.6075
0.5865
0.5585
0.528
0.4865
0.443
0.3915
0.3305
0.272
0.223
0.177
0.13
0.077
0.0335
-0.0005
-0.0245
-0.0175
-0.014
-0.0235
-0.0315
-0.036
-0.039
-0.046
-0.053
-0.0605
-0.064
-0.065
-0.0645
-0.063
-0.0705
-0.0745
-0.0695
-0.065
-0.058
-0.054
-0.048
-0.047
-0.046
-0.0415
-0.0425
-0.044
-0.043
-0.036
-0.0305
-0.0295
-0.033
-0.0335
-0.033
-0.039
-0.043
-0.045
-0.044
-0.043
-0.04
-0.0395
-0.041
-0.0405
-0.0355
-0.033
-0.034
-0.0305
-0.028
-0.0255
-0.0255
-0.0275
-0.0315
-0.035
-0.036
-0.0365
-0.036
-0.0365
-0.0325
-0.0295
-0.0275
-0.028
-0.0305
-0.029
-0.03
-0.0335
-0.0315
-0.0285
-0.025
-0.0275
-0.0285
-0.029
-0.0355
-0.037
-0.032
-0.0275
-0.0345
-0.035
-0.0305
-0.035
-0.0365
-0.0335
-0.0315
-0.03
-0.029
-0.0305
-0.029
-0.0285
-0.0245
-0.022
-0.0255
-0.0265
-0.026
-0.029
-0.0305
-0.0245
-0.026
-0.0285
-0.0285
-0.031
-0.0305
-0.0305
-0.03
-0.0235
-0.0195
-0.02
-0.0205
-0.0225
-0.0195
-0.017
-0.0195
-0.0235
-0.026
-0.0245
-0.022
-0.0215
-0.0235
-0.0225
-0.0205
-0.0195
-0.022
-0.025
-0.022
-0.0205
-0.024
-0.0275
-0.0225
-0.019
-0.0185
-0.0185
-0.016
-0.0105
-0.013
-0.0145
-0.018
-0.02
-0.017
-0.016
-0.014
-0.0125
-0.016
-0.0195
-0.014
-0.0095
-0.0125
-0.011
-0.01
-0.0075
-0.008
-0.009
-0.0065
-0.009
-0.0095
-0.0075
-0.0065
-0.007
-0.0055
-0.003
-0.005
-0.006
-0.0035
-0.005
-0.0035
0.002
-0.005
-0.0065
0.0
0.0035
0.0055
0.004
0.0015
-0.0015
0.0005
0.005
0.008
0.008
0.0065
0.01
0.0075
0.0095
0.011
0.0075
0.011
0.0115
0.0135
0.013
0.0145
0.0185
0.022
0.027
0.029
0.0325
0.034
0.037
0.0375
0.0355
0.034
0.0335
0.0355
0.0395
0.0435
0.0435
0.0485
0.053
0.0565
0.06
0.0605
0.061
0.065
0.065
0.0655
0.0685
0.0655
0.0635
0.0635
0.069
0.071
0.066
0.0655
0.071
0.0725
0.0755
0.0795
0.0805
0.084
0.091
0.091
0.086
0.086
0.083
0.085
0.09
0.093
0.093
0.095
0.0975
0.096
0.1005
0.104
0.103
0.1005
0.1025
0.1035
0.0975
0.101
0.1055
0.1015
0.0965
0.094
0.0975
0.1
0.1015
0.1045
0.1045
0.103
0.1005
0.0995
0.098
0.0975
0.099
0.1
0.1
0.1015
0.104
0.1065
0.1065
0.1015
0.0995
0.099
0.094
0.0895
0.0895
0.089
0.088
0.0835
0.077
0.0755
0.077
0.0775
0.075
0.0665
0.0655
0.068
0.0635
0.057
0.052
0.0565
0.059
0.0585
0.057
0.055
0.053
0.046
0.0425
0.0455
0.051
0.045
0.0345
0.033
0.0315
0.0285
0.0255
0.0275
0.0285
0.028
0.026
0.0245
0.0265
0.023
0.0185
0.0175
0.012
0.0075
0.008
0.005
0.0045
0.0065
0.0075
0.0085
0.005
0.0015
-0.0005
0.0
0.0015
0.0005
0.0
-0.003
-0.003
-0.0005
0.0005
0.002
0.001
0.001
-0.0005
0.001
0.0045
0.0
-0.003
-0.001
-0.0015
-0.0025
-0.0025
-0.0025
-0.0015
-0.004
-0.007
-0.0095
-0.0075
-0.006
-0.006
-0.007
-0.0105
-0.0135
-0.013
-0.0105
-0.0095
-0.006
-0.005
-0.007
-0.0105
-0.011
-0.009
-0.0085
-0.0035
-0.006
-0.0095
-0.0095
-0.0135
-0.0115
-0.0115
-0.0075
-0.008
-0.0095
-0.005
-0.0085
-0.0055
-0.005
-0.0065
-0.0075
-0.0125
-0.011
-0.014
-0.015
-0.01
-0.0095
-0.006
-0.006
-0.0135
-0.0145
-0.01
-0.01
-0.0125
-0.0105
-0.0105
-0.0065
-0.004
-0.006
-0.007
-0.009
-0.007
-0.011
-0.0115
-0.0065
-0.0075
-0.004
-0.004
-0.01
-0.0055
-0.0035
-0.0075
-0.0055
0.001
-0.0015
-0.0085
-0.01
-0.0085
-0.0035
-0.0025
-0.0025
-0.0035
-0.007
-0.0055
-0.0055
-0.004
-0.004
-0.007
-0.0045
-0.0035
-0.0085
-0.007
-0.004
-0.003
-0.002
-0.005
-0.0075
-0.009
-0.007
-0.006
-0.0025
0.0005
-0.0045
-0.0085
-0.0045
0.0015
0.0005
-0.004
-0.0015
0.0015
0.001
0.001
0.0005
0.001
0.0
-0.0025
-0.0005
-0.003
-0.004
0.0005
0.0005
0.0005
0.0
-0.002
-0.0005
0.001
-0.0025
-0.0025
0.0005
0.0035
0.0
-0.0015
0.004
0.0045
0.0065
0.0035
0.0035
0.006
0.0045
0.004
0.004
0.004
0.0015
0.0
-0.003
0.003
0.005
0.0
0.0045
0.0065
0.0045
0.0
-0.0025
0.0
0.003
0.0055
0.0035
-0.0005
-0.0015
-0.0035
-0.006
-0.006
-0.0065
-0.006
-0.006
-0.005
-0.0065
-0.013
-0.0105
-0.0095
-0.009
-0.006
-0.0095
-0.007
-0.008
-0.01
-0.0065
-0.0095
-0.0075
-0.0035
-0.0035
-0.0065
-0.0115
-0.012
-0.006
-0.004
-0.005
-0.0005
-0.0035
-0.0015
0.0035
0.0025
0.005
0.0025
-0.004
-0.0095
-0.0075
-0.0045
-0.003
-0.003
-0.007
-0.007
-0.006
-0.0075
-0.009
-0.01
-0.008
-0.0055
-0.0055
-0.0075
-0.004
-0.001
-0.002
-0.0035
-0.0065
-0.009
-0.007
-0.0055
-0.009
-0.0055
-0.001
-0.004
-0.0085
-0.0055
-0.0025
-0.0005
0.0035
0.003
-0.001
-0.0055
-0.003
-0.0075
-0.006
-0.002
-0.0015
0.001
-0.003
-0.0025
-0.0015
0.002
0.004
-0.0035
-0.0065
-0.006
-0.0055
-0.001
0.0005
-0.005
-0.0065
-0.0025
-0.0035
-0.0055
-0.0055
-0.0085
-0.004
-0.001
-0.003
-0.0005
-0.001
0.0
-0.001
-0.0025
-0.003
-0.004
-0.0035
0.002
0.004
0.0015
-0.002
-0.003
0.0005
0.001
0.005
0.005
0.003
0.001
-0.0025
-0.0035
-0.006
-0.0025
-0.005
-0.006
-0.002
-0.0045
-0.0055
-0.0045
-0.0045
-0.0025
-0.002
0.0005
-0.0005
-0.0035
-0.002
-0.003
-0.002
-0.0045
-0.0095
-0.008
-0.009
-0.01
-0.0075
-0.0095
-0.0115
-0.01
-0.008
-0.005
-0.001
-0.0015
-0.0075
-0.0055
-0.007
-0.01
-0.012
-0.0105
-0.01
-0.0135
-0.0145
-0.0165
-0.016
-0.019
-0.0175
-0.017
-0.018
-0.0165
-0.0145
-0.009
-0.012
-0.0125
-0.0105
-0.0085
-0.003
-0.0025
-0.005
-0.0065
-0.008
-0.0105
-0.009
-0.007
-0.006
-0.005
-0.004
-0.0025
-0.003
-0.0055
-0.0065
-0.0055
-0.0035
-0.0005
0.0
-0.004
-0.003
-0.0035
0.0015
0.002
-0.0025
-0.003
-0.0065
-0.0015
-0.001
-0.0025
-0.0025
-0.0045
-0.0025
-0.0015
-0.0005
0.002
0.004
0.004
0.0035
0.0
-0.006
-0.007
-0.0045
-0.0035
-0.0045
-0.0055
-0.0025
-0.0025
-0.0015
0.0035
0.005
0.004
-0.0005
-0.0035
-0.0015
-0.001
-0.0035
-0.0015
0.003
0.004
0.004
0.008
0.0085
0.0065
0.007
0.007
0.005
0.009
0.011
0.0085
0.0105
0.007
0.004
0.0065
0.0065
0.007
0.01
0.0105
0.0085
0.006
0.004
0.0025
0.0005
0.001
0.0005
0.0005
0.0005
-0.001
0.0015
-0.0025
-0.004
0.0005
0.0
0.001
0.0005
0.004
0.0085
0.0115
0.013
0.011
0.011
0.0115
0.013
0.0115
0.01
0.0065
0.0065
0.009
0.006
0.007
0.008
0.0065
0.0075
0.0075
0.011
0.0215
0.0245
0.025
0.027
0.0285
0.03
0.0335
0.035
0.035
0.0345
0.031
0.0285
0.028
0.03
0.033
0.038
0.0435
0.0465
0.046
0.044
0.048
0.0525
0.0545
0.0585
0.0615
0.058
0.059
0.06
0.057
0.0515
0.0525
0.056
0.0545
0.0515
0.0475
0.049
0.0465
0.0445
0.0425
0.039
0.0375
0.0335
0.0325
0.03
0.0285
0.027
0.02
0.0155
0.0155
0.011
0.0065
0.007
0.005
0.001
0.0
0.001
-0.003
-0.007
-0.0075
-0.006
-0.006
-0.0055
-0.006
-0.01
-0.01
-0.0115
-0.012
-0.0135
-0.0135
-0.015
-0.02
-0.021
-0.0185
-0.0155
-0.012
-0.0125
-0.0155
-0.016
-0.016
-0.014
-0.0125
-0.0105
-0.013
-0.017
-0.0195
-0.017
-0.013
-0.015
-0.0125
-0.014
-0.015
-0.0155
-0.015
-0.0155
-0.0165
-0.0165
-0.021
-0.0185
-0.0155
-0.011
-0.011
-0.0145
-0.016
-0.014
-0.011
-0.008
0.0025
0.0115
0.0145
0.012
0.008
0.003
-0.0015
-0.0045
-0.0045
0.0065
0.018
0.033
0.051
0.066
0.0875
0.1105
0.131
0.1615
0.2055
0.2505
0.281
0.303
0.329
0.3575
0.396
0.442
0.481
0.512
0.5375
0.561
0.5785
0.5965
0.609
0.6165
0.6075
0.5815
0.5545
0.5155
0.477
0.4335
0.3835
0.324
0.2695
0.22
0.1655
0.123
0.077
0.0355
0.006
-0.004
0.0015
-0.0085
-0.018
-0.022
-0.021
-0.0185
-0.025
-0.036
-0.0445
-0.0475
-0.045
-0.039
-0.0365
-0.0405
-0.0425
-0.0375
-0.0365
-0.033
-0.03
-0.033
-0.0305
-0.0265
-0.0215
-0.017
-0.0145
-0.0095
-0.0045
-0.001
0.001
-0.002
-0.0065
-0.005
-0.0025
-0.0045
-0.0085
-0.0105
-0.008
-0.0065
-0.0035
-0.001
-0.0025
-0.0025
-0.005
-0.0035
-0.0025
-0.002
-0.001
-0.0025
-0.003
0.0
-0.0005
-0.003
-0.0045
-0.0045
-0.004
-0.006
-0.007
-0.009
-0.01
-0.0125
-0.01
-0.01
-0.015
-0.0135
-0.0105
-0.0065
-0.0015
-0.002
-0.003
-0.002
0.0005
-0.0005
-0.0075
-0.0075
-0.0065
-0.0055
-0.004
-0.006
-0.0035
-0.003
-0.0035
-0.0075
-0.0095
-0.01
-0.0115
-0.009
-0.007
-0.0055
-0.0055
-0.0055
-0.0055
-0.0065
-0.004
-0.0065
-0.0105
-0.01
-0.0115
-0.0115
-0.011
-0.0075
-0.009
-0.0145
-0.0155
-0.0115
-0.007
-0.0065
-0.003
-0.0005
-0.0005
-0.0015
-0.001
0.001
0.0005
0.0025
0.004
0.0045
0.0015
-0.0005
0.003
0.0045
0.0055
0.001
-0.001
0.0035
0.006
0.006
0.005
0.007
0.007
0.0075
0.0105
0.0105
0.013
0.0145
0.013
0.014
0.012
0.0105
0.013
0.0105
0.005
0.0055
0.007
0.0095
0.013
0.011
0.012
0.011
0.0055
0.008
0.014
0.016
0.02
0.021
0.018
0.018
0.0195
0.0205
0.0215
0.022
0.019
0.019
0.0255
0.0305
0.032
0.0325
0.032
0.03
0.0315
0.034
0.035
0.037
0.0385
0.0385
0.0355
0.0355
0.036
0.0415
0.044
0.039
0.037
0.0355
0.0375
0.0395
0.0445
0.048
0.0495
0.048
0.045
0.0465
0.0495
0.0565
0.059
0.0555
0.0565
0.0585
0.0615
0.0625
0.0595
0.061
0.0605
0.062
0.066
0.0655
0.0675
0.0715
0.073
0.078
0.0775
0.0765
0.079
0.082
0.0875
0.0875
0.0865
0.0855
0.0875
0.0905
0.092
0.094
0.0965
0.1
0.099
0.1005
0.1
0.102
0.1095
0.106
0.1045
0.1095
0.111
0.109
0.108
0.108
0.1055
0.108
0.1075
0.1085
0.1105
0.11
0.1075
0.108
0.1105
0.1095
0.1115
0.1095
0.108
0.1115
0.1155
0.1135
0.1125
0.119
0.1215
0.1185
0.1135
0.114
0.1135
0.11
0.113
0.113
0.112
0.1115
0.109
0.11
0.11
0.11
0.11
0.111
0.11
0.1075
0.1055
0.1
0.096
0.093
0.09
0.0885
0.0865
0.0845
0.0825
0.081
0.079
0.076
0.071
0.0695
0.0695
0.0675
0.064
0.0645
0.066
0.063
0.0625
0.0605
0.056
0.0555
0.056
0.0575
0.053
0.045
0.0425
0.0425
0.0415
0.0415
0.0415
0.043
0.043
0.039
0.0375
0.034
0.033
0.033
0.0315
0.0315
0.029
0.025
0.022
0.0205
0.0225
0.0225
0.014
0.014
0.0145
0.016
0.018
0.0145
0.015
0.0155
0.013
0.0105
0.0135
0.0145
0.012
0.0105
0.011
0.0105
0.009
0.0105
0.0105
0.011
0.011
0.007
0.005
0.002
0.0015
0.0065
0.011
0.009
0.0045
0.003
0.004
0.0095
0.0105
0.0075
0.009
0.008
0.0055
0.006
0.0045
0.0045
0.004
0.0035
0.003
0.003
0.0025
0.001
0.0015
0.0005
0.0055
0.0075
0.0085
0.0105
0.0065
0.006
0.005
0.0045
0.0035
0.0035
0.0045
0.005
0.0075
0.0045
0.007
0.0075
0.0065
0.008
0.009
0.0105
0.009
0.011
0.011
0.012
0.01
0.009
0.011
0.0115
0.0095
0.0075
0.007
0.004
0.006
0.0085
0.006
0.0045
0.005
0.0035
0.005
0.0055
0.0035
0.0045
0.003
0.0025
0.0035
0.007
0.0065
0.0065
0.004
0.0015
0.003
-0.001
-0.001
0.003
0.004
0.001
0.0015
0.005
0.0065
0.006
0.0065
0.007
0.004
0.005
0.007
0.008
0.0115
0.011
0.0075
0.01
0.01
0.01
0.0105
0.0095
0.0105
0.01
0.0085
0.008
0.0115
0.012
0.0075
0.0115
0.014
0.013
0.017
0.0185
0.019
0.0185
0.0155
0.014
0.0165
0.018
0.021
0.0215
0.019
0.016
0.0115
0.0145
0.017
0.014
0.0115
0.012
0.014
0.0145
0.014
0.014
0.0145
0.013
0.0095
0.0095
0.009
0.009
0.0105
0.0105
0.012
0.0115
0.011
0.0115
0.0155
0.019
0.0155
0.0135
0.015
0.0145
0.0135
0.014
0.0125
0.0105
0.0105
0.01
0.0105
0.015
0.019
0.016
0.013
0.009
0.0085
0.0135
0.0145
0.0175
0.018
0.016
0.014
0.0115
0.013
0.012
0.0095
0.0065
0.0035
0.006
0.0075
0.01
0.014
0.014
0.014
0.0155
0.0135
0.0115
0.016
0.0175
0.0165
0.0175
0.0175
0.0175
0.021
0.024
0.02
0.0205
0.02
0.017
0.018
0.0165
0.014
0.0115
0.0115
0.0095
0.005
0.0065
0.0115
0.0125
0.0105
0.01
0.008
0.004
0.0075
0.0095
0.008
0.0065
0.0045
0.004
0.0045
0.006
0.004
0.005
0.0035
0.0025
0.0025
-0.0015
0.004
0.0035
0.0015
0.0055
0.0045
0.0065
0.009
0.008
0.007
0.008
0.007
0.002
0.0025
0.0045
0.0035
0.005
0.007
0.008
0.0075
0.0065
0.008
0.007
0.0055
0.007
0.005
0.004
0.0045
0.003
0.004
0.004
0.001
0.001
-0.0005
-0.0005
0.003
0.0025
-0.0025
-0.009
-0.0105
-0.006
0.001
0.002
0.001
-0.0015
-0.003
-0.0025
-0.004
-0.0005
-0.0005
-0.0005
0.0005
0.0005
0.0035
0.002
0.0005
0.0005
0.0015
0.006
0.004
0.001
0.004
0.0045
0.0055
0.005
0.0045
0.0045
0.0035
0.003
0.0025
0.002
-0.0005
-0.0025
-0.0025
0.001
0.0005
-0.002
-0.003
-0.006
-0.003
-0.0005
0.003
0.0045
0.0055
0.0075
0.0085
0.01
0.006
0.007
0.0065
0.004
0.0025
0.002
0.0015
-0.001
0.0005
0.0005
-0.002
-0.002
-0.0025
-0.0015
-0.0015
-0.0005
0.001
0.001
0.0005
0.001
0.0045
0.0065
0.0045
0.0025
-0.001
-0.002
0.001
-0.001
-0.003
-0.0055
-0.0095
-0.0095
-0.0095
-0.0075
-0.005
-0.003
-0.002
-0.0025
-0.002
-0.0005
0.0005
0.0005
0.001
0.0005
0.0015
0.0015
0.001
0.004
0.0065
0.0095
0.0115
0.0135
0.012
0.006
0.009
0.0115
0.0075
0.005
0.0025
-0.0015
-0.0045
0.0
0.004
0.003
0.003
0.0005
0.001
-0.0015
-0.0015
-0.0005
0.0
0.005
0.003
0.0035
0.006
0.009
0.0075
0.011
0.013
0.0075
0.0095
0.012
0.0105
0.0105
0.009
0.002
0.002
0.005
0.003
0.007
0.008
0.004
0.004
0.004
0.005
0.007
0.004
0.0025
0.0025
0.0015
0.0015
0.0045
0.0055
0.009
0.011
0.0105
0.011
0.0085
0.0095
0.0115
0.012
0.017
0.019
0.0205
0.021
0.0185
0.0185
0.015
0.017
0.0215
0.02
0.0215
0.0225
0.019
0.017
0.019
0.019
0.0215
0.0245
0.0245
0.0255
0.025
0.0255
0.0285
0.0285
0.03
0.031
0.029
0.031
0.0315
0.0345
0.036
0.0315
0.03
0.029
0.028
0.028
0.029
0.0325
0.035
0.035
0.0365
0.0405
0.042
0.045
0.053
0.0555
0.0555
0.059
0.059
0.0625
0.064
0.0575
0.0585
0.0585
0.056
0.0585
0.0615
0.065
0.0635
0.064
0.067
0.0695
0.072
0.0725
0.076
0.0775
0.074
0.0745
0.072
0.0715
0.072
0.0695
0.0685
0.066
0.068
0.067
0.063
0.061
0.0595
0.055
0.0505
0.049
0.048
0.053
0.0515
0.047
0.047
0.0415
0.034
0.031
0.03
0.03
0.0265
0.022
0.023
0.02
0.0185
0.0195
0.0165
0.0125
0.007
0.0055
0.008
0.008
0.0045
0.004
0.0055
0.007
0.0075
0.0085
0.0105
0.0085
0.007
0.0075
0.0055
0.006
0.0065
0.005
0.0015
0.0005
0.0025
0.0015
0.002
0.0055
0.0075
0.0075
0.0075
0.007
0.0045
0.005
0.006
0.0035
-0.001
-0.002
-0.0005
0.003
0.0045
0.0015
-0.0005
-0.006
-0.0055
-0.003
-0.002
0.002
0.003
0.0055
0.0125
0.0145
0.018
0.026
0.028
0.0245
0.02
0.015
0.0085
0.0095
0.02
0.0325
0.047
0.065
0.0805
0.1005
0.125
0.1475
0.1755
0.2155
0.261
0.295
0.3165
0.336
0.3645
0.4015
0.449
0.49
0.522
0.5515
0.5705
0.5985
0.62
0.638
0.6515
0.6515
0.641
0.6155
0.585
0.5475
0.5075
0.463
0.414
0.3575
0.3045
0.2545
0.2025
0.1535
0.11
0.0785
0.051
0.052
0.0615
0.053
0.042
0.0355
0.033
0.032
0.028
0.016
0.0105
0.009
0.0055
0.003
0.002
-0.0005
0.003
0.008
0.007
0.008
0.0105
0.009
0.009
0.0105
0.006
0.0075
0.014
0.017
0.0195
0.022
0.02
0.0195
0.019
0.0155
0.0125
0.0105
0.0095
0.0095
0.012
0.011
0.0115
0.0155
0.0155
0.0145
0.0125
0.0165
0.0185
0.0155
0.014
0.011
0.011
0.0075
0.008
0.0105
0.012
0.013
0.011
0.0105
0.011
0.014
0.0125
0.013
0.0145
0.017
0.021
0.0215
0.021
0.021
0.0215
0.026
0.032
0.0285
0.0255
0.022
0.021
0.024
0.0195
0.0185
0.02
0.021
0.0215
0.022
0.0225
0.022
0.0225
0.021
0.022
0.024
0.0225
0.0215
0.022
0.024
0.0245
0.025
0.0245
0.0245
0.025
0.023
0.025
0.028
0.025
0.0245
0.0245
0.0265
0.0265
0.0245
0.0265
0.028
0.0295
0.0295
0.027
0.0295
0.0335
0.029
0.0295
0.03
0.0255
0.0255
0.023
0.022
0.0235
0.0235
0.022
0.0235
0.0265
0.0275
0.027
0.0285
0.0315
0.0305
0.031
0.03
0.031
0.032
0.0315
0.0315
0.03
0.028
0.028
0.0315
0.0295
0.0295
0.0345
0.035
0.034
0.032
0.029
0.03
0.032
0.032
0.0335
0.0315
0.03
0.0345
0.0355
0.035
0.0345
0.035
0.038
0.039
0.036
0.035
0.0375
0.0385
0.041
0.042
0.041
0.0425
0.044
0.0435
0.045
0.0465
0.0485
0.0535
0.0585
0.058
0.061
0.063
0.0625
0.062
0.0605
0.062
0.0575
0.053
0.0535
0.0555
0.0605
0.0635
0.063
0.065
0.067
0.069
0.0695
0.0705
0.074
0.0725
0.073
0.074
0.076
0.0785
0.0775
0.0815
0.084
0.085
0.084
0.082
0.0865
0.09
0.0925
0.0925
0.094
0.096
0.0935
0.0985
0.1025
0.104
0.1065
0.107
0.108
0.1085
0.1095
0.11
0.11
0.1115
0.113
0.1155
0.119
0.121
0.121
0.1225
0.127
0.126
0.1245
0.123
0.1215
0.122
0.1195
0.119
0.122
0.1235
0.123
0.125
0.127
0.1255
0.1245
0.1285
0.129
0.131
0.133
0.133
0.135
0.135
0.134
0.1365
0.1395
0.1415
0.14
0.138
0.136
0.1345
0.135
0.137
0.136
0.1315
0.125
0.12
0.1225
0.123
0.121
0.123
0.1205
0.119
0.1195
0.1175
0.117
0.116
0.11
0.107
0.1065
0.103
0.103
0.096
0.09
0.0895
0.0865
0.084
0.0845
0.0845
0.0845
0.0845
0.08
0.079
0.0725
0.072
0.0745
0.072
0.07
0.0675
0.0675
0.0655
0.0615
0.0575
0.055
0.053
0.052
0.05
0.05
0.052
0.05
0.048
0.049
0.051
0.048
0.045
0.045
0.044
0.039
0.035
0.038
0.038
0.0365
0.038
0.038
0.0335
0.034
0.0385
0.0365
0.0385
0.0385
0.033
0.034
0.0325
0.0305
0.0315
0.0285
0.03
0.0305
0.0305
0.0315
0.031
0.033
0.0315
0.028
0.028
0.0235
0.0205
0.021
0.0235
0.026
0.027
0.0305
0.027
0.0245
0.0235
0.0215
0.0235
0.021
0.022
0.023
0.02
0.0185
0.0155
0.015
0.0135
0.0115
0.0145
0.0135
0.0145
0.0135
0.0095
0.0105
0.013
0.014
0.014
0.0115
0.0115
0.0105
0.0065
0.007
0.0085
0.008
0.0065
0.005
0.005
0.006
0.006
0.008
0.0115
0.011
0.0105
0.012
0.0145
0.0115
0.0125
0.01
0.007
0.007
0.007
0.0065
0.0055
0.008
0.0075
0.0075
0.0085
0.0085
0.011
0.01
0.006
0.007
0.006
0.0065
0.01
0.011
0.0125
0.0135
0.0125
0.008
0.0115
0.015
0.0115
0.0105
0.01
0.009
0.007
0.007
0.0095
0.0115
0.011
0.008
0.009
0.008
0.01
0.014
0.0095
0.011
0.0095
0.0065
0.009
0.0095
0.0105
0.01
0.008
0.0075
0.0075
0.0075
0.0085
0.011
0.009
0.007
0.0075
0.0095
0.0125
0.0155
0.018
0.016
0.0155
0.0165
0.015
0.015
0.0145
0.0155
0.017
0.0185
0.0165
0.014
0.0145
0.014
0.018
0.0175
0.0125
0.0125
0.0115
0.0105
0.011
0.013
0.0135
0.011
0.012
0.0115
0.0135
0.0165
0.0165
0.0185
0.014
0.0105
0.0125
0.014
0.016
0.015
0.0145
0.015
0.015
0.017
0.0185
0.0215
0.0185
0.018
0.014
0.0075
0.008
0.0075
0.012
0.0115
0.009
0.007
0.007
0.0075
0.008
0.0115
0.0095
0.0075
0.0065
0.0065
0.008
0.0085
0.0075
0.0075
0.009
0.0085
0.008
0.0075
0.0085
0.0085
0.0075
0.006
0.0055
0.0085
0.01
0.009
0.0055
0.0055
0.006
0.005
0.0025
0.003
0.0035
0.0
0.004
0.004
0.0005
0.001
-0.001
0.0015
0.003
0.0025
0.0015
0.0035
0.003
-0.0025
-0.001
0.0
-0.003
-0.0005
0.003
0.006
0.0085
0.006
0.0045
0.0015
0.0015
0.002
-0.001
-0.003
-0.0025
0.0
0.001
0.0005
-0.002
-0.002
-0.0025
-0.0045
-0.0055
-0.0065
-0.0045
-0.003
-0.0045
-0.006
-0.0055
-0.004
-0.0055
-0.007
-0.004
-0.002
-0.0055
-0.007
-0.0045
-0.0025
0.0
0.006
0.007
0.0025
0.0
-0.001
-0.0005
0.001
0.001
0.0
0.002
0.0035
0.005
0.0055
0.0045
0.004
0.0
-0.0015
-0.0015
0.0005
0.0055
0.0035
0.001
-0.0025
-0.005
-0.0035
-0.002
-0.003
-0.002
-0.002
-0.003
-0.0025
-0.0025
-0.002
-0.001
-0.003
-0.0055
-0.006
-0.006
-0.0055
-0.004
-0.0025
-0.0065
-0.008
-0.006
-0.0045
-0.002
-0.002
-0.0025
-0.0025
-0.0005
-0.0005
-0.0025
-0.0015
-0.0005
0.001
-0.0005
0.0005
0.001
0.002
0.001
-0.002
0.0015
-0.0005
-0.0025
-0.001
-0.0015
0.0005
0.0005
-0.002
-0.0055
-0.0045
-0.0025
-0.0045
-0.0015
-0.002
-0.0005
-0.0025
-0.0065
-0.0055
-0.009
-0.0085
-0.0075
-0.006
-0.0075
-0.0085
-0.0055
-0.005
-0.0035
-0.0035
-0.0045
-0.0025
-0.004
-0.006
-0.003
-0.004
-0.004
-0.003
-0.0045
-0.002
-0.003
-0.005
-0.005
-0.005
-0.0035
-0.003
-0.001
0.0015
0.0
-0.0035
-0.003
-0.0015
0.0025
0.0045
0.001
-0.0015
-0.0035
-0.005
-0.001
0.003
0.002
0.0
-0.0005
0.0005
-0.0005
-0.001
-0.001
0.0
0.001
0.0005
0.0005
0.002
0.001
-0.002
0.001
-0.002
-0.006
-0.0065
-0.0065
-0.0025
0.001
-0.001
-0.0025
0.0
0.003
0.0045
0.0025
0.0005
-0.001
-0.0025
-0.0035
-0.005
-0.0045
-0.0035
-0.003
-0.002
-0.006
-0.0105
-0.0125
-0.0115
-0.0065
-0.0055
-0.004
-0.0045
-0.0085
-0.007
-0.007
-0.0085
-0.0085
-0.013
-0.013
-0.0125
-0.012
-0.009
-0.0115
-0.0135
-0.0125
-0.014
-0.01
-0.0065
-0.007
-0.002
-0.0005
-0.0015
0.0
0.0
0.0
0.0015
-0.002
-0.006
-0.0055
-0.007
-0.0035
0.0005
0.001
-0.001
-0.0025
-0.006
-0.011
-0.0055
0.0015
0.0015
0.0
0.0015
0.005
0.0085
0.011
0.013
0.015
0.014
0.0135
0.012
0.009
0.0075
0.005
0.003
0.0015
0.0025
0.0055
0.0075
0.009
0.012
0.0165
0.0185
0.022
0.0235
0.028
0.0335
0.037
0.038
0.0385
0.0385
0.0355
0.034
0.0315
0.033
0.032
0.0335
0.039
0.041
0.045
0.046
0.0485
0.054
0.056
0.055
0.058
0.06
0.0645
0.0645
0.063
0.066
0.0645
0.058
0.054
0.0565
0.0545
0.051
0.0495
0.048
0.045
0.041
0.0395
0.0355
0.032
0.033
0.032
0.031
0.027
0.021
0.0175
0.014
0.0115
0.008
0.008
0.0085
0.0015
-0.005
-0.006
-0.006
-0.008
-0.0095
-0.0125
-0.0135
-0.015
-0.0165
-0.0155
-0.014
-0.013
-0.0175
-0.0195
-0.02
-0.021
-0.022
-0.023
-0.023
-0.0235
-0.023
-0.0225
-0.023
-0.0245
-0.027
-0.0315
-0.032
-0.029
-0.0305
-0.0325
-0.0315
-0.0295
-0.0315
-0.033
-0.033
-0.035
-0.0345
-0.0335
-0.036
-0.038
-0.0405
-0.038
-0.0355
-0.0365
-0.037
-0.036
-0.0355
-0.0365
-0.034
-0.033
-0.034
-0.032
-0.027
-0.018
-0.0135
-0.0135
-0.0125
-0.016
-0.0195
-0.0245
-0.0315
-0.0255
-0.01
0.0035
0.018
0.0385
0.057
0.075
0.0975
0.1225
0.1605
0.2095
0.2505
0.28
0.301
0.3295
0.36
0.4
0.451
0.4835
0.517
0.5465
0.57
0.594
0.611
0.622
0.626
0.62
0.599
0.574
0.5365
0.4905
0.4435
0.392
0.3335
0.2735
0.2265
0.179
0.13
0.079
0.0375
0.008
-0.0005
0.005
-0.002
-0.0115
-0.024
-0.0285
-0.031
-0.038
-0.039
-0.045
-0.0505
-0.0505
-0.047
-0.0485
-0.0565
-0.0545
-0.0485
-0.0445
-0.0445
-0.048
-0.0465
-0.0475
-0.043
-0.0365
-0.037
-0.034
-0.0285
-0.0255
-0.025
-0.0265
-0.03
-0.028
-0.0265
-0.0265
-0.0265
-0.029
-0.03
-0.033
-0.0335
-0.0335
-0.031
-0.0295
-0.0325
-0.0305
-0.0295
-0.0315
-0.0285
-0.0305
-0.032
-0.0275
-0.0265
-0.0265
-0.0265
-0.0255
-0.0255
-0.025
-0.023
-0.023
-0.0235
-0.023
-0.023
-0.023
-0.0215
-0.0215
-0.0195
-0.02
-0.02
-0.02
-0.0235
-0.0225
-0.023
-0.021
-0.019
-0.0195
-0.0165
-0.0155
-0.0185
-0.019
-0.019
-0.0175
-0.0155
-0.0175
-0.022
-0.021
-0.02
-0.02
-0.014
-0.0125
-0.0135
-0.0145
-0.016
-0.018
-0.019
-0.0145
-0.0125
-0.0135
-0.0175
-0.02
-0.0245
-0.0255
-0.02
-0.02
-0.021
-0.022
-0.0205
-0.014
-0.0135
-0.0165
-0.019
-0.02
-0.021
-0.0205
-0.0145
-0.0135
-0.0155
-0.018
-0.02
-0.0195
-0.0185
-0.0145
-0.0135
-0.013
-0.012
-0.0125
-0.011
-0.0105
-0.0075
-0.004
-0.0065
-0.012
-0.0165
-0.0165
-0.012
-0.0125
-0.012
-0.007
-0.0095
-0.0135
-0.012
-0.0085
-0.007
-0.0065
-0.005
-0.005
-0.0055
-0.0005
-0.0015
0.001
0.005
0.0025
0.0015
-0.003
-0.0055
-0.006
-0.0025
0.001
0.002
0.0015
0.001
0.0045
0.007
0.0085
0.012
0.0135
0.012
0.015
0.0185
0.0175
0.021
0.02
0.0175
0.018
0.019
0.0205
0.021
0.019
0.0145
0.0165
0.021
0.027
0.029
0.032
0.035
0.035
0.0355
0.035
0.0365
0.0385
0.0385
0.038
0.0405
0.0395
0.04
0.0435
0.0455
0.0495
0.0495
0.0465
0.044
0.047
0.0515
0.05
0.049
0.0485
0.053
0.062
0.064
0.062
0.062
0.0635
0.0665
0.0715
0.074
0.071
0.0715
0.071
0.0715
0.0755
0.0735
0.0775
0.086
0.0865
0.086
0.089
0.0875
0.0885
0.094
0.097
0.095
0.089
0.0855
0.0875
0.0915
0.0905
0.0895
0.091
0.09
0.0905
0.091
0.0925
0.096
0.095
0.0935
0.096
0.0985
0.0975
0.1005
0.104
0.103
0.1035
0.106
0.106
0.1055
0.105
0.1045
0.104
0.0995
0.097
0.0955
0.0965
0.0995
0.1015
0.101
0.1
0.1005
0.095
0.098
0.1015
0.1005
0.096
0.0915
0.0895
0.0905
0.093
0.09
0.0915
0.0875
0.0795
0.072
0.071
0.0755
0.075
0.0685
0.0625
0.061
0.059
0.057
0.056
0.0545
0.049
0.048
0.0475
0.046
0.044
0.039
0.0335
0.032
0.03
0.028
0.028
0.0275
0.0285
0.03
0.0285
0.027
0.0225
0.021
0.0235
0.0205
0.0165
0.0155
0.0165
0.0115
0.0075
0.0135
0.012
0.0055
0.006
0.0085
0.008
0.008
0.0055
0.004
0.0065
0.0035
0.005
0.008
0.0075
0.009
0.0035
-0.0005
0.0005
0.0005
0.002
0.003
-0.002
-0.0065
-0.0065
-0.005
-0.005
-0.006
-0.0045
-0.002
0.001
-0.003
-0.0085
-0.0055
-0.0035
-0.0005
-0.0055
-0.009
-0.0035
-0.0015
-0.0015
-0.006
-0.01
-0.01
-0.0085
-0.0045
-0.0025
-0.004
-0.0035
-0.005
-0.0075
-0.0105
-0.0045
0.0005
0.0005
0.0
-0.0025
-0.004
-0.005
-0.0055
-0.011
-0.0055
-0.006
-0.0125
-0.01
-0.008
-0.0065
-0.008
-0.0035
0.0
-0.002
0.0
0.0
-0.0045
-0.0075
-0.006
-0.0035
-0.004
-0.006
-0.006
-0.007
-0.007
-0.005
-0.0085
-0.0105
-0.005
-0.0025
-0.006
-0.006
-0.009
-0.008
-0.0055
-0.006
-0.002
-0.0055
-0.0045
-0.0005
-0.0045
-0.002
-0.003
-0.0055
-0.0025
-0.0025
-0.004
-0.0015
-0.002
-0.003
0.0
0.003
0.0025
-0.0005
-0.002
-0.002
-0.002
-0.003
-0.0005
0.001
-0.0035
-0.0055
-0.005
-0.006
-0.006
-0.007
-0.009
-0.01
-0.0115
-0.0085
-0.007
-0.0095
-0.009
-0.0105
-0.0105
-0.0075
-0.005
-0.0045
-0.0055
-0.007
-0.008
-0.009
-0.0045
-0.001
-0.0045
-0.0065
-0.0075
-0.0025
-0.0025
-0.007
-0.0055
-0.007
-0.008
-0.0025
-0.002
-0.0005
-0.004
-0.013
-0.008
-0.0055
-0.008
-0.0025
0.001
-0.0015
-0.0055
-0.0095
-0.014
-0.0085
-0.002
-0.0025
-0.004
-0.0055
-0.0025
0.0
0.0025
0.0
-0.0025
-0.0025
-0.0055
-0.007
-0.0055
-0.0055
-0.0075
-0.0095
-0.0095
-0.009
-0.01
-0.013
-0.013
-0.0155
-0.0165
-0.013
-0.0175
-0.02
-0.017
-0.015
-0.017
-0.022
-0.0205
-0.0185
-0.0245
-0.0235
-0.0195
-0.0215
-0.02
-0.0205
-0.02
-0.0155
-0.0105
-0.0125
-0.016
-0.015
-0.0205
-0.0215
-0.0185
-0.017
-0.0145
-0.016
-0.022
-0.022
-0.017
-0.0185
-0.0205
-0.022
-0.0255
-0.027
-0.026
-0.023
-0.0185
-0.019
-0.025
-0.0295
-0.028
-0.023
-0.0225
-0.0215
-0.0195
-0.0205
-0.0215
-0.021
-0.0225
-0.024
-0.0235
-0.0225
-0.0225
-0.0255
-0.0275
-0.0305
-0.03
-0.0245
-0.0215
-0.0215
-0.0245
-0.0275
-0.0295
-0.0255
-0.025
-0.025
-0.0245
-0.0295
-0.0285
-0.0215
-0.0205
-0.0235
-0.0235
-0.0215
-0.02
-0.024
-0.023
-0.022
-0.019
-0.0145
-0.019
-0.02
-0.0195
-0.0225
-0.023
-0.0195
-0.016
-0.0165
-0.02
-0.0255
-0.023
-0.02
-0.02
-0.0185
-0.0175
-0.016
-0.0205
-0.0225
-0.0205
-0.023
-0.024
-0.0215
-0.0195
-0.0225
-0.02
-0.0215
-0.0205
-0.0165
-0.0235
-0.027
-0.0225
-0.0195
-0.02
-0.0225
-0.023
-0.023
-0.0225
-0.0175
-0.02
-0.019
-0.0155
-0.018
-0.0215
-0.026
-0.027
-0.024
-0.021
-0.0175
-0.019
-0.021
-0.0145
-0.0125
-0.0125
-0.0145
-0.0195
-0.02
-0.0195
-0.018
-0.017
-0.0165
-0.0145
-0.0185
-0.022
-0.017
-0.016
-0.0155
-0.011
-0.0125
-0.0155
-0.0175
-0.0195
-0.024
-0.0255
-0.0215
-0.025
-0.0255
-0.0215
-0.0215
-0.023
-0.023
-0.0235
-0.0235
-0.0195
-0.019
-0.0165
-0.017
-0.0235
-0.0265
-0.0285
-0.0285
-0.026
-0.028
-0.0285
-0.027
-0.028
-0.0295
-0.0275
-0.029
-0.028
-0.0245
-0.026
-0.026
-0.0305
-0.032
-0.0295
-0.029
-0.0295
-0.032
-0.03
-0.028
-0.023
-0.0255
-0.028
-0.025
-0.0255
-0.025
-0.0275
-0.027
-0.021
-0.0195
-0.02
-0.0215
-0.0265
-0.0275
-0.0235
-0.0205
-0.02
-0.022
-0.023
-0.023
-0.021
-0.0195
-0.016
-0.0115
-0.01
-0.0095
-0.0085
-0.0105
-0.0135
-0.0115
-0.011
-0.01
-0.01
-0.0075
-0.0085
-0.0105
-0.0105
-0.014
-0.013
-0.0145
-0.016
-0.016
-0.0145
-0.013
-0.0135
-0.013
-0.015
-0.0145
-0.013
-0.013
-0.0125
-0.0135
-0.0135
-0.011
-0.0095
-0.0065
-0.0055
-0.007
-0.007
-0.009
-0.0095
-0.009
-0.0095
-0.011
-0.013
-0.0155
-0.012
-0.005
-0.0035
-0.0055
-0.0075
-0.0025
0.0
0.002
0.006
0.004
0.0025
0.0005
0.0015
0.002
0.0035
0.006
0.0035
0.0
0.001
0.004
0.0055
0.0035
0.001
0.0035
0.005
0.0055
0.009
0.0115
0.015
0.0165
0.015
0.021
0.0215
0.021
0.025
0.0255
0.0305
0.03
0.0255
0.0295
0.0315
0.028
0.0275
0.0295
0.031
0.033
0.03
0.031
0.0415
0.044
0.0405
0.043
0.047
0.0495
0.0445
0.042
0.0455
0.0425
0.0375
0.036
0.0405
0.0415
0.0365
0.0315
0.0335
0.0345
0.0285
0.031
0.03
0.028
0.0255
0.019
0.0155
0.0115
0.006
0.0015
0.003
-0.001
-0.005
-0.009
-0.0165
-0.0165
-0.016
-0.0205
-0.0195
-0.0155
-0.0175
-0.0185
-0.016
-0.0155
-0.0185
-0.017
-0.009
-0.014
-0.0205
-0.0225
-0.0285
-0.0295
-0.027
-0.0265
-0.0245
-0.021
-0.0235
-0.028
-0.023
-0.019
-0.022
-0.024
-0.0235
-0.0215
-0.022
-0.0215
-0.023
-0.0265
-0.024
-0.021
-0.0235
-0.0335
-0.0365
-0.0315
-0.0285
-0.0275
-0.0285
-0.026
-0.027
-0.028
-0.023
-0.0235
-0.0265
-0.0265
-0.0245
-0.0265
-0.0285
-0.025
-0.022
-0.0175
-0.012
-0.01
-0.007
-0.005
-0.011
-0.0155
-0.0235
-0.029
-0.0175
-0.003
0.0135
0.031
0.048
0.0695
0.0915
0.1125
0.1405
0.1825
0.23
0.2655
0.289
0.321
0.346
0.3825
0.439
0.4795
0.512
0.533
0.5555
0.5785
0.5915
0.6075
0.61
0.5985
0.573
0.5495
0.5175
0.47
0.422
0.3735
0.314
0.2485
0.2045
0.1535
0.1075
0.0605
0.0125
-0.0135
-0.0295
-0.021
-0.0195
-0.0285
-0.0365
-0.0395
-0.042
-0.055
-0.066
-0.073
-0.0775
-0.0775
-0.0735
-0.0685
-0.0665
-0.068
-0.0595
-0.0515
-0.046
-0.0405
-0.044
-0.046
-0.042
-0.0335
-0.03
-0.0295
-0.027
-0.0255
-0.0225
-0.0195
-0.0205
-0.0215
-0.0195
-0.0205
-0.0235
-0.024
-0.022
-0.019
-0.0185
-0.019
-0.0165
-0.015
-0.0125
-0.012
-0.016
-0.017
-0.0155
-0.015
-0.013
-0.013
-0.0145
-0.017
-0.02
-0.0215
-0.0155
-0.0135
-0.015
-0.01
-0.011
-0.0155
-0.0165
-0.0155
-0.015
-0.0165
-0.013
-0.008
-0.0055
-0.0065
-0.01
-0.012
-0.0115
-0.0095
-0.008
-0.012
-0.012
-0.005
-0.0025
-0.002
-0.0015
-0.002
-0.0025
-0.007
-0.007
-0.004
-0.002
0.001
0.0025
-0.001
0.004
0.0025
-0.001
0.002
0.002
0.0045
-0.0015
0.0
0.0045
0.0045
0.0045
0.0005
0.0015
0.0055
0.01
0.011
0.013
0.0105
0.0095
0.0145
0.01
0.0075
0.0065
0.0065
0.011
0.0085
0.007
0.006
0.0055
0.009
0.012
0.0135
0.012
0.0135
0.0145
0.014
0.0175
0.0175
0.0155
0.019
0.018
0.019
0.0205
0.018
0.022
0.023
0.0185
0.021
0.025
0.02
0.0215
0.028
0.0325
0.0305
0.03
0.03
0.025
0.0275
0.0275
0.0265
0.03
0.0345
0.033
0.0325
0.032
0.026
0.0275
0.027
0.025
0.0315
0.038
0.0345
0.0335
0.0355
0.037
0.033
0.0315
0.0375
0.042
0.0435
0.04
0.0445
0.0485
0.0445
0.042
0.045
0.0465
0.0455
0.0455
0.045
0.05
0.052
0.048
0.0495
0.057
0.058
0.0575
0.0625
0.0625
0.0635
0.063
0.059
0.0625
0.067
0.0665
0.071
0.066
0.058
0.071
0.077
0.078
0.0795
0.0795
0.078
0.0735
0.078
0.082
0.0855
0.085
0.087
0.094
0.0965
0.0955
0.096
0.0945
0.092
0.1
0.1035
0.103
0.1055
0.1115
0.112
0.1045
0.107
0.112
0.114
0.1135
0.117
0.121
0.1215
0.121
0.118
0.121
0.1245
0.124
0.123
0.126
0.125
0.124
0.1205
0.118
0.1255
0.128
0.1315
0.134
0.1315
0.131
0.1305
0.1255
0.125
0.127
0.129
0.132
0.1315
0.1345
0.129
0.1255
0.1285
0.128
0.132
0.1335
0.137
0.138
0.134
0.1275
0.122
0.124
0.1275
0.125
0.1135
0.1125
0.117
0.116
0.116
0.113
0.1095
0.1025
0.098
0.0995
0.103
0.0995
0.095
0.1005
0.0945
0.0865
0.0855
0.0835
0.083
0.078
0.076
0.0765
0.0745
0.0725
0.069
0.065
0.061
0.06
0.058
0.062
0.058
0.052
0.0515
0.046
0.0445
0.043
0.0445
0.042
0.042
0.044
0.0415
0.0415
0.038
0.037
0.0385
0.036
0.032
0.0295
0.0245
0.026
0.0285
0.024
0.021
0.0275
0.031
0.024
0.023
0.0245
0.0245
0.025
0.022
0.0195
0.0145
0.0125
0.02
0.022
0.0205
0.021
0.0215
0.021
0.0155
0.018
0.02
0.0215
0.0245
0.0235
0.022
0.018
0.023
0.0225
0.022
0.022
0.0105
0.0125
0.0195
0.0205
0.017
0.0125
0.0165
0.019
0.018
0.0165
0.0195
0.0225
0.02
0.024
0.023
0.021
0.019
0.017
0.014
0.0095
0.0095
0.008
0.009
0.009
0.0065
0.0085
0.0115
0.0145
0.014
0.0085
0.007
0.006
0.007
0.0115
0.0175
0.016
0.0115
0.0115
0.0175
0.0195
0.011
0.0095
0.0085
0.009
0.0105
0.01
0.011
0.013
0.016
0.017
0.0205
0.025
0.023
0.017
0.0205
0.0245
0.0255
0.028
0.0255
0.018
0.018
0.024
0.0245
0.024
0.0225
0.0195
0.022
0.0195
0.016
0.0165
0.0155
0.0215
0.0235
0.0195
0.02
0.018
0.0185
0.021
0.0215
0.022
0.0215
0.021
0.022
0.0235
0.0165
0.0165
0.022
0.019
0.0205
0.0225
0.0235
0.026
0.03
0.0305
0.0275
0.0255
0.023
0.0205
0.021
0.022
0.022
0.023
0.0205
0.023
0.0235
0.0215
0.0245
0.0265
0.03
0.0285
0.0285
0.026
0.0205
0.0215
0.024
0.0255
0.023
0.0225
0.0225
0.022
0.0185
0.0135
0.017
0.0145
0.011
0.0145
0.015
0.015
0.014
0.0155
0.0145
0.0145
0.0165
0.02
0.022
0.0195
0.017
0.015
0.0165
0.021
0.018
0.0155
0.0145
0.0135
0.0135
0.0055
0.0115
0.0165
0.0125
0.018
0.015
0.011
0.0105
0.0165
0.0205
0.0125
0.0105
0.013
0.0115
0.011
0.0105
0.0145
0.013
0.0075
0.0065
0.0035
0.0055
0.0065
0.0095
0.0095
0.0085
0.008
0.0055
0.005
0.0045
0.0075
0.0045
0.005
0.009
0.0045
-0.001
0.0
0.0045
0.0
-0.004
-0.0045
-0.0015
0.002
-0.004
-0.0045
-0.0025
0.0015
0.006
0.004
0.003
-0.0005
0.0005
-0.003
-0.0085
-0.0045
-0.008
-0.007
-0.0055
-0.0015
-0.001
-0.0065
-0.0035
-0.0015
0.0055
0.005
-0.005
-0.0015
0.0045
-0.001
0.001
0.006
0.005
0.0095
0.0085
0.0095
0.0125
0.008
0.008
0.0095
0.0035
0.0015
0.006
0.0095
0.007
0.0035
0.0035
0.0095
0.007
-0.0045
-0.0045
-0.002
-0.0025
-0.0055
-0.0005
0.0065
0.006
0.01
0.008
0.004
0.002
0.002
0.005
0.007
0.0075
0.0075
0.0075
0.006
0.0075
0.004
0.007
0.0075
0.005
0.0055
0.009
0.0145
0.0085
0.0075
0.0095
0.0105
0.013
0.014
0.018
0.0155
0.014
0.0115
0.001
0.006
0.015
0.0145
0.012
0.011
0.011
0.01
0.009
0.008
0.0075
0.007
0.0105
0.011
0.011
0.011
0.008
0.0095
0.0145
0.0175
0.0215
0.0225
0.0195
0.014
0.009
0.015
0.023
0.024
0.02
0.0175
0.023
0.022
0.014
0.0155
0.0185
0.0205
0.021
0.0225
0.027
0.022
0.017
0.0195
0.02
0.017
0.0255
0.0255
0.019
0.0225
0.023
0.022
0.025
0.0195
0.0155
0.0225
0.0225
0.024
0.025
0.0245
0.024
0.02
0.0245
0.028
0.027
0.0275
0.0265
0.026
0.034
0.0405
0.0305
0.0215
0.0205
0.025
0.0275
0.0255
0.03
0.027
0.0185
0.024
0.029
0.023
0.027
0.031
0.027
0.0285
0.0305
0.0285
0.025
0.0215
0.0185
0.0205
0.0185
0.016
0.0235
0.02
0.018
0.0265
0.0285
0.0285
0.031
0.0345
0.038
0.0415
0.0405
0.039
0.0395
0.039
0.043
0.042
0.0305
0.0255
0.026
0.027
0.0305
0.031
0.0345
0.037
0.0345
0.0415
0.046
0.048
0.0525
0.0555
0.0565
0.055
0.058
0.061
0.054
0.046
0.0455
0.052
0.0545
0.054
0.055
0.052
0.0515
0.057
0.0635
0.0645
0.065
0.0675
0.067
0.0695
0.07
0.0675
0.0695
0.0635
0.066
0.077
0.0715
0.072
0.072
0.0735
0.078
0.07
0.07
0.066
0.063
0.068
0.061
0.0605
0.0565
0.054
0.057
0.046
0.0465
0.0475
0.0405
0.0345
0.027
0.0245
0.0195
0.0215
0.024
0.019
0.017
0.0135
0.015
0.0205
0.021
0.0145
0.011
0.0155
0.015
0.009
0.016
0.017
0.007
0.006
0.0005
0.004
0.006
-0.0005
0.007
0.003
0.0005
0.0075
0.005
0.004
0.0055
0.0065
0.007
0.002
0.002
0.01
0.011
0.007
0.008
0.006
0.004
0.006
0.003
0.0015
0.004
0.012
0.0085
0.004
0.003
0.006
0.0165
0.014
0.01
0.009
0.008
0.0155
0.02
0.023
0.0245
0.023
0.0295
0.026
0.0175
0.018
0.023
0.029
0.0365
0.0545
0.0755
0.0915
0.111
0.1345
0.143
0.1595
0.1935
0.234
0.2745
0.2995
0.329
0.352
0.376
0.425
0.464
0.498
0.526
0.5495
0.57
0.59
0.604
0.603
0.6085
0.5925
0.572
0.5475
0.5035
0.458
0.414
0.3645
0.3025
0.2485
0.2
0.158
0.117
0.074
0.042
0.0245
0.026
0.0195
0.015
0.006
-0.0005
0.011
0.0
-0.005
-0.01
-0.02
-0.0185
-0.0225
-0.0185
-0.0155
-0.02
-0.013
-0.003
-0.001
0.001
0.004
0.003
0.007
0.0165
0.02
0.019
0.0175
0.024
0.0255
0.0265
0.031
0.032
0.034
0.0295
0.023
0.0235
0.025
0.027
0.0285
0.027
0.032
0.0325
0.027
0.029
0.034
0.0305
0.0245
0.0295
0.0295
0.0265
0.0305
0.025
0.024
0.026
0.0265
0.025
0.024
0.0265
0.0225
0.0225
0.0185
0.02
0.027
0.024
0.0255
0.031
0.035
0.0395
0.0425
0.043
0.039
0.038
0.0315
0.0275
0.033
0.033
0.03
0.0285
0.0335
0.033
0.0345
0.0375
0.034
0.0365
0.039
0.0395
0.037
0.033
0.0345
0.0355
0.038
0.038
0.04
0.0405
0.0315
0.033
0.0375
0.039
0.0385
0.0395
0.0395
0.0385
0.038
0.0345
0.04
0.0475
0.0465
0.0445
0.038
0.044
0.0465
0.039
0.0395
0.043
0.0395
0.0365
0.0415
0.0395
0.04
0.042
0.0415
0.0455
0.047
0.047
0.047
0.048
0.047
0.0485
0.0465
0.0435
0.044
0.044
0.045
0.0475
0.0465
0.045
0.043
0.0425
0.05
0.0495
0.0475
0.0475
0.048
0.0485
0.051
0.0535
0.0505
0.05
0.0485
0.0535
0.0575
0.0565
0.06
0.0615
0.0595
0.055
0.0565
0.058
0.0615
0.059
0.056
0.0585
0.057
0.0555
0.058
0.063
0.062
0.0625
0.0615
0.061
0.0675
0.0675
0.0655
0.067
0.0675
0.065
0.0685
0.0725
0.073
0.0775
0.0875
0.086
0.08
0.086
0.087
0.0855
0.085
0.0805
0.0815
0.0845
0.085
0.0895
0.0895
0.094
0.099
0.102
0.1055
0.1035
0.1055
0.102
0.0965
0.099
0.104
0.1045
0.1125
0.1165
0.104
0.103
0.1135
0.1165
0.112
0.114
0.119
0.121
0.1265
0.13
0.1325
0.133
0.133
0.134
0.1345
0.1335
0.1325
0.135
0.1355
0.138
0.1445
0.146
0.142
0.142
0.1425
0.148
0.1515
0.1495
0.15
0.15
0.1505
0.149
0.15
0.1565
0.1575
0.1545
0.1535
0.1535
0.153
0.154
0.1545
0.155
0.154
0.154
0.1535
0.1495
0.155
0.1595
0.1565
0.156
0.151
0.146
0.149
0.1485
0.1445
0.1415
0.1405
0.14
0.141
0.1455
0.1455
0.1425
0.1365
0.1305
0.136
0.141
0.134
0.128
0.1255
0.125
0.1245
0.12
0.1175
0.117
0.1175
0.115
0.111
0.111
0.1085
0.1065
0.1065
0.1025
0.099
0.0985
0.095
0.0925
0.091
0.0875
0.083
0.0815
0.079
0.0765
0.0715
0.0675
0.069
0.065
0.068
0.069
0.0685
0.0655
0.06
0.053
0.0465
0.0455
0.045
0.051
0.054
0.057
0.047
0.0365
0.0395
0.038
0.0385
0.039
0.038
0.04
0.042
0.0355
0.038
0.037
0.0355
0.043
0.038
0.0345
0.037
0.0405
0.04
0.043
0.044
0.0395
0.036
0.029
0.031
0.0385
0.0395
0.0395
0.036
0.037
0.0425
0.0365
0.0385
0.0395
0.0345
0.038
0.039
0.038
0.039
0.0405
0.0365
0.034
0.0285
0.029
0.0305
0.0305
0.0385
0.036
0.0325
0.0365
0.0375
0.0365
0.0425
0.0415
0.0375
0.0415
0.042
0.043
0.041
0.039
0.038
0.0375
0.0365
0.032
0.0315
0.03
0.0315
0.029
0.0295
0.032
0.035
0.0345
0.029
0.0325
0.03
0.0255
0.03
0.034
0.036
0.039
0.037
0.034
0.0355
0.0295
0.0265
0.03
0.035
0.037
0.035
0.037
0.039
0.041
0.042
0.0425
0.039
0.035
0.033
0.0315
0.032
0.0315
0.0335
0.034
0.038
0.0405
0.037
0.035
0.0305
0.0275
0.0275
0.0335
0.0375
0.035
0.036
0.0355
0.0375
0.035
0.0315
0.0355
0.0385
0.0385
0.036
0.0375
0.0375
0.0395
0.039
0.0365
0.033
0.0335
0.039
0.0405
0.0415
0.043
0.046
0.0435
0.04
0.043
0.0465
0.045
0.045
0.0455
0.0455
0.0495
0.0505
0.0475
0.044
0.0435
0.044
0.048
0.047
0.042
0.043
0.044
0.046
0.048
0.0465
0.044
0.047
0.054
0.054
0.046
0.0425
0.0425
0.0415
0.0425
0.045
0.0445
0.042
0.043
0.0435
0.045
0.047
0.045
0.0485
0.052
0.049
0.0455
0.042
0.0395
0.036
0.037
0.037
0.035
0.037
0.035
0.0335
0.0315
0.03
0.029
0.03
0.0345
0.033
0.029
0.0275
0.031
0.0355
0.034
0.034
0.0335
0.0345
0.036
0.0325
0.0285
0.027
0.0225
0.024
0.027
0.0245
0.0215
0.0175
0.0235
0.027
0.028
0.026
0.0215
0.024
0.0265
0.0275
0.0275
0.027
0.0275
0.026
0.0235
0.0235
0.0215
0.023
0.0275
0.027
0.0195
0.0145
0.018
0.0225
0.0225
0.02
0.022
0.0255
0.022
0.021
0.021
0.023
0.0255
0.03
0.029
0.0245
0.0245
0.0205
0.0215
0.02
0.0195
0.0225
0.0225
0.0245
0.024
0.02
0.022
0.021
0.019
0.0255
0.0275
0.02
0.017
0.0205
0.023
0.024
0.0245
0.0195
0.0205
0.027
0.025
0.0235
0.0245
0.0245
0.0255
0.0225
0.024
0.0285
0.026
0.0225
0.0225
0.024
0.0215
0.0215
0.022
0.0215
0.023
0.022
0.023
0.0255
0.025
0.0255
0.0215
0.0215
0.025
0.0225
0.0215
0.0185
0.0205
0.0225
0.0215
0.0225
0.0225
0.023
0.0235
0.0235
0.0255
0.025
0.019
0.018
0.0165
0.015
0.0155
0.017
0.021
0.02
0.018
0.02
0.0215
0.0215
0.019
0.015
0.014
0.0105
0.013
0.018
0.0185
0.0185
0.0185
0.013
0.01
0.0135
0.014
0.016
0.0165
0.015
0.0135
0.015
0.012
0.0095
0.0145
0.014
0.0165
0.015
0.015
0.0185
0.016
0.016
0.017
0.0155
0.0155
0.019
0.0175
0.014
0.0145
0.016
0.016
0.014
0.0135
0.0155
0.0205
0.021
0.016
0.0155
0.0155
0.0185
0.0205
0.017
0.018
0.0175
0.0235
0.027
0.0265
0.027
0.022
0.0215
0.017
0.014
0.0155
0.014
0.015
0.014
0.0105
0.012
0.014
0.019
0.024
0.0215
0.0165
0.0165
0.0175
0.0175
0.0185
0.015
0.0195
0.021
0.016
0.014
0.012
0.0135
0.018
0.0205
0.0165
0.0195
0.023
0.0255
0.0295
0.0315
0.032
0.031
0.0335
0.034
0.036
0.042
0.045
0.0455
0.048
0.047
0.045
0.0455
0.044
0.0455
0.0485
0.0515
0.0555
0.0555
0.056
0.0575
0.0555
0.0555
0.0585
0.064
0.068
0.071
0.073
0.0705
0.0715
0.0765
0.0765
0.0725
0.0725
0.071
0.069
0.067
0.0655
0.064
0.0625
0.062
0.0595
0.058
0.0565
0.056
0.0585
0.064
0.06
0.0485
0.0445
0.046
0.044
0.0405
0.038
0.0355
0.034
0.032
0.029
0.0255
0.025
0.0245
0.022
0.022
0.0215
0.0215
0.024
0.026
0.0255
0.0265
0.0215
0.0165
0.021
0.0215
0.0195
0.017
0.0145
0.012
0.0115
0.016
0.0185
0.0165
0.015
0.014
0.014
0.015
0.016
0.0135
0.0115
0.011
0.0095
0.0115
0.0105
0.0135
0.017
0.0165
0.0125
0.007
0.008
0.006
0.0065
0.007
0.007
0.011
0.01
0.01
0.0165
0.0205
0.019
0.0255
0.036
0.0375
0.0375
0.039
0.0355
0.032
0.0245
0.0225
0.031
0.043
0.059
0.075
0.089
0.106
0.1235
0.144
0.1715
0.2075
0.2525
0.2905
0.3115
0.3285
0.359
0.39
0.4285
0.469
0.496
0.525
0.5485
0.572
0.5945
0.608
0.6155
0.6175
0.6075
0.5855
0.5605
0.528
0.4885
0.444
0.3955
0.344
0.293
0.2445
0.2015
0.1595
0.112
0.073
0.0465
0.037
0.0435
0.042
0.0375
0.032
0.0245
0.0225
0.0215
0.0195
0.012
0.006
0.005
0.0045
0.002
-0.0005
0.0045
0.012
0.013
0.01
0.011
0.009
0.0075
0.0125
0.015
0.0195
0.023
0.0295
0.033
0.0315
0.0365
0.035
0.038
0.039
0.037
0.036
0.033
0.0315
0.0315
0.032
0.03
0.0305
0.0265
0.025
0.0305
0.0315
0.032
0.03
0.033
0.0365
0.0375
0.041
0.039
0.037
0.04
0.042
0.041
0.0415
0.0425
0.042
0.041
0.042
0.043
0.0415
0.0415
0.0385
0.0385
0.0435
0.0455
0.0455
0.045
0.0415
0.0385
0.0385
0.039
0.041
0.0435
0.0415
0.036
0.038
0.0385
0.0395
0.045
0.05
0.0565
0.058
0.059
0.0565
0.0555
0.06
0.063
0.059
0.0555
0.058
0.056
0.051
0.0435
0.0425
0.0465
0.044
0.0435
0.043
0.0425
0.0455
0.0465
0.0435
0.045
0.048
0.047
0.0485
0.0475
0.0475
0.0485
0.046
0.048
0.049
0.048
0.0515
0.0515
0.0545
0.0585
0.0555
0.0525
0.049
0.048
0.049
0.0495
0.048
0.0495
0.051
0.052
0.0515
0.0515
0.0545
0.057
0.0585
0.0565
0.058
0.056
0.055
0.0545
0.054
0.0545
0.0515
0.051
0.0505
0.0525
0.0545
0.0575
0.059
0.0605
0.0625
0.0615
0.063
0.0655
0.0665
0.0685
0.0695
0.069
0.069
0.068
0.0655
0.065
0.067
0.067
0.068
0.0695
0.069
0.069
0.071
0.074
0.072
0.074
0.0755
0.079
0.0825
0.0805
0.0775
0.0735
0.0725
0.073
0.075
0.0775
0.079
0.0805
0.0825
0.0825
0.086
0.0855
0.0835
0.0865
0.086
0.088
0.0885
0.0915
0.0935
0.093
0.0935
0.0925
0.0955
0.097
0.097
0.1005
0.1
0.099
0.1
0.1005
0.104
0.1085
0.108
0.1095
0.111
0.1115
0.113
0.117
0.1245
0.129
0.128
0.1275
0.125
0.1215
0.1255
0.133
0.134
0.131
0.135
0.138
0.137
0.1415
0.1445
0.145
0.1475
0.148
0.148
0.151
0.1555
0.1565
0.1505
0.145
0.1455
0.145
0.146
0.1455
0.1435
0.1455
0.145
0.146
0.1495
0.1505
0.1515
0.1515
0.1555
0.158
0.155
0.154
0.1565
0.1555
0.153
0.1545
0.155
0.1535
0.1535
0.155
0.1555
0.1545
0.155
0.1515
0.1505
0.151
0.1485
0.148
0.147
0.143
0.141
0.1405
0.139
0.1385
0.1365
0.129
0.1235
0.1225
0.117
0.114
0.1115
0.1095
0.1095
0.1065
0.1065
0.1075
0.1055
0.1005
0.1
0.0985
0.0955
0.0955
0.092
0.0925
0.09
0.081
0.08
0.0775
0.074
0.073
0.07
0.0685
0.0665
0.0655
0.0655
0.0645
0.0675
0.068
0.067
0.0655
0.0575
0.057
0.058
0.055
0.056
0.0545
0.054
0.0545
0.0525
0.0525
0.0535
0.0515
0.047
0.045
0.046
0.0505
0.0505
0.05
0.0505
0.049
0.048
0.0505
0.0535
0.0525
0.051
0.0485
0.0465
0.044
0.0395
0.035
0.0355
0.039
0.0385
0.0395
0.042
0.0445
0.0475
0.049
0.049
0.048
0.0455
0.045
0.043
0.04
0.037
0.0375
0.039
0.036
0.038
0.041
0.042
0.0405
0.039
0.04
0.0415
0.043
0.0445
0.042
0.0405
0.041
0.0405
0.041
0.0425
0.0435
0.04
0.0365
0.035
0.038
0.0375
0.035
0.038
0.0375
0.0355
0.0335
0.0375
0.0435
0.0405
0.036
0.0345
0.039
0.04
0.0375
0.0365
0.036
0.0345
0.036
0.0375
0.0365
0.0365
0.035
0.0345
0.0345
0.0345
0.0325
0.034
0.0355
0.035
0.0355
0.038
0.0365
0.037
0.042
0.0405
0.039
0.0405
0.043
0.0405
0.039
0.042
0.0425
0.044
0.0455
0.0455
0.045
0.04
0.039
0.043
0.0455
0.044
0.0415
0.0425
0.042
0.042
0.0415
0.0425
0.045
0.043
0.045
0.045
0.0425
0.0435
0.0415
0.037
0.039
0.0425
0.042
0.0425
0.0405
0.0375
0.04
0.042
0.0455
0.044
0.042
0.042
0.036
0.0345
0.035
0.0355
0.04
0.0415
0.04
0.0405
0.04
0.039
0.0435
0.0445
0.0435
0.0435
0.0405
0.041
0.042
0.045
0.0455
0.044
0.044
0.0415
0.0395
0.0385
0.0375
0.036
0.0365
0.035
0.0365
0.0385
0.038
0.037
0.037
0.041
0.0405
0.0405
0.043
0.0415
0.0365
0.0305
0.0275
0.0305
0.0315
0.0275
0.0295
0.028
0.0245
0.0245
0.0245
0.027
0.0295
0.0315
0.031
0.035
0.035
0.031
0.033
0.0325
0.0315
0.0295
0.028
0.0275
0.028
0.0275
0.0255
0.0275
0.0275
0.025
0.025
0.029
0.0325
0.0325
0.0325
0.029
0.028
0.0335
0.0365
0.0335
0.0315
0.0315
0.0315
0.032
0.0305
0.03
0.033
0.0305
0.0305
0.03
0.028
0.0305
0.0315
0.0315
0.03
0.0315
0.032
0.0315
0.032
0.0345
0.0345
0.0295
0.0245
0.023
0.0265
0.0275
0.028
0.0285
0.027
0.024
0.026
0.0285
0.0255
0.024
0.02
0.0185
0.022
0.0235
0.0235
0.0245
0.0235
0.0205
0.0185
0.017
0.0185
0.0215
0.02
0.0225
0.0235
0.0215
0.021
0.019
0.021
0.0225
0.0225
0.0185
0.018
0.017
0.019
0.023
0.0165
0.0135
0.0115
0.0115
0.013
0.015
0.0165
0.014
0.014
0.0095
0.012
0.0145
0.015
0.0175
0.015
0.0145
0.011
0.0115
0.015
0.0115
0.0135
0.013
0.011
0.012
0.01
0.0075
0.008
0.0105
0.011
0.011
0.016
0.019
0.018
0.018
0.0155
0.013
0.0105
0.0125
0.015
0.0145
0.0145
0.013
0.013
0.0155
0.016
0.0155
0.015
0.0135
0.015
0.015
0.0195
0.0215
0.0215
0.025
0.023
0.022
0.0225
0.018
0.015
0.0185
0.023
0.023
0.021
0.0215
0.0215
0.019
0.0175
0.0195
0.0195
0.018
0.0155
0.014
0.0135
0.0105
0.013
0.014
0.013
0.0155
0.0185
0.0225
0.023
0.0225
0.019
0.018
0.0215
0.021
0.0215
0.021
0.019
0.0195
0.022
0.0245
0.023
0.0185
0.0165
0.019
0.022
0.0245
0.0245
0.026
0.0265
0.02
0.018
0.016
0.0165
0.019
0.016
0.018
0.02
0.0215
0.024
0.0205
0.017
0.016
0.0195
0.021
0.02
0.0175
0.018
0.0215
0.017
0.0145
0.0145
0.0115
0.0145
0.0145
0.0155
0.016
0.0145
0.013
0.013
0.0175
0.016
0.0155
0.0155
0.0145
0.0175
0.0135
0.014
0.019
0.018
0.017
0.014
0.013
0.013
0.0095
0.0105
0.0115
0.0085
0.007
0.007
0.008
0.0115
0.0125
0.0115
0.011
0.013
0.0165
0.0185
0.0215
0.023
0.019
0.015
0.0155
0.014
0.0115
0.0115
0.011
0.0115
0.008
0.0095
0.013
0.0145
0.015
0.0115
0.013
0.0155
0.019
0.021
0.018
0.018
0.0185
0.0135
0.009
0.0065
0.0055
0.0075
0.0075
0.0055
0.0045
0.0055
0.008
0.0095
0.0125
0.014
0.014
0.0175
0.0175
0.017
0.0175
0.016
0.015
0.0165
0.018
0.0185
0.0155
0.0145
0.0135
0.0125
0.0155
0.014
0.017
0.021
0.0215
0.0225
0.0255
0.028
0.031
0.0315
0.032
0.0365
0.0405
0.045
0.042
0.0395
0.04
0.0395
0.0425
0.0435
0.0445
0.0535
0.0605
0.059
0.056
0.0595
0.062
0.0635
0.0675
0.068
0.07
0.072
0.0705
0.074
0.076
0.074
0.073
0.0715
0.0705
0.0675
0.068
0.0685
0.066
0.066
0.062
0.0625
0.0615
0.0585
0.059
0.0575
0.0535
0.052
0.0555
0.051
0.043
0.0375
0.0325
0.0315
0.0265
0.024
0.0225
0.016
0.0145
0.015
0.0145
0.015
0.0115
0.0115
0.0115
0.011
0.01
0.007
0.008
0.0065
0.007
0.0075
0.008
0.0065
0.0055
0.0085
0.0055
0.004
0.0045
0.0045
0.0045
0.0035
0.011
0.0135
0.0065
0.007
0.007
0.0035
0.0015
0.001
0.004
0.0035
0.0045
0.003
0.0005
0.0
-0.0025
-0.002
-0.003
-0.0005
-0.0005
-0.0025
0.001
0.0015
0.0015
-0.0015
-0.004
-0.004
-0.0005
0.0035
0.01
0.016
0.015
0.0175
0.016
0.006
-0.0035
-0.0055
0.002
0.014
0.0265
0.042
0.0675
0.088
0.1035
0.124
0.148
0.18
0.226
0.273
0.301
0.324
0.351
0.379
0.418
0.4645
0.5025
0.534
0.5595
0.5855
0.6125
0.632
0.644
0.6445
0.6425
0.6255
0.5965
0.565
0.5215
0.471
0.4235
0.3725
0.3185
0.2695
0.2205
0.1755
0.1285
0.0935
0.0635
0.0415
0.049
0.05
0.042
0.0335
0.023
0.0145
0.009
0.005
-0.003
-0.0085
-0.007
-0.006
-0.009
-0.0125
-0.015
-0.0095
-0.0085
-0.0085
-0.0065
-0.0095
-0.0075
-0.0055
-0.0065
-0.0065
-0.002
0.0035
0.0045
0.0065
0.009
0.007
0.006
0.0055
0.005
-0.0005
-0.006
-0.006
-0.008
-0.006
-0.0075
-0.0065
-0.0035
-0.001
0.0
-0.0025
0.0005
0.0035
0.0045
0.0035
0.003
0.005
0.0025
0.001
0.0025
0.0005
0.0005
0.0015
0.0005
0.0
0.001
0.001
0.0005
0.002
0.006
0.0075
0.0075
0.008
0.008
0.0075
0.006
0.007
0.0065
0.007
0.007
0.0065
0.0075
0.0045
0.0065
0.0095
0.011
0.0165
0.0145
0.0135
0.0115
0.0075
0.007
0.0065
0.007
0.0065
0.0075
0.0075
0.01
0.0105
0.0095
0.0085
0.004
0.0045
0.0045
0.0045
0.0065
0.0065
0.009
0.0095
0.003
0.0005
0.003
0.002
0.001
0.003
0.0065
0.0075
0.007
0.006
0.0075
0.009
0.0055
0.003
0.004
0.0075
0.0065
0.0045
0.0045
0.0045
0.004
0.004
0.0065
0.0065
0.01
0.0105
0.0065
0.0055
0.003
0.003
0.0055
0.007
0.008
0.0075
0.0115
0.0175
0.0185
0.018
0.0165
0.0175
0.019
0.0165
0.0145
0.017
0.0215
0.0165
0.0145
0.0175
0.0145
0.016
0.018
0.0145
0.0105
0.0135
0.014
0.0155
0.0215
0.0235
0.024
0.022
0.0245
0.026
0.0255
0.0285
0.0315
0.03
0.0285
0.0285
0.028
0.0285
0.0295
0.033
0.032
0.0305
0.034
0.034
0.0325
0.034
0.0365
0.039
0.044
0.045
0.0485
0.0515
0.0515
0.054
0.0555
0.0565
0.057
0.055
0.0525
0.055
0.0565
0.0575
0.056
0.0575
0.0625
0.0635
0.068
0.0695
0.0715
0.075
0.0755
0.074
0.0755
0.081
0.0855
0.0885
0.09
0.0885
0.0865
0.087
0.0885
0.0915
0.0965
0.0965
0.0965
0.1
0.101
0.104
0.106
0.107
0.1065
0.107
0.107
0.107
0.11
0.114
0.1145
0.114
0.119
0.1205
0.1185
0.119
0.122
0.1245
0.1245
0.1255
0.1245
0.124
0.124
0.1245
0.126
0.125
0.123
0.1185
0.1195
0.124
0.1215
0.1225
0.123
0.1255
0.127
0.1265
0.128
0.127
0.1275
0.126
0.124
0.1255
0.1255
0.1265
0.1275
0.125
0.123
0.1175
0.114
0.1135
0.1125
0.1125
0.111
0.1085
0.1065
0.1025
0.1
0.097
0.0935
0.0925
0.088
0.0865
0.083
0.079
0.08
0.078
0.0765
0.074
0.067
0.063
0.062
0.0615
0.0605
0.0555
0.0535
0.054
0.049
0.046
0.0435
0.0405
0.0365
0.037
0.039
0.0345
0.031
0.0325
0.035
0.035
0.03
0.0255
0.023
0.022
0.0235
0.0195
0.0155
0.012
0.01
0.0105
0.009
0.011
0.0165
0.0185
0.0115
0.0075
0.0105
0.011
0.0115
0.012
0.0115
0.0105
0.007
0.0075
0.013
0.0155
0.016
0.013
0.0105
0.0105
0.011
0.013
0.013
0.012
0.0115
0.012
0.013
0.011
0.011
0.01
0.0055
0.0065
0.0075
0.007
0.0075
0.0095
0.012
0.014
0.0195
0.021
0.0155
0.0135
0.013
0.0135
0.0155
0.013
0.0115
0.01
0.0085
0.008
0.0055
0.001
0.0
0.004
0.004
0.0045
0.004
0.004
0.0025
0.0015
0.004
0.002
0.0015
0.002
0.0015
0.0
-0.002
-0.002
-0.0005
0.0
-0.0015
0.0015
0.005
0.0025
0.0015
0.0035
0.003
0.004
0.0025
0.001
0.001
0.0025
0.0055
0.007
0.0095
0.0085
0.0095
0.01
0.005
0.002
0.0045
0.0035
0.002
0.005
0.0045
0.0025
0.004
0.004
0.0045
0.0095
0.01
0.011
0.0065
0.0015
0.004
0.005
0.008
0.008
0.0065
0.008
0.008
0.0085
0.0085
0.007
0.009
0.0115
0.0105
0.011
0.0095
0.0105
0.012
0.011
0.01
0.01
0.0135
0.0125
0.0115
0.0145
0.015
0.015
0.0145
0.0165
0.0185
0.0165
0.018
0.0185
0.017
0.014
0.0135
0.0175
0.018
0.021
0.023
0.0195
0.0205
0.021
0.0195
0.014
0.006
0.0045
0.0055
0.008
0.012
0.014
0.014
0.0145
0.0145
0.0135
0.013
0.014
0.0175
0.0185
0.0185
0.0165
0.0135
0.0115
0.0135
0.0175
0.018
0.017
0.0135
0.0135
0.016
0.0145
0.0115
0.012
0.01
0.011
0.0125
0.011
0.014
0.0145
0.014
0.0145
0.0125
0.0175
0.022
0.0205
0.018
0.012
0.01
0.0125
0.0125
0.0135
0.014
0.0165
0.018
0.017
0.0145
0.015
0.0155
0.0135
0.013
0.012
0.0165
0.017
0.016
0.016
0.0135
0.013
0.0115
0.0105
0.008
0.009
0.0075
0.0075
0.009
0.0085
0.011
0.011
0.011
0.012
0.0125
0.0125
0.01
0.0075
0.01
0.0105
0.0105
0.009
0.007
0.0085
0.0075
0.01
0.013
0.0095
0.009
0.0125
0.013
0.0135
0.015
0.013
0.0125
0.012
0.0065
0.006
0.0075
0.0075
0.0035
0.0015
0.004
0.0035
0.0045
0.0045
0.004
0.006
0.0055
0.0055
0.0055
0.004
0.0065
0.008
0.0085
0.009
0.011
0.0125
0.008
0.0075
0.0085
0.0055
0.005
0.0025
-0.001
-0.005
-0.006
-0.003
-0.003
-0.0015
0.0005
0.0015
0.0005
-0.0015
-0.002
-0.0025
-0.003
-0.002
0.001
-0.0005
-0.0025
0.0015
0.005
0.004
-0.0005
-0.005
-0.0065
-0.007
-0.007
-0.0045
-0.003
-0.0055
-0.0065
-0.006
-0.0065
-0.006
-0.006
-0.0055
-0.004
-0.004
-0.005
-0.0035
-0.005
-0.008
-0.007
-0.0055
-0.006
-0.006
-0.009
-0.0105
-0.008
-0.0065
-0.006
-0.006
-0.0045
-0.0075
-0.0085
-0.01
-0.008
-0.007
-0.0095
-0.0075
-0.011
-0.0105
-0.0125
-0.0125
-0.009
-0.0095
-0.008
-0.011
-0.0125
-0.01
-0.008
-0.009
-0.0105
-0.01
-0.015
-0.0155
-0.0125
-0.013
-0.012
-0.015
-0.0135
-0.01
-0.0105
-0.01
-0.013
-0.0135
-0.014
-0.016
-0.0165
-0.017
-0.016
-0.0155
-0.016
-0.0165
-0.0145
-0.0135
-0.0115
-0.0095
-0.008
-0.008
-0.0105
-0.009
-0.011
-0.0145
-0.017
-0.019
-0.0175
-0.019
-0.017
-0.016
-0.0185
-0.02
-0.019
-0.019
-0.0195
-0.0215
-0.0215
-0.0195
-0.023
-0.0205
-0.0205
-0.0215
-0.021
-0.022
-0.0195
-0.023
-0.0235
-0.0215
-0.0195
-0.018
-0.02
-0.019
-0.019
-0.018
-0.018
-0.02
-0.0175
-0.0185
-0.016
-0.015
-0.016
-0.016
-0.0155
-0.0125
-0.0135
-0.0125
-0.012
-0.0095
-0.0045
-0.004
-0.009
-0.014
-0.0145
-0.0125
-0.0135
-0.011
-0.0085
-0.012
-0.015
-0.018
-0.02
-0.019
-0.0185
-0.0155
-0.0145
-0.018
-0.019
-0.0165
-0.0165
-0.0155
-0.0125
-0.0135
-0.0095
-0.004
-0.0055
-0.0045
-0.006
-0.0095
-0.0085
-0.0115
-0.011
-0.007
-0.0055
-0.0055
-0.003
-0.0025
-0.0055
-0.001
0.0005
0.002
0.004
0.0025
0.002
-0.0015
-0.0015
-0.002
-0.001
0.003
0.0055
0.0045
0.0035
0.0045
0.0055
0.008
0.012
0.014
0.0125
0.015
0.0155
0.0115
0.013
0.0145
0.0125
0.0175
0.017
0.0155
0.0155
0.0175
0.0135
0.0055
0.005
0.004
0.0065
0.0115
0.016
0.018
0.0225
0.025
0.0275
0.0355
0.041
0.042
0.038
0.0355
0.038
0.042
0.0395
0.038
0.0365
0.0365
0.0395
0.0395
0.0425
0.0455
0.0455
0.0455
0.0455
0.05
0.053
0.054
0.0555
0.055
0.059
0.0615
0.0595
0.063
0.062
0.06
0.057
0.055
0.0555
0.053
0.051
0.048
0.045
0.037
0.029
0.0275
0.03
0.0315
0.028
0.028
0.0275
0.023
0.0185
0.0155
0.0125
0.0065
0.003
0.0005
-0.001
-0.001
-0.0015
-0.0055
-0.0125
-0.0145
-0.014
-0.012
-0.013
-0.0165
-0.019
-0.0205
-0.0205
-0.0195
-0.0135
-0.0175
-0.0225
-0.0195
-0.0205
-0.022
-0.022
-0.021
-0.0175
-0.0185
-0.02
-0.0205
-0.021
-0.024
-0.0235
-0.017
-0.018
-0.0205
-0.025
-0.03
-0.027
-0.0245
-0.0235
-0.0245
-0.027
-0.024
-0.024
-0.025
-0.023
-0.0215
-0.0205
-0.0225
-0.0255
-0.029
-0.028
-0.027
-0.0245
-0.0185
-0.0195
-0.0175
-0.005
-0.0005
-0.001
0.001
-0.003
-0.008
-0.0145
-0.017
-0.0095
0.0015
0.014
0.031
0.0455
0.064
0.09
0.1155
0.1475
0.1875
0.2385
0.281
0.3035
0.3285
0.3605
0.3965
0.4465
0.493
0.525
0.5555
0.5835
0.6075
0.626
0.64
0.6465
0.6465
0.6295
0.6
0.567
0.522
0.4785
0.432
0.3735
0.3135
0.264
0.2165
0.168
0.116
0.0675
0.032
0.0085
0.01
0.012
-0.001
-0.0115
-0.0125
-0.0155
-0.0215
-0.025
-0.0345
-0.045
-0.044
-0.0375
-0.039
-0.0415
-0.043
-0.036
-0.028
-0.0235
-0.0235
-0.025
-0.025
-0.0245
-0.018
-0.0215
-0.0225
-0.015
-0.012
-0.0145
-0.015
-0.0125
-0.0115
-0.013
-0.011
-0.0085
-0.015
-0.0175
-0.018
-0.019
-0.0155
-0.0175
-0.017
-0.0135
-0.014
-0.014
-0.0175
-0.019
-0.0115
-0.01
-0.0135
-0.0125
-0.011
-0.009
-0.011
-0.014
-0.013
-0.013
-0.0135
-0.015
-0.0145
-0.0105
-0.0105
-0.013
-0.015
-0.015
-0.015
-0.0145
-0.0115
-0.0095
-0.0095
-0.011
-0.013
-0.0115
-0.007
-0.006
-0.0055
-0.005
-0.006
-0.0075
-0.004
-0.0025
-0.005
-0.001
0.0005
-0.004
-0.007
-0.0065
-0.0055
-0.0035
-0.003
-0.0025
-0.002
-0.004
-0.0005
0.001
0.0
-0.002
-0.006
-0.004
-0.005
-0.0095
-0.0095
-0.0095
-0.007
-0.006
-0.0075
-0.002
0.0005
0.0015
0.002
0.0025
0.0025
-0.003
0.0
0.001
0.003
0.004
0.0035
0.004
0.001
0.008
0.01
0.0035
0.001
-0.006
-0.0065
-0.0005
0.005
0.0095
0.003
0.0015
0.0035
0.0055
0.0065
0.004
0.0045
0.0035
0.002
-0.001
-0.002
0.0
0.0025
0.0065
0.0075
0.0075
0.0085
0.0125
0.0145
0.012
0.0125
0.016
0.0165
0.017
0.0205
0.022
0.019
0.0145
0.017
0.018
0.0205
0.025
0.024
0.0265
0.026
0.0265
0.0315
0.033
0.0335
0.032
0.034
0.038
0.0335
0.035
0.039
0.0405
0.039
0.035
0.039
0.0375
0.032
0.0315
0.034
0.035
0.0345
0.035
0.0345
0.0355
0.043
0.0455
0.045
0.045
0.0465
0.052
0.057
0.0635
0.0665
0.0645
0.065
0.065
0.0645
0.0665
0.0655
0.0685
0.068
0.07
0.072
0.0725
0.074
0.072
0.0745
0.079
0.0835
0.081
0.082
0.086
0.0835
0.088
0.094
0.099
0.1005
0.0995
0.1005
0.104
0.106
0.108
0.106
0.1025
0.105
0.1095
0.1125
0.115
0.1155
0.1135
0.1135
0.1145
0.1195
0.122
0.122
0.1265
0.1265
0.1265
0.124
0.123
0.1245
0.1185
0.1185
0.124
0.1245
0.124
0.126
0.125
0.1235
0.123
0.1195
0.121
0.1245
0.127
0.123
0.121
0.1225
0.117
0.1205
0.123
0.118
0.119
0.1185
0.114
0.1135
0.112
0.1075
0.1095
0.11
0.1065
0.1035
0.103
0.1035
0.0995
0.0945
0.0895
0.084
0.0815
0.084
0.0795
0.0755
0.0745
0.0735
0.0715
0.0685
0.0645
0.0605
0.059
0.054
0.0535
0.0515
0.055
0.0565
0.0445
0.04
0.0385
0.0365
0.0345
0.038
0.0395
0.034
0.028
0.0235
0.0215
0.025
0.025
0.0215
0.022
0.0185
0.018
0.021
0.0205
0.0195
0.0155
0.015
0.0115
0.001
0.003
0.008
0.004
0.002
0.001
0.004
0.0085
0.0065
0.003
0.0005
0.001
0.0005
-0.002
0.001
0.008
0.0065
-0.0015
0.0
0.002
0.001
0.0
-0.0025
0.0005
0.001
-0.001
0.0005
-0.0005
0.0
0.005
0.0045
-0.0005
-0.0005
0.0005
0.003
0.007
0.007
0.003
0.0005
0.003
0.0
-0.0055
-0.005
-0.006
-0.0085
-0.0085
-0.0065
-0.0075
-0.004
-0.0035
-0.006
0.0015
0.002
0.001
-0.003
-0.0055
-0.0005
-0.004
-0.006
-0.0025
-0.005
-0.008
-0.0005
-0.004
-0.008
-0.0075
-0.0065
-0.001
-0.0005
-0.001
-0.007
-0.0065
-0.007
-0.008
0.0015
0.004
0.0045
0.003
0.0
0.0
0.001
0.0
-0.002
-0.003
-0.0045
-0.002
-0.002
-0.0025
0.002
0.0095
0.009
0.0055
0.001
-0.0075
-0.0055
0.0
-0.0005
-0.003
-0.004
0.0005
0.0045
0.0045
0.0045
0.004
0.0035
0.002
0.005
0.0035
0.0045
0.0075
0.0055
0.004
0.0005
0.006
0.004
0.0
0.007
0.007
0.007
0.007
0.003
0.0
0.0035
0.006
0.006
0.0075
0.0025
0.0
0.001
0.0025
0.0045
0.0045
0.0045
0.0085
0.0135
0.01
0.0075
0.0075
0.0095
0.0115
0.011
0.011
0.014
0.023
0.0245
0.017
0.013
0.0115
0.0095
0.0115
0.0085
0.0095
0.0145
0.011
0.0115
0.007
0.003
0.008
0.0095
0.0085
0.0115
0.009
0.0045
0.008
0.0075
0.0085
0.0135
0.0125
0.0115
0.011
0.0125
0.012
0.011
0.0115
0.006
0.009
0.014
0.0145
0.009
0.0025
0.003
0.0005
0.0015
0.0045
0.002
0.001
-0.001
0.0
0.0025
0.001
0.006
0.01
0.0035
-0.0005
0.0
0.0035
0.0045
0.005
0.003
0.0
0.0015
0.0
0.001
0.0
-0.006
-0.004
0.0025
0.0015
-0.0025
-0.0015
0.0005
0.0
-0.002
0.0
0.001
0.0
0.0045
0.002
-0.001
0.0
-0.002
0.0
0.0005
-0.0025
-0.0055
-0.005
-0.007
-0.0085
-0.0065
-0.0085
-0.0125
-0.013
-0.008
-0.008
-0.0105
-0.0055
-0.0015
-0.005
-0.0065
-0.005
-0.0055
-0.0015
-0.0025
-0.003
0.0045
-0.0005
-0.0035
-0.0075
-0.0145
-0.0085
-0.0035
-0.005
-0.006
-0.0015
-0.0015
-0.0005
0.005
0.0035
0.0025
-0.0005
-0.002
-0.001
-0.0025
-0.0025
-0.002
0.0005
-0.0015
-0.0025
-0.006
-0.0125
-0.008
-0.0005
0.0
-0.005
-0.007
-0.003
-0.002
-0.009
-0.01
-0.008
-0.006
-0.0035
-0.006
-0.008
-0.005
-0.0055
-0.0045
-0.0015
-0.0055
-0.005
-0.0035
-0.005
-0.0025
-0.0035
-0.0015
-0.005
-0.007
-0.0045
-0.0095
-0.007
-0.0065
-0.0025
0.001
-0.0015
-0.001
-0.006
-0.0075
-0.007
-0.002
-0.0025
-0.0065
-0.0055
-0.006
-0.006
-0.006
-0.005
-0.0095
-0.0095
-0.006
-0.0045
0.0
-0.0025
-0.0005
-0.003
-0.0055
-0.0035
-0.007
-0.0045
-0.008
-0.0095
-0.0085
-0.01
-0.009
-0.009
-0.006
-0.002
-0.003
-0.009
-0.013
-0.0105
-0.013
-0.007
-0.001
-0.007
-0.01
-0.013
-0.0105
-0.008
-0.01
-0.011
-0.011
-0.0125
-0.008
-0.0065
-0.013
-0.011
-0.009
-0.007
-0.0045
-0.003
-0.0055
-0.009
-0.0065
-0.0035
-0.0085
-0.006
0.0005
-0.0015
0.002
0.002
0.001
0.0
-0.0025
0.002
0.0055
0.009
0.0055
-0.0005
-0.001
-0.002
-0.006
-0.0025
0.001
-0.0025
-0.002
-0.0005
0.002
0.003
-0.0015
-0.0025
-0.004
-0.0045
-0.0025
-0.002
-0.0055
-0.004
0.0015
-0.0025
-0.004
-0.002
-0.0035
-0.005
-0.0065
-0.0045
0.0
0.0055
0.005
0.004
0.005
0.004
0.006
0.0055
0.0075
0.0015
-0.002
0.005
0.001
-0.002
0.0
0.001
0.007
0.0105
0.0125
0.0165
0.0155
0.0175
0.0145
0.0125
0.02
0.017
0.016
0.0235
0.0215
0.0235
0.027
0.0195
0.019
0.0205
0.0205
0.0215
0.021
0.0285
0.0305
0.0275
0.034
0.04
0.0345
0.0275
0.0295
0.032
0.04
0.044
0.0415
0.04
0.0415
0.041
0.0395
0.045
0.0485
0.046
0.0435
0.0455
0.0485
0.0535
0.0535
0.054
0.0555
0.051
0.054
0.0595
0.059
0.06
0.0595
0.051
0.051
0.059
0.0605
0.055
0.0515
0.05
0.0495
0.051
0.0445
0.0385
0.0385
0.0335
0.029
0.034
0.028
0.017
0.019
0.0185
0.0145
0.0145
0.009
0.003
0.007
0.007
0.0035
0.0065
0.0065
0.0015
-0.0005
0.0025
0.0005
-0.0015
-0.0015
-0.0035
-0.0015
-0.001
-0.0015
-0.004
-0.0025
-0.002
-0.008
-0.009
-0.01
-0.01
-0.011
-0.0125
-0.0095
-0.0095
-0.009
-0.0045
0.0
-0.002
-0.006
-0.006
-0.006
-0.0065
-0.0035
-0.0035
-0.0095
-0.008
-0.006
-0.0085
-0.0115
-0.0135
-0.0115
-0.012
-0.0125
-0.0095
-0.0155
-0.018
-0.0155
-0.0165
-0.0145
-0.0145
-0.009
-0.003
0.0015
0.0095
0.0085
0.008
0.0055
-0.0035
-0.006
-0.005
0.0015
0.0095
0.022
0.0435
0.059
0.0775
0.0975
0.114
0.1375
0.1715
0.2145
0.252
0.278
0.3055
0.342
0.3735
0.418
0.466
0.4985
0.528
0.551
0.5755
0.591
0.6065
0.615
0.6105
0.6055
0.584
0.5515
0.507
0.4595
0.4135
0.3585
0.2945
0.2425
0.2
0.1545
0.1075
0.05
0.0125
-0.011
-0.0155
-0.007
-0.015
-0.0235
-0.031
-0.0345
-0.033
-0.034
-0.041
-0.047
-0.052
-0.057
-0.052
-0.044
-0.039
-0.03
-0.023
-0.028
-0.029
-0.0195
-0.0135
-0.015
-0.014
-0.01
-0.0025
0.0025
0.002
0.002
0.0025
0.003
0.005
0.0055
0.0065
0.005
0.003
0.006
0.0105
0.0125
0.0095
0.0115
0.0115
0.007
0.0085
0.012
0.008
0.01
0.0135
0.0125
0.009
0.009
0.01
0.0105
0.0155
0.0135
0.0185
0.0185
0.011
0.012
0.009
0.0065
0.007
0.0075
0.007
0.008
0.0145
0.0145
0.0115
0.008
0.0085
0.0135
0.009
0.007
0.0095
0.009
0.01
0.0195
0.021
0.013
0.0105
0.01
0.011
0.013
0.016
0.0175
0.0155
0.018
0.017
0.016
0.02
0.02
0.0215
0.021
0.018
0.0195
0.024
0.021
0.016
0.0165
0.021
0.019
0.0175
0.024
0.021
0.0115
0.0085
0.013
0.0125
0.014
0.0155
0.013
0.019
0.019
0.0225
0.0255
0.022
0.019
0.015
0.0165
0.0155
0.018
0.022
0.022
0.0255
0.028
0.0255
0.0175
0.0145
0.015
0.016
0.0205
0.0175
0.017
0.0235
0.0265
0.033
0.034
0.031
0.032
0.0285
0.0225
0.0225
0.028
0.0265
0.0245
0.0255
0.0235
0.0265
0.029
0.0275
0.028
0.0355
0.0415
0.039
0.0375
0.0425
0.047
0.0465
0.042
0.038
0.038
0.0375
0.036
0.0395
0.048
0.0485
0.0475
0.0475
0.045
0.053
0.056
0.055
0.0555
0.053
0.056
0.053
0.0515
0.0565
0.053
0.057
0.058
0.0565
0.0615
0.065
0.0655
0.064
0.0645
0.0675
0.074
0.077
0.0685
0.069
0.075
0.074
0.079
0.0815
0.085
0.09
0.093
0.0925
0.0895
0.0925
0.097
0.0925
0.0895
0.0925
0.0905
0.091
0.098
0.105
0.104
0.103
0.11
0.112
0.1095
0.112
0.112
0.1125
0.12
0.125
0.1265
0.1245
0.1245
0.127
0.127
0.133
0.138
0.141
0.1405
0.137
0.136
0.135
0.137
0.1355
0.1345
0.1405
0.143
0.148
0.1495
0.1385
0.1375
0.141
0.142
0.1505
0.149
0.147
0.1415
0.1335
0.14
0.145
0.1425
0.141
0.142
0.136
0.128
0.131
0.139
0.1435
0.1385
0.134
0.1325
0.1335
0.132
0.13
0.134
0.1285
0.1265
0.124
0.126
0.1275
0.1235
0.127
0.1265
0.1255
0.119
0.114
0.1145
0.1075
0.103
0.0975
0.0955
0.099
0.0965
0.0935
0.0905
0.09
0.086
0.082
0.084
0.0835
0.0855
0.0815
0.074
0.0725
0.0655
0.063
0.066
0.069
0.067
0.0605
0.057
0.057
0.053
0.054
0.0535
0.046
0.046
0.047
0.048
0.052
0.0555
0.0475
0.042
0.04
0.0345
0.037
0.0385
0.0415
0.0385
0.025
0.028
0.036
0.031
0.032
0.034
0.0335
0.029
0.022
0.0215
0.0275
0.0315
0.0205
0.014
0.02
0.0235
0.0215
0.0225
0.027
0.0235
0.017
0.0205
0.021
0.016
0.016
0.0145
0.0185
0.0185
0.0085
0.011
0.019
0.025
0.0215
0.0075
0.008
0.0165
0.0185
0.016
0.0205
0.016
0.0175
0.0225
0.0135
0.012
0.01
0.016
0.0155
0.0125
0.014
0.006
0.0075
0.01
0.0055
0.006
0.0075
0.005
0.0065
0.009
0.0075
0.0015
-0.0005
0.0015
-0.0025
-0.0005
0.0
-0.0015
-0.0025
-0.002
0.006
0.0045
0.004
0.007
0.0075
0.012
0.0125
0.0105
0.0105
0.0035
0.001
0.005
0.0035
0.001
0.0015
0.0035
0.0065
0.0045
-0.0055
-0.006
-0.0005
0.0005
0.0015
0.0005
0.0005
0.002
0.002
0.0035
0.0055
0.0055
0.003
0.005
0.0015
0.0055
0.0105
0.0065
0.006
0.002
-0.001
-0.001
0.005
0.007
0.0045
0.0005
-0.0065
-0.001
0.008
0.0075
0.0095
0.0095
0.005
0.0055
0.004
0.0045
0.0055
0.006
0.012
0.012
0.012
0.0115
0.0095
0.014
0.009
0.0045
0.008
0.005
0.006
0.0095
0.011
0.014
0.0185
0.0175
0.01
0.009
0.0085
0.008
0.009
0.01
0.012
0.012
0.007
0.013
0.0135
0.006
0.008
0.0105
0.0085
0.006
0.0085
0.0055
0.007
0.0125
0.0105
0.0105
0.0125
0.0085
0.0065
0.0055
-0.003
-0.006
-0.0025
0.0035
0.0015
-0.002
0.004
0.0065
0.004
0.0045
0.0035
0.002
0.0025
0.007
0.0105
0.003
-0.0005
0.0005
0.003
0.007
0.006
0.0045
-0.0005
-0.0025
-0.0025
-0.0005
0.004
0.0065
0.0065
0.002
0.005
0.0075
0.008
0.009
0.004
0.0055
0.009
0.006
0.0005
0.0
0.0015
0.002
0.0015
0.003
0.005
0.002
0.006
0.0025
0.0015
0.005
0.002
0.004
0.0
-0.001
0.002
0.0005
-0.0025
-0.002
-0.0005
0.001
0.002
0.0
-0.001
-0.0025
-0.0025
0.0
0.001
-0.003
-0.004
-0.001
-0.0005
-0.0025
-0.002
0.002
0.002
0.0
-0.0015
-0.003
-0.005
-0.002
-0.004
-0.0085
-0.005
-0.003
-0.0005
-0.002
-0.005
-0.004
-0.0005
0.0
0.0025
0.005
0.0
-0.006
-0.0085
-0.0045
-0.002
-0.007
-0.0095
-0.0075
-0.0035
-0.0025
0.0015
0.001
-0.0065
-0.0075
-0.009
-0.0075
-0.007
-0.008
-0.004
-0.002
-0.001
-0.0045
-0.008
-0.006
-0.0015
0.0005
0.0025
0.001
-0.0025
-0.0015
-0.001
0.0
-0.001
-0.0025
-0.002
-0.001
-0.0015
-0.0025
-0.002
-0.0015
-0.004
-0.006
-0.0055
-0.007
-0.007
-0.0055
-0.0075
-0.0055
-0.001
0.0015
0.0015
-0.001
0.0005
-0.0025
-0.006
-0.0045
-0.004
-0.0025
0.0
0.0015
0.001
0.004
0.001
0.0
0.001
-0.003
-0.0035
-0.007
-0.009
-0.004
0.0005
0.007
0.0065
-0.0035
-0.0065
-0.0025
0.0005
0.001
0.0
0.001
0.003
0.0035
0.0095
0.0085
-0.0005
-0.0025
-0.002
-0.002
-0.0005
0.0005
0.0005
0.005
0.0065
0.005
0.005
0.002
0.002
0.0055
0.0045
0.002
0.0
-0.0035
-0.0045
0.002
0.0045
-0.0015
-0.003
-0.008
-0.0065
-0.005
-0.01
-0.007
-0.006
-0.0065
-0.006
-0.0075
-0.007
-0.0055
-0.0055
-0.004
-0.0045
-0.0035
0.0
0.0005
0.001
0.002
0.002
0.002
0.001
-0.002
-0.0055
-0.0045
-0.002
-0.006
-0.008
-0.006
-0.004
-0.002
-0.002
-0.0015
-0.001
-0.0025
-0.008
-0.0115
-0.012
-0.007
-0.007
-0.0115
-0.0125
-0.009
-0.0065
-0.0025
0.001
0.003
0.003
0.002
0.006
0.004
0.002
0.005
0.0035
0.0005
0.0025
0.005
0.004
0.0055
0.0065
0.007
0.008
0.0045
0.007
0.012
0.0185
0.0225
0.018
0.019
0.02
0.02
0.024
0.0305
0.031
0.0235
0.0245
0.025
0.025
0.026
0.0255
0.026
0.0255
0.0245
0.026
0.028
0.029
0.0335
0.036
0.0375
0.0395
0.0415
0.0455
0.048
0.0485
0.0485
0.049
0.048
0.05
0.0515
0.0535
0.056
0.0525
0.052
0.052
0.0535
0.0535
0.05
0.052
0.052
0.052
0.0515
0.049
0.0425
0.0355
0.034
0.034
0.032
0.027
0.025
0.0235
0.022
0.02
0.016
0.014
0.0125
0.009
0.006
0.0095
0.009
0.005
0.004
0.001
-0.003
-0.003
-0.0015
-0.002
-0.0035
-0.005
-0.004
-0.003
-0.005
-0.004
-0.0035
-0.0035
-0.0025
-0.0025
-0.003
-0.0035
-0.002
-0.002
-0.0025
-0.0025
-0.0025
-0.006
-0.009
-0.011
-0.0115
-0.0085
-0.0035
-0.002
-0.0075
-0.0095
-0.009
-0.0075
-0.007
-0.0045
-0.0025
-0.007
-0.012
-0.015
-0.0135
-0.0115
-0.009
-0.0105
-0.0135
-0.01
-0.0055
0.0005
0.007
0.0115
0.015
0.015
0.0105
0.007
0.0025
0.0025
0.007
0.0175
0.0335
0.0485
0.0655
0.083
0.103
0.119
0.1415
0.176
0.2135
0.2515
0.277
0.2985
0.326
0.355
0.396
0.4405
0.4725
0.5025
0.528
0.5475
0.5675
0.5785
0.585
0.593
0.5835
0.5615
0.5315
0.4945
0.457
0.414
0.362
0.3065
0.2535
0.204
0.1585
0.1195
0.08
0.0455
0.0195
0.0105
0.0195
0.0135
0.004
0.0
-0.003
-0.003
-0.0065
-0.01
-0.017
-0.023
-0.023
-0.0235
-0.022
-0.0225
-0.025
-0.017
-0.014
-0.015
-0.011
-0.012
-0.011
-0.0105
-0.01
-0.0055
-0.0015
0.005
0.01
0.011
0.014
0.015
0.0175
0.017
0.013
0.0105
0.0105
0.011
0.0085
0.007
0.007
0.0085
0.011
0.01
0.0095
0.0125
0.015
0.0195
0.02
0.018
0.0165
0.012
0.0115
0.0155
0.0145
0.0135
0.014
0.015
0.016
0.017
0.0175
0.018
0.021
0.022
0.0205
0.0185
0.02
0.0245
0.0225
0.022
0.022
0.02
0.018
0.0115
0.012
0.0105
0.009
0.0115
0.011
0.014
0.016
0.018
0.0185
0.021
0.021
0.019
0.0205
0.018
0.0225
0.0255
0.025
0.021
0.019
0.0195
0.0165
0.015
0.0145
0.016
0.0185
0.0205
0.022
0.0215
0.0225
0.0245
0.026
0.0255
0.0275
0.0315
0.0315
0.0245
0.0195
0.02
0.023
0.027
0.0245
0.02
0.02
0.0225
0.0255
0.029
0.033
0.0295
0.0245
0.0225
0.023
0.0245
0.023
0.0265
0.0275
0.024
0.0235
0.0205
0.0225
0.023
0.024
0.023
0.022
0.0265
0.026
0.028
0.028
0.029
0.029
0.028
0.0305
0.032
0.032
0.033
0.0305
0.0265
0.0285
0.033
0.036
0.033
0.0315
0.0305
0.028
0.0335
0.0385
0.0385
0.0405
0.0405
0.0385
0.0385
0.039
0.0415
0.044
0.0455
0.0475
0.048
0.047
0.045
0.044
0.047
0.0475
0.0475
0.0515
0.052
0.057
0.0595
0.0555
0.0585
0.06
0.0575
0.0545
0.0575
0.0595
0.0605
0.063
0.0635
0.0655
0.07
0.075
0.0735
0.066
0.069
0.0735
0.072
0.0755
0.076
0.0795
0.0835
0.0805
0.079
0.0795
0.084
0.0875
0.0925
0.0945
0.093
0.0955
0.097
0.0995
0.1005
0.1015
0.1005
0.099
0.1005
0.102
0.106
0.111
0.1105
0.1105
0.1175
0.12
0.1195
0.1235
0.1265
0.127
0.125
0.12
0.122
0.1245
0.128
0.131
0.1325
0.1365
0.1365
0.14
0.1395
0.1395
0.1415
0.1405
0.1415
0.141
0.1405
0.141
0.141
0.141
0.1405
0.1435
0.1475
0.148
0.145
0.1415
0.137
0.138
0.1405
0.14
0.144
0.1435
0.139
0.136
0.134
0.1385
0.1375
0.132
0.1305
0.1265
0.12
0.1155
0.1135
0.1105
0.112
0.11
0.107
0.1045
0.0985
0.0995
0.0985
0.093
0.092
0.0925
0.087
0.086
0.0855
0.081
0.0775
0.074
0.0685
0.0655
0.066
0.0665
0.0655
0.0585
0.0575
0.061
0.057
0.0535
0.049
0.045
0.0455
0.042
0.0395
0.039
0.04
0.0385
0.034
0.033
0.032
0.0305
0.0265
0.025
0.0255
0.0255
0.029
0.0285
0.0275
0.0315
0.0315
0.027
0.0245
0.023
0.0235
0.0255
0.024
0.0235
0.024
0.022
0.022
0.0235
0.0215
0.0185
0.021
0.0165
0.0105
0.012
0.0135
0.018
0.021
0.0205
0.0195
0.018
0.018
0.0195
0.022
0.022
0.02
0.0185
0.0215
0.0225
0.022
0.0215
0.0225
0.023
0.0175
0.0185
0.0185
0.018
0.024
0.025
0.0205
0.018
0.0185
0.0185
0.021
0.0225
0.022
0.02
0.0185
0.0205
0.0185
0.018
0.0125
0.014
0.018
0.016
0.0215
0.021
0.0145
0.0085
0.006
0.008
0.0095
0.0085
0.0085
0.0085
0.007
0.0065
0.007
0.01
0.011
0.011
0.011
0.0105
0.012
0.0155
0.0155
0.0145
0.0145
0.014
0.013
0.015
0.018
0.018
0.0165
0.014
0.0155
0.015
0.013
0.0115
0.0115
0.0165
0.0175
0.011
0.004
0.0015
0.0045
0.007
0.008
0.011
0.011
0.0115
0.0105
0.0075
0.005
0.0045
0.009
0.0085
0.009
0.011
0.012
0.0125
0.0095
0.008
0.006
0.008
0.0085
0.009
0.011
0.007
0.007
0.0075
0.0075
0.0075
0.0065
0.008
0.0065
0.0085
0.009
0.009
0.009
0.0035
0.0035
0.0045
0.0045
0.0035
0.004
0.008
0.009
0.009
0.0125
0.013
0.01
0.005
0.001
0.003
0.0015
0.0
0.001
-0.001
-0.001
0.0
-0.002
-0.0015
0.001
0.0035
0.0045
0.004
0.0055
0.0065
0.0075
0.007
0.0065
0.0095
0.0105
0.0115
0.008
0.0005
0.001
0.0005
0.003
0.0055
0.0035
0.004
0.0015
0.0005
-0.002
-0.003
-0.002
-0.0005
0.0005
0.0015
0.0005
-0.0025
-0.0025
-0.0015
0.0005
-0.0005
-0.0005
0.001
-0.0015
-0.0025
-0.0025
-0.003
-0.002
0.0015
0.004
0.0045
0.003
0.0005
0.001
0.0015
0.003
0.002
0.002
0.003
0.001
0.001
-0.0015
-0.0035
-0.002
-0.0005
0.002
0.0005
-0.002
-0.0035
-0.004
-0.002
0.0
0.0005
0.0
0.0
0.0025
0.0045
0.0035
-0.0005
-0.004
-0.007
-0.005
-0.0015
-0.0005
0.0005
-0.002
-0.006
-0.008
-0.005
-0.0025
-0.005
-0.0035
-0.005
-0.0055
-0.005
-0.004
-0.002
-0.0065
-0.006
-0.007
-0.011
-0.0095
-0.01
-0.0085
-0.005
-0.0055
-0.0085
-0.01
-0.011
-0.009
-0.0045
-0.0055
-0.009
-0.009
-0.007
-0.007
-0.006
-0.0055
-0.0045
-0.0045
-0.01
-0.0105
-0.0075
-0.008
-0.01
-0.009
-0.0095
-0.009
-0.0085
-0.0095
-0.009
-0.011
-0.0135
-0.017
-0.0165
-0.013
-0.0065
0.0005
-0.0035
-0.013
-0.0195
-0.0185
-0.0145
-0.0135
-0.016
-0.0165
-0.0155
-0.015
-0.016
-0.016
-0.0165
-0.0145
-0.0135
-0.0185
-0.0195
-0.0205
-0.0205
-0.018
-0.016
-0.016
-0.0155
-0.0175
-0.0245
-0.0225
-0.017
-0.019
-0.02
-0.0215
-0.02
-0.016
-0.017
-0.0175
-0.018
-0.016
-0.0145
-0.0185
-0.022
-0.022
-0.0205
-0.022
-0.023
-0.022
-0.0225
-0.0235
-0.0235
-0.0235
-0.0225
-0.024
-0.022
-0.0175
-0.0185
-0.0205
-0.0225
-0.024
-0.022
-0.0185
-0.0185
-0.0205
-0.019
-0.0165
-0.018
-0.015
-0.0125
-0.0125
-0.0125
-0.015
-0.0185
-0.02
-0.0195
-0.02
-0.0175
-0.0165
-0.017
-0.018
-0.0165
-0.0185
-0.017
-0.013
-0.0125
-0.015
-0.0185
-0.018
-0.017
-0.015
-0.0155
-0.017
-0.019
-0.0215
-0.0205
-0.019
-0.014
-0.0155
-0.0195
-0.02
-0.0195
-0.02
-0.0215
-0.02
-0.022
-0.022
-0.02
-0.023
-0.023
-0.021
-0.022
-0.0235
-0.021
-0.018
-0.019
-0.02
-0.0195
-0.018
-0.0155
-0.0175
-0.0195
-0.0195
-0.0195
-0.0175
-0.016
-0.0165
-0.017
-0.0175
-0.0165
-0.016
-0.018
-0.021
-0.025
-0.0215
-0.0205
-0.0205
-0.0145
-0.015
-0.016
-0.0135
-0.0125
-0.015
-0.016
-0.0175
-0.02
-0.021
-0.0175
-0.0145
-0.019
-0.0235
-0.0235
-0.023
-0.026
-0.024
-0.02
-0.0195
-0.0205
-0.023
-0.026
-0.0235
-0.0235
-0.0225
-0.0205
-0.0225
-0.0195
-0.02
-0.022
-0.022
-0.02
-0.017
-0.0195
-0.022
-0.022
-0.0195
-0.02
-0.0185
-0.0135
-0.0135
-0.0155
-0.0185
-0.0195
-0.0165
-0.014
-0.013
-0.0155
-0.0165
-0.0165
-0.0165
-0.0165
-0.016
-0.0105
-0.0075
-0.009
-0.014
-0.014
-0.012
-0.0105
-0.0095
-0.009
-0.0115
-0.016
-0.0145
-0.0135
-0.0135
-0.0135
-0.017
-0.015
-0.0125
-0.0105
-0.009
-0.0065
-0.004
-0.0045
-0.005
-0.006
-0.0045
-0.0015
0.001
0.001
0.0015
0.004
0.0015
-0.006
-0.011
-0.01
-0.0085
-0.011
-0.0105
-0.0075
-0.006
-0.003
-0.003
-0.001
0.0045
0.008
0.0135
0.0195
0.0225
0.024
0.02
0.018
0.0175
0.0205
0.0235
0.0205
0.018
0.014
0.0155
0.0175
0.021
0.0275
0.029
0.026
0.025
0.028
0.0325
0.038
0.04
0.0385
0.0385
0.039
0.039
0.039
0.039
0.0385
0.0375
0.0365
0.0325
0.028
0.0245
0.023
0.0195
0.016
0.013
0.0105
0.012
0.011
0.0095
0.007
0.006
0.001
-0.0025
-0.004
-0.0075
-0.0105
-0.016
-0.016
-0.019
-0.024
-0.0285
-0.033
-0.0335
-0.0355
-0.0365
-0.037
-0.037
-0.037
-0.0365
-0.034
-0.0335
-0.035
-0.0375
-0.0375
-0.036
-0.039
-0.0435
-0.0445
-0.0455
-0.0445
-0.0425
