ECG
-0.31
-0.3145
-0.3155
-0.312
-0.32
-0.309
-0.299
-0.3135
-0.3265
-0.309
-0.306
-0.3075
-0.3185
-0.334
-0.3195
-0.326
-0.322
-0.322
-0.32
-0.316
-0.33
-0.3205
-0.317
-0.3105
-0.3035
-0.313
-0.318
-0.3115
-0.3125
-0.322
-0.327
-0.334
-0.319
-0.3025
-0.3075
-0.309
-0.3115
-0.314
-0.2995
-0.3035
-0.312
-0.315
-0.31
-0.301
-0.2985
-0.3005
-0.3115
-0.2985
-0.3
-0.2925
-0.2975
-0.3345
-0.332
-0.3295
-0.3155
-0.3035
-0.31
-0.3155
-0.326
-0.3235
-0.3165
-0.3145
-0.3195
-0.3155
-0.3155
-0.321
-0.311
-0.299
-0.305
-0.3125
-0.302
-0.3085
-0.319
-0.3135
-0.299
-0.3075
-0.3175
-0.3005
-0.3085
-0.3115
-0.3095
-0.316
-0.31
-0.3065
-0.3035
-0.2995
-0.2985
-0.3055
-0.3055
-0.2995
-0.3135
-0.3045
-0.294
-0.307
-0.3115
-0.3
-0.295
-0.3015
-0.2975
-0.297
-0.293
-0.2905
-0.292
-0.285
-0.2895
-0.3035
-0.296
-0.295
-0.3005
-0.3065
-0.3025
-0.2855
-0.29
-0.2835
-0.2915
-0.291
-0.2715
-0.275
-0.2765
-0.277
-0.273
-0.2715
-0.2655
-0.263
-0.2595
-0.2585
-0.2675
-0.2485
-0.2505
-0.251
-0.24
-0.2525
-0.2465
-0.2565
-0.267
-0.2605
-0.2625
-0.26
-0.2645
-0.2695
-0.2655
-0.2545
-0.2505
-0.2595
-0.2705
-0.2795
-0.2765
-0.2735
-0.282
-0.2715
-0.2545
-0.2655
-0.2535
-0.244
-0.258
-0.2595
-0.2675
-0.2635
-0.2625
-0.2625
-0.2565
-0.256
-0.2495
-0.2565
-0.2685
-0.2715
-0.264
-0.265
-0.266
-0.277
-0.2855
-0.3005
-0.3185
-0.3165
-0.33
-0.3225
-0.3225
-0.326
-0.3235
-0.346
-0.34
-0.3255
-0.337
-0.335
-0.3205
-0.309
-0.3215
-0.331
-0.3165
-0.3335
-0.342
-0.337
-0.323
-0.3275
-0.3395
-0.3325
-0.342
-0.332
-0.317
-0.325
-0.3355
-0.3315
-0.335
-0.32
-0.3165
-0.325
-0.32
-0.3395
-0.3325
-0.3285
-0.333
-0.3255
-0.323
-0.315
-0.325
-0.326
-0.3285
-0.3405
-0.336
-0.335
-0.332
-0.33
-0.333
-0.3375
-0.3455
-0.3445
-0.35
-0.3555
-0.353
-0.376
-0.382
-0.3695
-0.379
-0.3875
-0.3745
-0.3605
-0.3565
-0.34
-0.325
-0.319
-0.301
-0.28
-0.2745
-0.253
-0.223
-0.187
-0.153
-0.1325
-0.093
-0.0725
-0.048
-0.013
0.017
0.0635
0.1085
0.1585
0.208
0.24
0.2325
0.2105
0.1685
0.1235
0.1065
0.0745
0.0335
-0.015
-0.039
-0.0495
-0.0675
-0.0715
-0.087
-0.123
-0.1405
-0.139
-0.1735
-0.206
-0.21
-0.2645
-0.3175
-0.338
-0.3485
-0.341
-0.3275
-0.3145
-0.306
-0.3085
-0.3335
-0.3385
-0.325
-0.3125
-0.3295
-0.3405
-0.3185
-0.317
-0.3125
-0.3025
-0.305
-0.315
-0.3225
-0.3275
-0.332
-0.338
-0.3305
-0.319
-0.3205
-0.3205
-0.313
-0.309
-0.3385
-0.3305
-0.313
-0.3385
-0.333
-0.3265
-0.326
-0.322
-0.3155
-0.3155
-0.336
-0.334
-0.32
-0.324
-0.3255
-0.3265
-0.3285
-0.321
-0.32
-0.3145
-0.3165
-0.3205
-0.319
-0.318
-0.306
-0.3175
-0.327
-0.3195
-0.3205
-0.3125
-0.318
-0.3275
-0.3215
-0.3155
-0.3195
-0.3205
-0.3205
-0.323
-0.309
-0.3145
-0.3225
-0.3235
-0.325
-0.3165
-0.3185
-0.3135
-0.313
-0.3205
-0.319
-0.3195
-0.3145
-0.3185
-0.3125
-0.3035
-0.322
-0.3155
-0.305
-0.312
-0.3155
-0.3105
-0.308
-0.3175
-0.309
-0.303
-0.31
-0.3215
-0.3165
-0.3145
-0.325
-0.3145
-0.308
-0.2995
-0.302
-0.3
-0.298
-0.303
-0.3025
-0.303
-0.294
-0.2995
-0.2945
-0.29
-0.3025
-0.3005
-0.3095
-0.3075
-0.296
-0.299
-0.2855
-0.288
-0.294
-0.295
-0.2955
-0.296
-0.2995
-0.2865
-0.298
-0.2895
-0.2865
-0.3095
-0.2985
-0.294
-0.2905
-0.293
-0.2925
-0.2875
-0.2985
-0.287
-0.2855
-0.2915
-0.2875
-0.2835
-0.287
-0.29
-0.2815
-0.277
-0.277
-0.2815
-0.2855
-0.2735
-0.265
-0.2795
-0.28
-0.2745
-0.2795
-0.268
-0.262
-0.2665
-0.267
-0.2895
-0.292
-0.2765
-0.2705
-0.267
-0.2775
-0.271
-0.254
-0.265
-0.2605
-0.248
-0.263
-0.271
-0.2705
-0.261
-0.2525
-0.2475
-0.2465
-0.252
-0.2445
-0.2385
-0.2415
-0.2485
-0.2535
-0.2465
-0.2435
-0.2485
-0.2425
-0.239
-0.24
-0.236
-0.231
-0.2345
-0.2335
-0.237
-0.244
-0.2245
-0.216
-0.216
-0.2105
-0.2065
-0.2155
-0.2205
-0.2155
-0.211
-0.206
-0.2045
-0.192
-0.193
-0.1975
-0.203
-0.2005
-0.1935
-0.196
-0.1945
-0.188
-0.1795
-0.1715
-0.17
-0.1775
-0.184
-0.1785
-0.1785
-0.19
-0.171
-0.1605
-0.1685
-0.167
-0.1675
-0.1705
-0.162
-0.161
-0.1635
-0.1605
-0.159
-0.154
-0.159
-0.1485
-0.1395
-0.14
-0.148
-0.15
-0.142
-0.1395
-0.152
-0.171
-0.162
-0.1555
-0.1545
-0.145
-0.1355
-0.1475
-0.154
-0.1555
-0.155
-0.145
-0.1485
-0.1425
-0.1485
-0.133
-0.1325
-0.15
-0.143
-0.163
-0.17
-0.1595
-0.1545
-0.1655
-0.1785
-0.176
-0.1735
-0.1785
-0.176
-0.179
-0.1925
-0.1945
-0.197
-0.201
-0.201
-0.1975
-0.204
-0.214
-0.2135
-0.2045
-0.203
-0.2055
-0.2205
-0.249
-0.249
-0.2435
-0.2405
-0.241
-0.2415
-0.2425
-0.264
-0.2705
-0.2495
-0.2445
-0.2575
-0.266
-0.276
-0.2835
-0.284
-0.279
-0.279
-0.279
-0.2735
-0.2795
-0.2835
-0.287
-0.2945
-0.289
-0.283
-0.287
-0.2995
-0.2995
-0.3
-0.3015
-0.2925
-0.29
-0.288
-0.301
-0.303
-0.298
-0.298
-0.3
-0.2985
-0.293
-0.307
-0.3065
-0.3
-0.2975
-0.3045
-0.319
-0.314
-0.3015
-0.305
-0.3175
-0.312
-0.3035
-0.3095
-0.311
-0.303
-0.2995
-0.2995
-0.3025
-0.3105
-0.3185
-0.31
-0.299
-0.3025
-0.31
-0.3155
-0.318
-0.318
-0.3145
-0.3185
-0.3215
-0.3175
-0.3235
-0.3255
-0.3155
-0.3105
-0.3125
-0.319
-0.317
-0.315
-0.3055
-0.299
-0.309
-0.3165
-0.323
-0.326
-0.3275
-0.3235
-0.319
-0.315
-0.3185
-0.333
-0.341
-0.3315
-0.3245
-0.323
-0.323
-0.317
-0.322
-0.3215
-0.296
-0.3035
-0.3275
-0.337
-0.3255
-0.323
-0.328
-0.3165
-0.317
-0.318
-0.3265
-0.338
-0.3275
-0.3205
-0.317
-0.317
-0.325
-0.3325
-0.3205
-0.3215
-0.3315
-0.3175
-0.3175
-0.33
-0.332
-0.313
-0.315
-0.3325
-0.3235
-0.318
-0.3225
-0.3225
-0.3175
-0.3355
-0.3345
-0.3225
-0.3265
-0.33
-0.3325
-0.322
-0.3205
-0.3125
-0.319
-0.3245
-0.3215
-0.315
-0.312
-0.337
-0.3225
-0.312
-0.3145
-0.3105
-0.3265
-0.3255
-0.3245
-0.321
-0.324
-0.331
-0.32
-0.316
-0.319
-0.3195
-0.326
-0.3375
-0.3245
-0.333
-0.342
-0.326
-0.324
-0.327
-0.327
-0.3155
-0.3225
-0.3255
-0.323
-0.323
-0.3155
-0.323
-0.318
-0.3185
-0.3195
-0.305
-0.3175
-0.316
-0.3185
-0.3255
-0.317
-0.3265
-0.3245
-0.3145
-0.325
-0.334
-0.323
-0.323
-0.326
-0.319
-0.316
-0.329
-0.331
-0.3225
-0.327
-0.3235
-0.323
-0.3215
-0.3235
-0.3275
-0.32
-0.321
-0.3155
-0.316
-0.331
-0.3225
-0.319
-0.331
-0.331
-0.318
-0.32
-0.3205
-0.312
-0.319
-0.324
-0.326
-0.3135
-0.3145
-0.3195
-0.3305
-0.3335
-0.32
-0.319
-0.321
-0.324
-0.315
-0.316
-0.3175
-0.315
-0.3095
-0.314
-0.3135
-0.311
-0.3225
-0.3245
-0.323
-0.3215
-0.326
-0.312
-0.3125
-0.3165
-0.314
-0.318
-0.3045
-0.308
-0.316
-0.319
-0.3235
-0.3225
-0.323
-0.324
-0.3235
-0.3215
-0.327
-0.3315
-0.3285
-0.324
-0.325
-0.3305
-0.333
-0.332
-0.337
-0.327
-0.321
-0.3195
-0.3145
-0.322
-0.3265
-0.3275
-0.326
-0.3295
-0.3315
-0.33
-0.3225
-0.3185
-0.32
-0.3285
-0.331
-0.3245
-0.328
-0.3265
-0.3165
-0.311
-0.318
-0.3185
-0.319
-0.3265
-0.326
-0.333
-0.3305
-0.3215
-0.3275
-0.322
-0.328
-0.3285
-0.3165
-0.3275
-0.3325
-0.3355
-0.3305
-0.3235
-0.343
-0.334
-0.3125
-0.3185
-0.325
-0.3255
-0.3175
-0.3175
-0.3155
-0.3145
-0.313
-0.2975
-0.31
-0.326
-0.3215
-0.323
-0.322
-0.3195
-0.3215
-0.3255
-0.3275
-0.3245
-0.3265
-0.3245
-0.323
-0.3245
-0.323
-0.3275
-0.3285
-0.3245
-0.3215
-0.329
-0.3375
-0.332
-0.3255
-0.319
-0.306
-0.302
-0.317
-0.322
-0.317
-0.3155
-0.3085
-0.3075
-0.322
-0.3215
-0.3155
-0.3225
-0.3125
-0.3075
-0.311
-0.3055
-0.312
-0.3165
-0.301
-0.294
-0.296
-0.298
-0.3
-0.3065
-0.3015
-0.2945
-0.298
-0.3085
-0.3075
-0.295
-0.287
-0.2845
-0.289
-0.278
-0.2725
-0.282
-0.284
-0.277
-0.2825
-0.2795
-0.2555
-0.2535
-0.282
-0.2935
-0.2655
-0.2475
-0.2565
-0.2645
-0.2585
-0.269
-0.2655
-0.2625
-0.271
-0.2635
-0.2625
-0.262
-0.269
-0.2665
-0.258
-0.258
-0.2635
-0.272
-0.276
-0.2775
-0.273
-0.269
-0.271
-0.273
-0.2695
-0.277
-0.2725
-0.2645
-0.2615
-0.2655
-0.273
-0.2485
-0.2505
-0.2655
-0.2455
-0.2515
-0.266
-0.254
-0.2595
-0.2675
-0.272
-0.275
-0.272
-0.289
-0.3055
-0.318
-0.3245
-0.3275
-0.326
-0.3215
-0.3175
-0.3195
-0.3275
-0.328
-0.3255
-0.319
-0.3295
-0.3365
-0.322
-0.3245
-0.3455
-0.342
-0.3305
-0.3325
-0.34
-0.339
-0.3395
-0.3395
-0.336
-0.344
-0.34
-0.3385
-0.3405
-0.3365
-0.336
-0.3305
-0.3255
-0.337
-0.336
-0.3285
-0.34
-0.338
-0.331
-0.3345
-0.3335
-0.3395
-0.347
-0.3385
-0.327
-0.339
-0.354
-0.3335
-0.324
-0.3315
-0.338
-0.3465
-0.337
-0.3375
-0.3385
-0.3365
-0.356
-0.3605
-0.3715
-0.3965
-0.394
-0.3765
-0.374
-0.368
-0.3725
-0.3795
-0.346
-0.3395
-0.336
-0.307
-0.2965
-0.2825
-0.26
-0.2315
-0.193
-0.1605
-0.142
-0.1025
-0.072
-0.066
-0.0405
0.011
0.0765
0.123
0.1655
0.2105
0.247
0.254
0.2345
0.2005
0.151
0.126
0.095
0.042
-0.0085
-0.038
-0.0455
-0.068
-0.0925
-0.098
-0.1155
-0.1425
-0.1475
-0.1655
-0.2055
-0.2325
-0.278
-0.3265
-0.3465
-0.358
-0.3585
-0.3415
-0.3305
-0.337
-0.327
-0.3305
-0.336
-0.334
-0.3365
-0.311
-0.3175
-0.325
-0.325
-0.3305
-0.3295
-0.328
-0.334
-0.347
-0.321
-0.3175
-0.3325
-0.3325
-0.3385
-0.334
-0.3355
-0.3365
-0.3285
-0.333
-0.331
-0.3285
-0.3385
-0.3355
-0.332
-0.3315
-0.327
-0.328
-0.329
-0.3375
-0.352
-0.351
-0.352
-0.341
-0.3305
-0.3415
-0.3315
-0.3255
-0.34
-0.3415
-0.3345
-0.3245
-0.333
-0.334
-0.3195
-0.321
-0.3245
-0.3385
-0.336
-0.33
-0.3295
-0.33
-0.344
-0.3395
-0.335
-0.334
-0.346
-0.352
-0.3335
-0.339
-0.3325
-0.319
-0.321
-0.331
-0.3385
-0.334
-0.3355
-0.3365
-0.331
-0.3245
-0.3255
-0.331
-0.326
-0.3245
-0.326
-0.3265
-0.3305
-0.325
-0.3255
-0.3225
-0.3095
-0.32
-0.3285
-0.32
-0.322
-0.3155
-0.3205
-0.329
-0.3245
-0.325
-0.3245
-0.3225
-0.3155
-0.3165
-0.316
-0.311
-0.312
-0.3105
-0.3125
-0.3135
-0.317
-0.3145
-0.311
-0.321
-0.319
-0.316
-0.3155
-0.311
-0.306
-0.305
-0.3175
-0.3175
-0.31
-0.306
-0.3
-0.3035
-0.3185
-0.3125
-0.308
-0.317
-0.3115
-0.3085
-0.2975
-0.3055
-0.31
-0.2885
-0.2895
-0.2995
-0.3105
-0.312
-0.3045
-0.301
-0.303
-0.3135
-0.2995
-0.291
-0.306
-0.3025
-0.305
-0.3
-0.286
-0.289
-0.2915
-0.2975
-0.294
-0.29
-0.29
-0.2815
-0.2805
-0.291
-0.2935
-0.288
-0.2825
-0.288
-0.297
-0.2915
-0.2805
-0.277
-0.2765
-0.2695
-0.272
-0.2655
-0.267
-0.2795
-0.281
-0.2865
-0.2795
-0.2655
-0.272
-0.262
-0.252
-0.2675
-0.2635
-0.261
-0.2645
-0.2625
-0.2645
-0.2665
-0.262
-0.264
-0.2695
-0.2555
-0.2505
-0.249
-0.245
-0.243
-0.238
-0.242
-0.2435
-0.2445
-0.232
-0.2215
-0.238
-0.2355
-0.2215
-0.2255
-0.2245
-0.2265
-0.228
-0.226
-0.23
-0.226
-0.2215
-0.2105
-0.213
-0.221
-0.2045
-0.1985
-0.2005
-0.2015
-0.1975
-0.1945
-0.198
-0.1905
-0.188
-0.1845
-0.1865
-0.194
-0.1875
-0.181
-0.181
-0.19
-0.1895
-0.1815
-0.1845
-0.181
-0.1705
-0.1695
-0.178
-0.1785
-0.1675
-0.1675
-0.175
-0.1725
-0.167
-0.1645
-0.174
-0.1775
-0.17
-0.161
-0.163
-0.1775
-0.175
-0.174
-0.1715
-0.1745
-0.1835
-0.1795
-0.1775
-0.1675
-0.1745
-0.18
-0.1585
-0.175
-0.1835
-0.179
-0.1855
-0.1955
-0.2085
-0.201
-0.197
-0.1955
-0.2075
-0.2195
-0.2145
-0.2095
-0.218
-0.222
-0.212
-0.2145
-0.2305
-0.2495
-0.252
-0.2435
-0.2445
-0.2515
-0.258
-0.2685
-0.275
-0.27
-0.2675
-0.2745
-0.2835
-0.276
-0.272
-0.279
-0.288
-0.289
-0.29
-0.2975
-0.288
-0.28
-0.2835
-0.2935
-0.2995
-0.31
-0.3135
-0.309
-0.3105
-0.3105
-0.314
-0.317
-0.321
-0.315
-0.315
-0.327
-0.329
-0.318
-0.3115
-0.3175
-0.318
-0.3185
-0.3245
-0.3245
-0.3185
-0.3155
-0.3265
-0.3375
-0.3375
-0.332
-0.329
-0.326
-0.3335
-0.334
-0.327
-0.331
-0.3275
-0.3275
-0.325
-0.328
-0.331
-0.332
-0.324
-0.322
-0.3335
-0.3285
-0.327
-0.3285
-0.339
-0.3345
-0.3295
-0.343
-0.341
-0.3395
-0.3335
-0.3285
-0.328
-0.327
-0.328
-0.3325
-0.337
-0.3375
-0.333
-0.332
-0.3355
-0.334
-0.3435
-0.3425
-0.337
-0.3435
-0.336
-0.338
-0.3355
-0.329
-0.339
-0.3485
-0.349
-0.3395
-0.3365
-0.341
-0.3455
-0.3405
-0.3385
-0.341
-0.341
-0.3435
-0.334
-0.3405
-0.345
-0.339
-0.35
-0.343
-0.3455
-0.352
-0.343
-0.3465
-0.3445
-0.3405
-0.341
-0.338
-0.346
-0.3465
-0.3475
-0.351
-0.333
-0.3365
-0.351
-0.3475
-0.349
-0.3485
-0.343
-0.34
-0.342
-0.347
-0.3485
-0.352
-0.352
-0.3465
-0.3445
-0.3445
-0.3535
-0.3625
-0.348
-0.3435
-0.3485
-0.3465
-0.3545
-0.357
-0.3515
-0.3465
-0.344
-0.3515
-0.341
-0.339
-0.35
-0.348
-0.353
-0.355
-0.352
-0.347
-0.352
-0.3515
-0.3495
-0.351
-0.3445
-0.3435
-0.3465
-0.3535
-0.3545
-0.3455
-0.342
-0.348
-0.342
-0.345
-0.361
-0.358
-0.346
-0.3505
-0.3535
-0.358
-0.3635
-0.3555
-0.3425
-0.341
-0.343
-0.3465
-0.351
-0.344
-0.338
-0.3385
-0.347
-0.347
-0.341
-0.332
-0.3385
-0.3455
-0.3405
-0.353
-0.3485
-0.3445
-0.352
-0.3465
-0.3375
-0.333
-0.3475
-0.352
-0.3425
-0.3465
-0.3495
-0.342
-0.342
-0.3465
-0.3495
-0.341
-0.328
-0.338
-0.336
-0.334
-0.341
-0.3425
-0.351
-0.3485
-0.3475
-0.3475
-0.3325
-0.3415
-0.3515
-0.3405
-0.3335
-0.347
-0.3495
-0.324
-0.3295
-0.331
-0.331
-0.342
-0.3365
-0.3345
-0.339
-0.339
-0.342
-0.363
-0.365
-0.3515
-0.353
-0.3515
-0.3445
-0.3415
-0.3455
-0.3465
-0.345
-0.348
-0.345
-0.344
-0.346
-0.345
-0.351
-0.3445
-0.3395
-0.3515
-0.35
-0.35
-0.349
-0.347
-0.3485
-0.3475
-0.353
-0.355
-0.353
-0.3515
-0.349
-0.348
-0.3505
-0.357
-0.353
-0.357
-0.353
-0.3335
-0.337
-0.3465
-0.348
-0.3425
-0.3455
-0.344
-0.338
-0.348
-0.3545
-0.3545
-0.362
-0.3565
-0.3375
-0.342
-0.348
-0.34
-0.345
-0.3535
-0.345
-0.344
-0.3395
-0.3405
-0.3565
-0.356
-0.353
-0.347
-0.3495
-0.3545
-0.3495
-0.3465
-0.3525
-0.357
-0.3585
-0.3545
-0.3485
-0.3555
-0.3465
-0.3335
-0.341
-0.3475
-0.348
-0.344
-0.3345
-0.336
-0.3465
-0.35
-0.3455
-0.346
-0.35
-0.3515
-0.3475
-0.3415
-0.3465
-0.344
-0.3495
-0.3505
-0.3455
-0.3525
-0.3345
-0.335
-0.3455
-0.343
-0.344
-0.3445
-0.353
-0.3475
-0.341
-0.345
-0.3475
-0.359
-0.361
-0.35
-0.3385
-0.3235
-0.3315
-0.3415
-0.341
-0.3355
-0.328
-0.337
-0.3335
-0.3355
-0.34
-0.338
-0.3365
-0.3315
-0.337
-0.334
-0.3275
-0.324
-0.327
-0.334
-0.331
-0.3265
-0.3255
-0.3275
-0.327
-0.324
-0.321
-0.31
-0.308
-0.3295
-0.329
-0.32
-0.3195
-0.3175
-0.315
-0.3065
-0.3075
-0.3085
-0.308
-0.305
-0.2975
-0.3025
-0.304
-0.307
-0.304
-0.293
-0.2945
-0.291
-0.297
-0.2945
-0.2815
-0.281
-0.28
-0.2825
-0.2795
-0.28
-0.281
-0.2855
-0.298
-0.2955
-0.288
-0.2955
-0.2855
-0.281
-0.288
-0.2685
-0.275
-0.2935
-0.292
-0.288
-0.2855
-0.2935
-0.2975
-0.294
-0.2905
-0.29
-0.292
-0.289
-0.289
-0.291
-0.291
-0.2925
-0.2905
-0.287
-0.285
-0.2835
-0.279
-0.276
-0.276
-0.2725
-0.283
-0.296
-0.298
-0.313
-0.334
-0.354
-0.353
-0.3415
-0.355
-0.355
-0.349
-0.3585
-0.3585
-0.355
-0.351
-0.354
-0.3615
-0.35
-0.3495
-0.354
-0.3525
-0.3595
-0.355
-0.3685
-0.3685
-0.3575
-0.367
-0.357
-0.3565
-0.3715
-0.3665
-0.359
-0.37
-0.3715
-0.365
-0.3615
-0.3625
-0.3675
-0.3625
-0.361
-0.359
-0.3675
-0.3645
-0.353
-0.356
-0.362
-0.361
-0.3595
-0.366
-0.3615
-0.362
-0.3645
-0.3665
-0.3635
-0.3595
-0.3635
-0.36
-0.363
-0.3645
-0.3825
-0.397
-0.384
-0.389
-0.4145
-0.4225
-0.418
-0.4165
-0.406
-0.404
-0.4005
-0.3825
-0.373
-0.375
-0.3705
-0.3485
-0.325
-0.304
-0.285
-0.261
-0.227
-0.195
-0.161
-0.1255
-0.098
-0.075
-0.038
0.0085
0.0515
0.093
0.1485
0.199
0.2375
0.2595
0.249
0.2105
0.1545
0.139
0.1095
0.048
-0.001
-0.0515
-0.0715
-0.088
-0.107
-0.116
-0.1365
-0.161
-0.1715
-0.186
-0.2335
-0.26
-0.2935
-0.34
-0.359
-0.3785
-0.383
-0.371
-0.362
-0.361
-0.361
-0.3665
-0.3675
-0.3645
-0.352
-0.3415
-0.3475
-0.3455
-0.351
-0.3595
-0.3585
-0.3575
-0.3555
-0.352
-0.3555
-0.3595
-0.3635
-0.363
-0.3565
-0.365
-0.3695
-0.3625
-0.369
-0.372
-0.364
-0.3615
-0.3615
-0.364
-0.374
-0.375
-0.374
-0.3685
-0.3685
-0.371
-0.3685
-0.378
-0.368
-0.3735
-0.3715
-0.357
-0.365
-0.3615
-0.361
-0.362
-0.3515
-0.3455
-0.351
-0.356
-0.3725
-0.3735
-0.3615
-0.362
-0.354
-0.349
-0.354
-0.364
-0.3595
-0.3535
-0.3595
-0.353
-0.3505
-0.3525
-0.352
-0.355
-0.359
-0.3555
-0.3485
-0.3495
-0.354
-0.3615
-0.3535
-0.3475
-0.349
-0.352
-0.36
-0.3555
-0.3525
-0.3455
-0.35
-0.3535
-0.3455
-0.351
-0.353
-0.35
-0.348
-0.348
-0.3575
-0.3555
-0.345
-0.344
-0.346
-0.3435
-0.3465
-0.346
-0.342
-0.347
-0.348
-0.3535
-0.351
-0.3485
-0.338
-0.334
-0.3445
-0.3385
-0.342
-0.344
-0.341
-0.338
-0.334
-0.337
-0.335
-0.3365
-0.342
-0.3425
-0.341
-0.3365
-0.333
-0.337
-0.3375
-0.3335
-0.3355
-0.3365
-0.337
-0.3405
-0.3435
-0.335
-0.337
-0.3435
-0.3345
-0.332
-0.3295
-0.335
-0.3425
-0.339
-0.3335
-0.3265
-0.3345
-0.3365
-0.333
-0.331
-0.323
-0.323
-0.3205
-0.327
-0.3395
-0.333
-0.3185
-0.3215
-0.3325
-0.3285
-0.3195
-0.324
-0.3295
-0.325
-0.3215
-0.3185
-0.32
-0.3175
-0.3075
-0.303
-0.309
-0.3155
-0.318
-0.315
-0.309
-0.3115
-0.3115
-0.312
-0.325
-0.314
-0.2955
-0.3025
-0.3055
-0.297
-0.288
-0.295
-0.2895
-0.2855
-0.29
-0.2835
-0.285
-0.2865
-0.281
-0.276
-0.278
-0.2795
-0.275
-0.271
-0.27
-0.27
-0.2725
-0.2655
-0.26
-0.265
-0.258
-0.259
-0.255
-0.245
-0.2505
-0.249
-0.2435
-0.247
-0.25
-0.2385
-0.236
-0.2375
-0.244
-0.244
-0.2255
-0.238
-0.2355
-0.2195
-0.226
-0.228
-0.2205
-0.213
-0.221
-0.216
-0.2085
-0.211
-0.213
-0.208
-0.198
-0.2055
-0.2135
-0.2075
-0.1965
-0.1925
-0.192
-0.1885
-0.188
-0.193
-0.1945
-0.192
-0.192
-0.1905
-0.193
-0.1985
-0.196
-0.1865
-0.1795
-0.183
-0.197
-0.195
-0.1885
-0.1905
-0.18
-0.1705
-0.176
-0.186
-0.189
-0.1915
-0.1905
-0.1965
-0.2
-0.2015
-0.203
-0.1965
-0.2065
-0.2075
-0.213
-0.2175
-0.2075
-0.211
-0.2125
-0.215
-0.224
-0.2265
-0.238
-0.2425
-0.233
-0.2415
-0.243
-0.2465
-0.2535
-0.258
-0.2625
-0.2595
-0.263
-0.257
-0.275
-0.291
-0.2785
-0.2785
-0.284
-0.288
-0.2945
-0.2945
-0.2945
-0.302
-0.305
-0.3065
-0.303
-0.309
-0.317
-0.3195
-0.316
-0.3115
-0.3235
-0.324
-0.32
-0.3225
-0.3235
-0.3235
-0.323
-0.3335
-0.3255
-0.3215
-0.342
-0.3435
-0.3455
-0.345
-0.34
-0.3365
-0.338
-0.3525
-0.3565
-0.346
-0.344
-0.35
-0.3535
-0.349
-0.347
-0.3465
-0.3465
-0.353
-0.349
-0.346
-0.349
-0.3455
-0.341
-0.343
-0.348
-0.354
-0.358
-0.359
-0.353
-0.354
-0.3615
-0.362
-0.3565
-0.3555
-0.362
-0.3615
-0.3655
-0.358
-0.353
-0.361
-0.3595
-0.3605
-0.352
-0.355
-0.36
-0.365
-0.376
-0.367
-0.3525
-0.3505
-0.357
-0.3605
-0.3615
-0.3615
-0.3615
-0.3575
-0.361
-0.3715
-0.3675
-0.3615
-0.356
-0.353
-0.3585
-0.363
-0.361
-0.3615
-0.3645
-0.368
-0.3725
-0.361
-0.361
-0.3675
-0.3615
-0.3615
-0.366
-0.3675
-0.3645
-0.365
-0.365
-0.36
-0.366
-0.3615
-0.362
-0.371
-0.365
-0.3665
-0.3715
-0.3715
-0.372
-0.366
-0.364
-0.3645
-0.363
-0.374
-0.3745
-0.369
-0.376
-0.3695
-0.368
-0.376
-0.378
-0.369
-0.3645
-0.363
-0.3595
-0.373
-0.3735
-0.3745
-0.372
-0.368
-0.38
-0.374
-0.376
-0.3755
-0.3665
-0.363
-0.3605
-0.366
-0.3745
-0.3785
-0.373
-0.3755
-0.3685
-0.36
-0.3685
-0.378
-0.377
-0.3565
-0.3635
-0.3785
-0.3605
-0.364
-0.375
-0.3705
-0.3675
-0.361
-0.3655
-0.37
-0.3665
-0.3695
-0.369
-0.371
-0.3675
-0.361
-0.3715
-0.375
-0.37
-0.374
-0.3675
-0.3605
-0.3635
-0.365
-0.367
-0.372
-0.376
-0.372
-0.371
-0.358
-0.3465
-0.359
-0.3595
-0.3585
-0.3605
-0.3645
-0.366
-0.3575
-0.3645
-0.3745
-0.3685
-0.362
-0.363
-0.368
-0.37
-0.3645
-0.3635
-0.362
-0.37
-0.3635
-0.3555
-0.3675
-0.3625
-0.3675
-0.3705
-0.3655
-0.361
-0.356
-0.3595
-0.3515
-0.358
-0.366
-0.359
-0.3545
-0.359
-0.364
-0.3645
-0.3665
-0.3665
-0.3615
-0.3625
-0.371
-0.3665
-0.3675
-0.3665
-0.363
-0.3725
-0.3685
-0.3535
-0.3605
-0.359
-0.351
-0.361
-0.348
-0.3435
-0.355
-0.3525
-0.362
-0.375
-0.365
-0.365
-0.372
-0.3665
-0.3605
-0.36
-0.3605
-0.3565
-0.359
-0.361
-0.3615
-0.3615
-0.358
-0.357
-0.357
-0.359
-0.355
-0.3545
-0.357
-0.3625
-0.363
-0.349
-0.3545
-0.366
-0.372
-0.367
-0.3565
-0.366
-0.373
-0.363
-0.3495
-0.342
-0.349
-0.3595
-0.365
-0.3605
-0.3545
-0.3635
-0.3645
-0.358
-0.3635
-0.3535
-0.34
-0.348
-0.3575
-0.358
-0.356
-0.3545
-0.3535
-0.347
-0.3495
-0.3615
-0.351
-0.352
-0.3585
-0.3545
-0.359
-0.3555
-0.3555
-0.3605
-0.36
-0.3585
-0.3585
-0.3575
-0.354
-0.351
-0.3535
-0.3575
-0.3595
-0.36
-0.3495
-0.347
-0.3575
-0.357
-0.352
-0.353
-0.3635
-0.359
-0.35
-0.3495
-0.3495
-0.3545
-0.353
-0.3535
-0.3575
-0.361
-0.3615
-0.3565
-0.3575
-0.3575
-0.351
-0.349
-0.3475
-0.3505
-0.3545
-0.354
-0.356
-0.356
-0.3555
-0.358
-0.358
-0.36
-0.355
-0.341
-0.3555
-0.3645
-0.351
-0.356
-0.3525
-0.342
-0.355
-0.3515
-0.346
-0.3505
-0.353
-0.3575
-0.3495
-0.356
-0.361
-0.353
-0.345
-0.3425
-0.353
-0.35
-0.3435
-0.3405
-0.336
-0.334
-0.3385
-0.3445
-0.339
-0.3415
-0.3445
-0.335
-0.3305
-0.331
-0.333
-0.3275
-0.324
-0.3205
-0.3145
-0.3195
-0.328
-0.3305
-0.329
-0.3225
-0.3195
-0.317
-0.3115
-0.302
-0.294
-0.3075
-0.308
-0.3105
-0.31
-0.2985
-0.31
-0.308
-0.294
-0.3005
-0.3095
-0.2945
-0.2815
-0.286
-0.285
-0.2775
-0.272
-0.2715
-0.278
-0.2865
-0.2915
-0.2875
-0.281
-0.279
-0.281
-0.28
-0.2835
-0.2875
-0.289
-0.296
-0.2945
-0.2965
-0.2985
-0.2975
-0.2955
-0.287
-0.2805
-0.282
-0.2865
-0.289
-0.289
-0.28
-0.283
-0.286
-0.274
-0.271
-0.267
-0.271
-0.271
-0.2775
-0.2855
-0.2885
-0.295
-0.2975
-0.3125
-0.323
-0.33
-0.3385
-0.3415
-0.3455
-0.344
-0.3455
-0.3455
-0.3465
-0.3445
-0.3395
-0.342
-0.343
-0.3495
-0.349
-0.356
-0.355
-0.348
-0.365
-0.369
-0.359
-0.3555
-0.3585
-0.3575
-0.355
-0.3635
-0.358
-0.353
-0.355
-0.3565
-0.3575
-0.361
-0.3665
-0.3495
-0.3415
-0.356
-0.367
-0.362
-0.357
-0.363
-0.3695
-0.3735
-0.365
-0.356
-0.356
-0.3625
-0.363
-0.3605
-0.365
-0.3475
-0.3455
-0.362
-0.3495
-0.3445
-0.367
-0.375
-0.3745
-0.3845
-0.3885
-0.403
-0.4185
-0.4155
-0.411
-0.4075
-0.403
-0.4005
-0.3935
-0.379
-0.371
-0.36
-0.347
-0.3365
-0.3145
-0.2845
-0.262
-0.2355
-0.185
-0.1595
-0.1355
-0.104
-0.076
-0.0405
-0.004
0.0425
0.09
0.1475
0.1965
0.243
0.283
0.2745
0.25
0.2075
0.1635
0.1515
0.105
0.047
0.0025
-0.0375
-0.0575
-0.0795
-0.0985
-0.116
-0.14
-0.16
-0.1795
-0.2095
-0.236
-0.2655
-0.3125
-0.3435
-0.3635
-0.371
-0.3675
-0.3635
-0.352
-0.3495
-0.3575
-0.3545
-0.3445
-0.353
-0.358
-0.35
-0.3485
-0.341
-0.3455
-0.351
-0.341
-0.347
-0.3495
-0.3495
-0.3525
-0.3505
-0.352
-0.351
-0.354
-0.3515
-0.3445
-0.3435
-0.3525
-0.3615
-0.365
-0.3695
-0.364
-0.3565
-0.3555
-0.358
-0.355
-0.351
-0.3565
-0.3565
-0.355
-0.349
-0.353
-0.354
-0.354
-0.3645
-0.3565
-0.357
-0.3635
-0.3655
-0.3675
-0.366
-0.365
-0.3645
-0.3635
-0.3595
-0.367
-0.366
-0.357
-0.364
-0.367
-0.354
-0.351
-0.357
-0.3525
-0.353
-0.358
-0.3585
-0.358
-0.3525
-0.3485
-0.3495
-0.3475
-0.3505
-0.3505
-0.35
-0.353
-0.3465
-0.3415
-0.3435
-0.346
-0.3425
-0.341
-0.355
-0.356
-0.342
-0.3375
-0.345
-0.3485
-0.3385
-0.3335
-0.332
-0.3385
-0.3495
-0.3485
-0.3445
-0.342
-0.3405
-0.3345
-0.331
-0.3385
-0.341
-0.338
-0.336
-0.326
-0.3265
-0.337
-0.3445
-0.337
-0.33
-0.3435
-0.338
-0.335
-0.339
-0.331
-0.334
-0.338
-0.336
-0.327
-0.3295
-0.336
-0.3395
-0.34
-0.335
-0.3385
-0.3345
-0.331
-0.3325
-0.33
-0.33
-0.338
-0.3355
-0.3345
-0.3335
-0.323
-0.328
-0.326
-0.326
-0.33
-0.326
-0.324
-0.3245
-0.3235
-0.319
-0.313
-0.3115
-0.316
-0.317
-0.3205
-0.3205
-0.322
-0.3175
-0.3155
-0.323
-0.3205
-0.319
-0.3105
-0.3095
-0.319
-0.309
-0.3105
-0.306
-0.307
-0.297
-0.291
-0.3095
-0.298
-0.304
-0.311
-0.3095
-0.3125
-0.3025
-0.2965
-0.291
-0.2855
-0.292
-0.294
-0.29
-0.291
-0.2885
-0.288
-0.285
-0.2805
-0.276
-0.278
-0.281
-0.2825
-0.279
-0.276
-0.276
-0.271
-0.268
-0.266
-0.2665
-0.2645
-0.2565
-0.256
-0.255
-0.246
-0.2495
-0.255
-0.253
-0.2485
-0.246
-0.2425
-0.242
-0.2455
-0.2385
-0.2385
-0.2315
-0.222
-0.23
-0.227
-0.2225
-0.2265
-0.2305
-0.216
-0.2115
-0.219
-0.208
-0.2065
-0.2075
-0.2045
-0.2015
-0.1995
-0.1965
-0.1925
-0.1955
-0.195
-0.193
-0.1905
-0.1875
-0.182
-0.178
-0.178
-0.182
-0.183
-0.18
-0.18
-0.171
-0.178
-0.193
-0.174
-0.162
-0.1695
-0.175
-0.1735
-0.1755
-0.184
-0.1855
-0.188
-0.1895
-0.177
-0.174
-0.178
-0.179
-0.1895
-0.185
-0.1705
-0.1625
-0.176
-0.1885
-0.1885
-0.1925
-0.1925
-0.195
-0.1965
-0.2
-0.1985
-0.2005
-0.2085
-0.211
-0.215
-0.2175
-0.2255
-0.229
-0.2275
-0.232
-0.2315
-0.2375
-0.2475
-0.2505
-0.247
-0.2455
-0.265
-0.2745
-0.272
-0.2745
-0.273
-0.2725
-0.2755
-0.28
-0.279
-0.2855
-0.289
-0.2955
-0.304
-0.2955
-0.3
-0.3045
-0.3
-0.3015
-0.31
-0.317
-0.307
-0.3035
-0.317
-0.3235
-0.3235
-0.326
-0.318
-0.32
-0.3295
-0.3225
-0.3255
-0.3345
-0.328
-0.318
-0.3265
-0.33
-0.3315
-0.338
-0.3235
-0.3225
-0.3275
-0.3215
-0.3235
-0.327
-0.3355
-0.342
-0.3355
-0.3345
-0.3375
-0.335
-0.3345
-0.3305
-0.329
-0.329
-0.335
-0.3425
-0.3395
-0.337
-0.3405
-0.344
-0.3425
-0.3405
-0.343
-0.343
-0.343
-0.357
-0.3605
-0.356
-0.354
-0.345
-0.342
-0.3385
-0.3395
-0.341
-0.343
-0.344
-0.343
-0.3455
-0.339
-0.3395
-0.3455
-0.345
-0.35
-0.3515
-0.353
-0.355
-0.353
-0.351
-0.349
-0.3465
-0.3435
-0.35
-0.3545
-0.3425
-0.3345
-0.342
-0.353
-0.3455
-0.3445
-0.3485
-0.3415
-0.3465
-0.3465
-0.3485
-0.351
-0.3555
-0.357
-0.345
-0.3535
-0.361
-0.353
-0.3475
-0.354
-0.357
-0.3525
-0.3565
-0.345
-0.34
-0.3515
-0.349
-0.345
-0.35
-0.3575
-0.3615
-0.348
-0.341
-0.3525
-0.3525
-0.351
-0.3495
-0.345
-0.3465
-0.347
-0.34
-0.3335
-0.3395
-0.342
-0.342
-0.3445
-0.34
-0.3415
-0.3465
-0.3535
-0.3535
-0.3425
-0.3435
-0.3435
-0.3455
-0.347
-0.347
-0.349
-0.343
-0.3445
-0.342
-0.3395
-0.3395
-0.34
-0.34
-0.333
-0.335
-0.3455
-0.354
-0.3435
-0.326
-0.3275
-0.331
-0.329
-0.342
-0.35
-0.3475
-0.3465
-0.344
-0.3415
-0.3375
-0.3345
-0.3365
-0.335
-0.3345
-0.3355
-0.335
-0.3265
-0.322
-0.3395
-0.3475
-0.3415
-0.3415
-0.3405
-0.3365
-0.3385
-0.342
-0.3355
-0.335
-0.3385
-0.328
-0.3315
-0.3395
-0.333
-0.3315
-0.334
-0.334
-0.329
-0.331
-0.339
-0.34
-0.335
-0.3365
-0.3475
-0.3405
-0.327
-0.333
-0.334
-0.328
-0.335
-0.338
-0.334
-0.3345
-0.335
-0.3355
-0.3385
-0.3405
-0.335
-0.325
-0.328
-0.33
-0.333
-0.34
-0.3375
-0.338
-0.336
-0.335
-0.338
-0.345
-0.3445
-0.3305
-0.333
-0.332
-0.328
-0.336
-0.343
-0.3485
-0.3415
-0.3405
-0.3375
-0.334
-0.3325
-0.3315
-0.3415
-0.3395
-0.3325
-0.337
-0.3465
-0.341
-0.3375
-0.3335
-0.3265
-0.3305
-0.3275
-0.3285
-0.3325
-0.33
-0.3345
-0.3405
-0.3335
-0.336
-0.334
-0.3305
-0.3315
-0.3375
-0.339
-0.326
-0.323
-0.3235
-0.3345
-0.342
-0.33
-0.3205
-0.326
-0.3325
-0.332
-0.336
-0.337
-0.3345
-0.337
-0.3395
-0.3355
-0.3355
-0.3405
-0.3355
-0.3375
-0.3435
-0.335
-0.333
-0.3335
-0.332
-0.3305
-0.335
-0.341
-0.335
-0.335
-0.33
-0.329
-0.3305
-0.3325
-0.339
-0.3385
-0.3435
-0.3325
-0.3315
-0.343
-0.3385
-0.336
-0.3345
-0.3295
-0.3295
-0.333
-0.335
-0.332
-0.3325
-0.3395
-0.341
-0.3475
-0.3465
-0.336
-0.3265
-0.3275
-0.33
-0.33
-0.337
-0.341
-0.3385
-0.333
-0.336
-0.335
-0.3345
-0.3305
-0.328
-0.3315
-0.3425
-0.344
-0.3275
-0.328
-0.331
-0.33
-0.3355
-0.3395
-0.342
-0.3415
-0.334
-0.331
-0.337
-0.343
-0.3505
-0.343
-0.334
-0.338
-0.337
-0.3385
-0.3405
-0.334
-0.3315
-0.3295
-0.327
-0.327
-0.334
-0.346
-0.3415
-0.338
-0.339
-0.341
-0.338
-0.3315
-0.337
-0.334
-0.33
-0.3305
-0.3355
-0.336
-0.332
-0.328
-0.3125
-0.314
-0.316
-0.308
-0.312
-0.3255
-0.3265
-0.3165
-0.3245
-0.329
-0.3175
-0.3145
-0.314
-0.3175
-0.325
-0.322
-0.3155
-0.3085
-0.304
-0.3095
-0.312
-0.305
-0.2925
-0.2915
-0.299
-0.298
-0.2995
-0.2945
-0.2895
-0.291
-0.293
-0.2895
-0.284
-0.289
-0.2795
-0.272
-0.276
-0.2755
-0.2715
-0.2695
-0.2805
-0.2795
-0.274
-0.276
-0.2755
-0.277
-0.277
-0.275
-0.27
-0.2735
-0.284
-0.292
-0.2995
-0.296
-0.2795
-0.2685
-0.2775
-0.2825
-0.2785
-0.276
-0.262
-0.2665
-0.276
-0.2715
-0.2745
-0.266
-0.2645
-0.2685
-0.2705
-0.273
-0.2645
-0.2715
-0.2775
-0.2815
-0.288
-0.2995
-0.311
-0.3215
-0.327
-0.33
-0.34
-0.334
-0.3315
-0.34
-0.3425
-0.338
-0.339
-0.344
-0.3465
-0.3465
-0.349
-0.3465
-0.3365
-0.342
-0.3525
-0.355
-0.35
-0.3485
-0.349
-0.35
-0.351
-0.3495
-0.348
-0.3495
-0.3515
-0.351
-0.3505
-0.3425
-0.3525
-0.3565
-0.349
-0.351
-0.352
-0.3525
-0.337
-0.343
-0.3535
-0.3565
-0.3565
-0.3525
-0.3545
-0.351
-0.3495
-0.359
-0.36
-0.3525
-0.3565
-0.3525
-0.356
-0.3545
-0.3555
-0.361
-0.358
-0.3695
-0.383
-0.39
-0.394
-0.4035
-0.409
-0.4075
-0.4055
-0.4015
-0.391
-0.3805
-0.377
-0.3695
-0.3575
-0.3425
-0.321
-0.3
-0.2815
-0.2575
-0.2235
-0.1735
-0.134
-0.1095
-0.081
-0.069
-0.0255
0.039
0.078
0.1305
0.18
0.226
0.273
0.2975
0.288
0.256
0.212
0.1775
0.1475
0.098
0.049
-0.0055
-0.04
-0.044
-0.064
-0.09
-0.1135
-0.1375
-0.1505
-0.1705
-0.2025
-0.2335
-0.282
-0.3285
-0.3575
-0.3685
-0.3665
-0.362
-0.347
-0.3435
-0.3425
-0.343
-0.341
-0.336
-0.335
-0.335
-0.3395
-0.3375
-0.3425
-0.349
-0.34
-0.34
-0.3435
-0.3455
-0.3535
-0.358
-0.355
-0.3485
-0.351
-0.349
-0.354
-0.3625
-0.354
-0.351
-0.358
-0.365
-0.366
-0.36
-0.36
-0.359
-0.358
-0.361
-0.359
-0.359
-0.3605
-0.365
-0.3605
-0.353
-0.3545
-0.366
-0.367
-0.3565
-0.359
-0.3615
-0.3595
-0.358
-0.3565
-0.3645
-0.358
-0.349
-0.355
-0.3545
-0.353
-0.352
-0.3495
-0.3505
-0.3545
-0.352
-0.347
-0.3545
-0.3575
-0.3475
-0.343
-0.3455
-0.348
-0.354
-0.3585
-0.3525
-0.3495
-0.354
-0.3485
-0.3365
-0.3425
-0.349
-0.3465
-0.3445
-0.346
-0.3465
-0.3455
-0.3455
-0.3455
-0.35
-0.347
-0.342
-0.35
-0.3485
-0.339
-0.3455
-0.35
-0.345
-0.337
-0.342
-0.3515
-0.342
-0.3385
-0.3415
-0.3415
-0.341
-0.3365
-0.337
-0.34
-0.334
-0.3305
-0.335
-0.337
-0.336
-0.321
-0.3255
-0.333
-0.327
-0.3285
-0.336
-0.3445
-0.331
-0.331
-0.3395
-0.3275
-0.3155
-0.324
-0.334
-0.335
-0.332
-0.3235
-0.3245
-0.317
-0.3185
-0.3275
-0.3255
-0.323
-0.3255
-0.3325
-0.3275
-0.3185
-0.3215
-0.3215
-0.3145
-0.313
-0.3115
-0.313
-0.312
-0.312
-0.309
-0.3105
-0.314
-0.3065
-0.3085
-0.3105
-0.3055
-0.3085
-0.311
-0.299
-0.306
-0.3115
-0.3025
-0.303
-0.3
-0.307
-0.3005
-0.2985
-0.309
-0.303
-0.3035
-0.2975
-0.297
-0.299
-0.2975
-0.3005
-0.2965
-0.2975
-0.3005
-0.2985
-0.298
-0.299
-0.287
-0.2775
-0.2795
-0.2805
-0.283
-0.283
-0.2795
-0.2725
-0.268
-0.2665
-0.273
-0.275
-0.2705
-0.2735
-0.2675
-0.2685
-0.2665
-0.256
-0.259
-0.2515
-0.251
-0.264
-0.263
-0.256
-0.248
-0.245
-0.2415
-0.24
-0.236
-0.2445
-0.251
-0.2365
-0.2375
-0.228
-0.222
-0.2245
-0.2155
-0.226
-0.212
-0.199
-0.212
-0.208
-0.213
-0.213
-0.2035
-0.2025
-0.2025
-0.2045
-0.203
-0.2005
-0.1935
-0.1855
-0.1885
-0.188
-0.18
-0.1815
-0.188
-0.185
-0.1805
-0.178
-0.1775
-0.177
-0.171
-0.1785
-0.187
-0.182
-0.178
-0.1725
-0.171
-0.172
-0.171
-0.1705
-0.1725
-0.178
-0.1745
-0.1635
-0.163
-0.173
-0.175
-0.176
-0.1785
-0.1755
-0.1795
-0.183
-0.189
-0.19
-0.1775
-0.183
-0.1915
-0.193
-0.1985
-0.1935
-0.197
-0.2155
-0.2485
-0.2455
-0.195
-0.1995
-0.2295
-0.231
-0.2315
-0.2375
-0.235
-0.2305
-0.2295
-0.236
-0.2425
-0.246
-0.2485
-0.258
-0.2705
-0.269
-0.266
-0.2685
-0.2745
-0.27
-0.2855
-0.2975
-0.2915
-0.296
-0.2905
-0.293
-0.303
-0.309
-0.3095
-0.3145
-0.3185
-0.321
-0.318
-0.307
-0.315
-0.3215
-0.3195
-0.321
-0.328
-0.3325
-0.3275
-0.3305
-0.334
-0.3365
-0.3355
-0.3385
-0.3355
-0.327
-0.332
-0.341
-0.3395
-0.332
-0.3325
-0.3405
-0.341
-0.3385
-0.3465
-0.3405
-0.3355
-0.34
-0.3415
-0.346
-0.3455
-0.3415
-0.346
-0.346
-0.3435
-0.3465
-0.345
-0.3445
-0.353
-0.357
-0.3535
-0.3455
-0.333
-0.3355
-0.3415
-0.3425
-0.3495
-0.356
-0.3585
-0.3575
-0.3565
-0.359
-0.3595
-0.35
-0.348
-0.3535
-0.3485
-0.351
-0.356
-0.35
-0.35
-0.352
-0.3545
-0.3585
-0.3555
-0.347
-0.3455
-0.3545
-0.3585
-0.359
-0.36
-0.37
-0.359
-0.3415
-0.344
-0.3465
-0.352
-0.348
-0.3545
-0.363
-0.3565
-0.357
-0.3555
-0.3545
-0.3555
-0.3575
-0.363
-0.356
-0.354
-0.357
-0.3545
-0.366
-0.371
-0.3675
-0.363
-0.3575
-0.3595
-0.3615
-0.363
-0.365
-0.363
-0.3535
-0.344
-0.347
-0.3615
-0.3655
-0.364
-0.3615
-0.3585
-0.361
-0.357
-0.3605
-0.3665
-0.362
-0.36
-0.3525
-0.349
-0.36
-0.3635
-0.3595
-0.3595
-0.3495
-0.344
-0.3485
-0.3545
-0.3565
-0.355
-0.351
-0.344
-0.3555
-0.368
-0.365
-0.3585
-0.353
-0.362
-0.37
-0.355
-0.343
-0.3475
-0.3545
-0.358
-0.355
-0.355
-0.359
-0.355
-0.3525
-0.357
-0.3585
-0.354
-0.349
-0.3425
-0.337
-0.3475
-0.359
-0.3645
-0.356
-0.3485
-0.3535
-0.35
-0.3515
-0.3475
-0.3405
-0.346
-0.348
-0.3515
-0.3605
-0.353
-0.346
-0.3475
-0.349
-0.3525
-0.355
-0.35
-0.3395
-0.3455
-0.3515
-0.354
-0.354
-0.348
-0.3485
-0.355
-0.3525
-0.34
-0.3405
-0.347
-0.356
-0.3485
-0.337
-0.344
-0.3525
-0.349
-0.3415
-0.345
-0.3505
-0.352
-0.348
-0.339
-0.335
-0.345
-0.356
-0.348
-0.347
-0.3555
-0.35
-0.3595
-0.371
-0.3675
-0.3515
-0.343
-0.357
-0.3535
-0.3445
-0.348
-0.352
-0.36
-0.366
-0.361
-0.3475
-0.3415
-0.357
-0.3585
-0.3435
-0.3515
-0.35
-0.3505
-0.3535
-0.3545
-0.362
-0.362
-0.37
-0.3555
-0.3435
-0.351
-0.357
-0.357
-0.3495
-0.351
-0.359
-0.357
-0.3475
-0.351
-0.3495
-0.354
-0.356
-0.345
-0.352
-0.347
-0.354
-0.3635
-0.3565
-0.3575
-0.3525
-0.3525
-0.3515
-0.3545
-0.356
-0.3545
-0.3525
-0.345
-0.347
-0.359
-0.352
-0.352
-0.3605
-0.346
-0.3415
-0.34
-0.339
-0.3435
-0.3545
-0.35
-0.351
-0.359
-0.349
-0.356
-0.3545
-0.3495
-0.35
-0.353
-0.3545
-0.349
-0.344
-0.346
-0.3485
-0.3485
-0.3555
-0.351
-0.3505
-0.351
-0.3465
-0.3525
-0.353
-0.3505
-0.355
-0.355
-0.35
-0.3505
-0.365
-0.3565
-0.347
-0.358
-0.353
-0.347
-0.348
-0.3495
-0.3545
-0.3645
-0.3645
-0.361
-0.358
-0.3425
-0.341
-0.356
-0.3655
-0.3505
-0.339
-0.3565
-0.359
-0.359
-0.357
-0.347
-0.346
-0.3475
-0.3545
-0.3565
-0.3535
-0.3515
-0.3545
-0.354
-0.3475
-0.3545
-0.3575
-0.3475
-0.3605
-0.363
-0.349
-0.35
-0.3545
-0.3645
-0.361
-0.348
-0.3475
-0.338
-0.3355
-0.3575
-0.3605
-0.3545
-0.348
-0.3415
-0.3405
-0.337
-0.3445
-0.343
-0.3445
-0.3435
-0.3345
-0.333
-0.3345
-0.342
-0.3405
-0.334
-0.3285
-0.3305
-0.331
-0.329
-0.3295
-0.3315
-0.342
-0.335
-0.319
-0.319
-0.3235
-0.318
-0.319
-0.3265
-0.321
-0.316
-0.303
-0.297
-0.3065
-0.3125
-0.3125
-0.302
-0.3035
-0.3055
-0.2985
-0.2975
-0.2905
-0.285
-0.2765
-0.2815
-0.297
-0.284
-0.2785
-0.286
-0.284
-0.283
-0.279
-0.279
-0.286
-0.2845
-0.279
-0.2755
-0.2705
-0.282
-0.295
-0.291
-0.2915
-0.296
-0.2925
-0.2855
-0.286
-0.284
-0.288
-0.295
-0.288
-0.277
-0.269
-0.281
-0.293
-0.287
-0.2895
-0.2765
-0.264
-0.2765
-0.2805
-0.285
-0.2955
-0.2925
-0.285
-0.2985
-0.325
-0.3405
-0.3445
-0.3485
-0.3465
-0.335
-0.341
-0.3455
-0.346
-0.35
-0.353
-0.3525
-0.3415
-0.3435
-0.352
-0.3465
-0.3485
-0.3535
-0.3505
-0.3585
-0.358
-0.3465
-0.359
-0.363
-0.3515
-0.347
-0.349
-0.351
-0.3525
-0.3625
-0.357
-0.356
-0.362
-0.356
-0.347
-0.3415
-0.3495
-0.3535
-0.347
-0.35
-0.3505
-0.3435
-0.3405
-0.3485
-0.36
-0.358
-0.3545
-0.3555
-0.36
-0.3575
-0.355
-0.3565
-0.359
-0.361
-0.3675
-0.371
-0.365
-0.3735
-0.382
-0.389
-0.404
-0.4245
-0.4255
-0.415
-0.412
-0.402
-0.392
-0.382
-0.3735
-0.373
-0.3665
-0.3495
-0.328
-0.31
-0.291
-0.254
-0.2205
-0.1795
-0.137
-0.117
-0.1045
-0.08
-0.0245
0.031
0.0805
0.129
0.1755
0.2245
0.2685
0.2875
0.2745
0.233
0.175
0.143
0.1075
0.052
0.014
-0.007
-0.0175
-0.0365
-0.0755
-0.091
-0.1035
-0.135
-0.16
-0.182
-0.2085
-0.242
-0.286
-0.333
-0.358
-0.3705
-0.3795
-0.3775
-0.364
-0.3575
-0.3625
-0.348
-0.3415
-0.3485
-0.348
-0.349
-0.3565
-0.357
-0.342
-0.3485
-0.345
-0.337
-0.336
-0.3275
-0.336
-0.3495
-0.352
-0.35
-0.3615
-0.3575
-0.353
-0.3585
-0.3515
-0.3515
-0.361
-0.357
-0.354
-0.36
-0.3585
-0.3635
-0.368
-0.365
-0.3605
-0.3535
-0.352
-0.3605
-0.355
-0.3475
-0.35
-0.3565
-0.3535
-0.353
-0.3585
-0.338
-0.3465
-0.361
-0.35
-0.3455
-0.3425
-0.357
-0.36
-0.347
-0.336
-0.3365
-0.3415
-0.351
-0.365
-0.3495
-0.346
-0.358
-0.347
-0.3335
-0.331
-0.339
-0.3535
-0.362
-0.358
-0.35
-0.343
-0.3465
-0.35
-0.346
-0.354
-0.35
-0.344
-0.351
-0.3535
-0.344
-0.346
-0.347
-0.3295
-0.3305
-0.3275
-0.329
-0.343
-0.3425
-0.344
-0.344
-0.344
-0.3425
-0.3335
-0.332
-0.3285
-0.331
-0.3375
-0.331
-0.331
-0.34
-0.3375
-0.337
-0.337
-0.3415
-0.341
-0.331
-0.3345
-0.3335
-0.333
-0.3345
-0.337
-0.33
-0.3225
-0.331
-0.3175
-0.315
-0.331
-0.328
-0.3205
-0.317
-0.321
-0.3155
-0.3125
-0.317
-0.3215
-0.332
-0.3355
-0.3195
-0.297
-0.306
-0.3215
-0.3165
-0.307
-0.3105
-0.305
-0.301
-0.3065
-0.3055
-0.313
-0.317
-0.3095
-0.3045
-0.313
-0.312
-0.3065
-0.2995
-0.303
-0.317
-0.3085
-0.295
-0.288
-0.285
-0.282
-0.2895
-0.304
-0.3015
-0.294
-0.294
-0.2945
-0.2915
-0.2805
-0.2695
-0.281
-0.295
-0.2785
-0.2715
-0.2915
-0.2915
-0.2835
-0.275
-0.2685
-0.2695
-0.2675
-0.2725
-0.2795
-0.2795
-0.272
-0.276
-0.2805
-0.2675
-0.261
-0.2565
-0.257
-0.2595
-0.256
-0.2565
-0.2465
-0.2485
-0.2485
-0.2515
-0.259
-0.242
-0.234
-0.2315
-0.239
-0.247
-0.226
-0.2145
-0.222
-0.2245
-0.2295
-0.232
-0.218
-0.207
-0.207
-0.2125
-0.2155
-0.21
-0.207
-0.2
-0.1985
-0.2015
-0.193
-0.191
-0.2005
-0.1985
-0.1925
-0.197
-0.1885
-0.1785
-0.189
-0.1835
-0.166
-0.1575
-0.161
-0.174
-0.178
-0.1805
-0.177
-0.174
-0.177
-0.1675
-0.1585
-0.1585
-0.15
-0.141
-0.1455
-0.1525
-0.159
-0.1565
-0.1515
-0.1515
-0.159
-0.163
-0.142
-0.135
-0.143
-0.1445
-0.153
-0.16
-0.171
-0.173
-0.1685
-0.1615
-0.1515
-0.1565
-0.172
-0.174
-0.166
-0.174
-0.1665
-0.166
-0.184
-0.184
-0.1785
-0.1785
-0.187
-0.2005
-0.203
-0.202
-0.208
-0.211
-0.209
-0.22
-0.2345
-0.2355
-0.223
-0.211
-0.2275
-0.2345
-0.2465
-0.2475
-0.2405
-0.2505
-0.255
-0.263
-0.258
-0.2735
-0.287
-0.2825
-0.28
-0.2765
-0.2885
-0.289
-0.2885
-0.2955
-0.2845
-0.2825
-0.293
-0.301
-0.309
-0.3155
-0.298
-0.288
-0.3075
-0.3195
-0.32
-0.314
-0.314
-0.319
-0.318
-0.3255
-0.3325
-0.327
-0.327
-0.327
-0.325
-0.333
-0.336
-0.339
-0.3365
-0.3305
-0.337
-0.329
-0.327
-0.32
-0.3235
-0.3355
-0.3225
-0.331
-0.332
-0.3305
-0.341
-0.328
-0.3305
-0.3405
-0.339
-0.342
-0.3285
-0.328
-0.3395
-0.3355
-0.331
-0.339
-0.343
-0.333
-0.335
-0.3515
-0.357
-0.3445
-0.3345
-0.3385
-0.3435
-0.339
-0.348
-0.353
-0.3425
-0.3425
-0.3375
-0.3355
-0.343
-0.3445
-0.3435
-0.3485
-0.347
-0.3415
-0.347
-0.351
-0.3495
-0.349
-0.351
-0.326
-0.3165
-0.346
-0.3545
-0.3495
-0.345
-0.352
-0.3555
-0.3455
-0.344
-0.3485
-0.342
-0.345
-0.346
-0.3465
-0.349
-0.339
-0.3555
-0.354
-0.349
-0.359
-0.346
-0.3435
-0.35
-0.359
-0.348
-0.3415
-0.3485
-0.337
-0.3335
-0.341
-0.335
-0.3305
-0.343
-0.3495
-0.345
-0.3425
-0.349
-0.3465
-0.3445
-0.344
-0.3455
-0.3525
-0.347
-0.345
-0.346
-0.342
-0.3295
-0.328
-0.3525
-0.3495
-0.343
-0.352
-0.3545
-0.3505
-0.347
-0.3505
-0.3395
-0.338
-0.3425
-0.3435
-0.336
-0.334
-0.331
-0.3225
-0.328
-0.338
-0.344
-0.3325
-0.329
-0.3355
-0.3285
-0.3415
-0.35
-0.3355
-0.3295
-0.336
-0.3405
-0.3375
-0.342
-0.3295
-0.3205
-0.3305
-0.3385
-0.3375
-0.3275
-0.317
-0.3195
-0.327
-0.3275
-0.3315
-0.335
-0.3385
-0.339
-0.344
-0.3375
-0.336
-0.3475
-0.3485
-0.3455
-0.3375
-0.333
-0.336
-0.3445
-0.3435
-0.332
-0.341
-0.3305
-0.3175
-0.329
-0.332
-0.3385
-0.329
-0.326
-0.336
-0.336
-0.335
-0.334
-0.3335
-0.329
-0.3345
-0.339
-0.336
-0.343
-0.3355
-0.327
-0.3445
-0.342
-0.33
-0.329
-0.3305
-0.3395
-0.3325
-0.3265
-0.334
-0.348
-0.3485
-0.33
-0.3255
-0.332
-0.3305
-0.3275
-0.3215
-0.324
-0.3385
-0.338
-0.3315
-0.322
-0.3275
-0.3395
-0.3435
-0.3395
-0.3245
-0.325
-0.3295
-0.334
-0.3365
-0.3305
-0.3355
-0.3265
-0.3225
-0.329
-0.325
-0.3255
-0.3245
-0.33
-0.335
-0.333
-0.318
-0.3075
-0.3155
-0.317
-0.3205
-0.322
-0.3175
-0.345
-0.354
-0.3365
-0.341
-0.3345
-0.327
-0.337
-0.3335
-0.3215
-0.3295
-0.3375
-0.3305
-0.332
-0.335
-0.324
-0.3185
-0.3285
-0.333
-0.334
-0.3395
-0.3235
-0.313
-0.33
-0.326
-0.32
-0.3275
-0.3235
-0.323
-0.335
-0.341
-0.3275
-0.322
-0.329
-0.333
-0.323
-0.318
-0.327
-0.3175
-0.3165
-0.3235
-0.315
-0.322
-0.3315
-0.319
-0.316
-0.326
-0.3175
-0.306
-0.318
-0.321
-0.325
-0.3395
-0.324
-0.315
-0.333
-0.332
-0.3245
-0.3165
-0.32
-0.329
-0.3185
-0.3165
-0.3195
-0.321
-0.329
-0.326
-0.323
-0.3205
-0.306
-0.31
-0.3105
-0.315
-0.321
-0.312
-0.316
-0.33
-0.339
-0.333
-0.3165
-0.307
-0.3275
-0.326
-0.306
-0.314
-0.3155
-0.319
-0.321
-0.314
-0.315
-0.3185
-0.323
-0.3205
-0.3065
-0.303
-0.316
-0.3245
-0.322
-0.323
-0.3235
-0.3145
-0.316
-0.3135
-0.314
-0.308
-0.3045
-0.3255
-0.3305
-0.3315
-0.3185
-0.2985
-0.3025
-0.309
-0.3035
-0.3115
-0.3225
-0.306
-0.3075
-0.3055
-0.2995
-0.308
-0.297
-0.291
-0.306
-0.2995
-0.2935
-0.3165
-0.3235
-0.3055
-0.291
-0.29
-0.281
-0.284
-0.2945
-0.294
-0.288
-0.281
-0.2805
-0.2755
-0.271
-0.265
-0.2765
-0.287
-0.2785
-0.2815
-0.267
-0.262
-0.278
-0.262
-0.258
-0.276
-0.254
-0.227
-0.229
-0.246
-0.255
-0.2455
-0.241
-0.2445
-0.258
-0.265
-0.263
-0.265
-0.259
-0.2445
-0.253
-0.2665
-0.265
-0.265
-0.2605
-0.2645
-0.264
-0.2755
-0.277
-0.2525
-0.2545
-0.256
-0.251
-0.251
-0.2485
-0.2565
-0.2655
-0.271
-0.2715
-0.251
-0.237
-0.2455
-0.251
-0.2665
-0.274
-0.267
-0.2755
-0.281
-0.2865
-0.3055
-0.3295
-0.3265
-0.319
-0.318
-0.317
-0.32
-0.319
-0.331
-0.324
-0.3225
-0.334
-0.332
-0.3225
-0.329
-0.354
-0.351
-0.341
-0.351
-0.338
-0.318
-0.324
-0.3175
-0.3215
-0.334
-0.328
-0.321
-0.319
-0.3295
-0.3385
-0.3285
-0.323
-0.33
-0.3275
-0.3275
-0.326
-0.323
-0.3275
-0.322
-0.321
-0.3285
-0.3245
-0.33
-0.3255
-0.323
-0.3295
-0.3225
-0.325
-0.3235
-0.3305
-0.325
-0.325
-0.3415
-0.327
-0.3375
-0.3525
-0.356
-0.367
-0.3605
-0.373
-0.3765
-0.3615
-0.363
-0.3605
-0.3615
-0.3585
-0.3525
-0.3525
-0.341
-0.317
-0.2925
-0.279
-0.2555
-0.2355
-0.2045
-0.143
-0.1065
-0.0895
-0.0595
-0.0215
-0.0005
0.032
0.069
0.116
0.193
0.2235
0.254
0.264
0.235
0.198
0.1325
0.111
0.0715
0.019
0.0045
-0.026
-0.057
-0.0695
-0.0605
-0.0685
-0.0825
-0.101
-0.1365
-0.159
-0.183
-0.219
-0.266
-0.291
-0.3195
-0.3515
-0.3525
-0.343
-0.336
-0.3455
-0.339
-0.3355
-0.332
-0.322
-0.329
-0.319
-0.311
-0.3125
-0.3095
-0.3085
-0.3055
-0.3195
-0.333
-0.321
-0.314
-0.312
-0.313
-0.3185
-0.317
-0.3175
-0.318
-0.3305
-0.331
-0.314
-0.3265
-0.324
-0.319
-0.333
-0.3245
-0.326
-0.3215
-0.3085
-0.313
-0.3305
-0.337
-0.331
-0.3215
-0.318
-0.3205
-0.305
-0.318
-0.335
-0.324
-0.3305
-0.34
-0.3215
-0.303
-0.3155
-0.326
-0.314
-0.311
-0.3165
-0.3145
-0.3245
-0.3355
-0.328
-0.323
-0.314
-0.308
-0.316
-0.3185
-0.3085
-0.3095
-0.318
-0.3155
-0.316
-0.3035
-0.296
-0.303
-0.306
-0.312
-0.3145
-0.3165
-0.312
-0.3065
-0.3055
-0.302
-0.3075
-0.3105
-0.3125
-0.3095
-0.3055
-0.3145
-0.308
-0.306
-0.307
-0.3035
-0.3005
-0.3095
-0.315
-0.2955
-0.294
-0.292
-0.2985
-0.3025
-0.299
-0.302
-0.2955
-0.3065
-0.307
-0.302
-0.306
-0.305
-0.3065
-0.3065
-0.298
-0.2885
-0.297
-0.2935
-0.292
-0.278
-0.2755
-0.2865
-0.2775
-0.289
-0.293
-0.283
-0.2715
-0.282
-0.284
-0.2835
-0.296
-0.287
-0.2785
-0.2805
-0.288
-0.2785
-0.2715
-0.269
-0.2595
-0.2575
-0.2605
-0.2715
-0.276
-0.2795
-0.2865
-0.282
-0.27
-0.2565
-0.2695
-0.273
-0.271
-0.287
-0.27
-0.261
-0.263
-0.2585
-0.266
-0.2555
-0.253
-0.263
-0.258
-0.2515
-0.251
-0.2495
-0.253
-0.251
-0.245
-0.257
-0.2525
-0.237
-0.242
-0.242
-0.2425
-0.2535
-0.249
-0.2445
-0.25
-0.2525
-0.2405
-0.221
-0.241
-0.237
-0.2235
-0.2475
-0.2355
-0.2285
-0.2345
-0.217
-0.2105
-0.2155
-0.2065
-0.2115
-0.216
-0.2095
-0.215
-0.222
-0.22
-0.207
-0.207
-0.2105
-0.2075
-0.2015
-0.1955
-0.19
-0.193
-0.195
-0.196
-0.193
-0.1965
-0.2035
-0.1905
-0.2
-0.1985
-0.183
-0.1655
-0.157
-0.173
-0.166
-0.162
-0.169
-0.164
-0.15
-0.152
-0.174
-0.156
-0.1435
-0.1585
-0.1585
-0.146
-0.1315
-0.1355
-0.1325
-0.1325
-0.134
-0.1235
-0.1215
-0.12
-0.134
-0.147
-0.1165
-0.1095
-0.134
-0.129
-0.1305
-0.133
-0.123
-0.1195
-0.1095
-0.1055
-0.1035
-0.111
-0.1145
-0.111
-0.1315
-0.1305
-0.1125
-0.122
-0.1255
-0.1135
-0.1115
-0.1175
-0.1255
-0.1095
-0.1085
-0.1285
-0.129
-0.1295
-0.1355
-0.144
-0.1265
-0.1265
-0.1495
-0.1435
-0.143
-0.147
-0.1505
-0.15
-0.1585
-0.172
-0.1725
-0.175
-0.1735
-0.1825
-0.189
-0.1855
-0.19
-0.197
-0.1985
-0.201
-0.2105
-0.211
-0.206
-0.2125
-0.212
-0.215
-0.2195
-0.215
-0.2185
-0.232
-0.235
-0.2215
-0.2225
-0.2405
-0.246
-0.2485
-0.248
-0.245
-0.256
-0.2595
-0.251
-0.2425
-0.253
-0.256
-0.2555
-0.263
-0.2535
-0.2585
-0.283
-0.288
-0.269
-0.2585
-0.262
-0.255
-0.267
-0.2925
-0.2805
-0.262
-0.2605
-0.27
-0.276
-0.271
-0.269
-0.268
-0.2705
-0.264
-0.2625
-0.272
-0.2865
-0.2855
-0.264
-0.2685
-0.27
-0.2645
-0.2715
-0.274
-0.273
-0.2805
-0.295
-0.285
-0.2835
-0.2895
-0.2665
-0.258
-0.269
-0.2825
-0.283
-0.285
-0.2825
-0.2665
-0.2785
-0.289
-0.285
-0.295
-0.287
-0.266
-0.279
-0.2815
-0.283
-0.2855
-0.277
-0.299
-0.291
-0.28
-0.2955
-0.294
-0.284
-0.2835
-0.289
-0.2835
-0.2855
-0.294
-0.291
-0.283
-0.291
-0.2905
-0.2745
-0.2795
-0.2735
-0.273
-0.2825
-0.2805
-0.286
-0.2825
-0.2785
-0.275
-0.2805
-0.2895
-0.2845
-0.2905
-0.2855
-0.281
-0.2875
-0.2925
-0.2905
-0.286
-0.284
-0.2795
-0.286
-0.2875
-0.2825
-0.281
-0.2795
-0.2825
-0.2895
-0.271
-0.2655
-0.278
-0.2775
-0.28
-0.273
-0.2685
-0.28
-0.2875
-0.274
-0.2835
-0.289
-0.285
-0.282
-0.2675
-0.267
-0.283
-0.2915
-0.2895
-0.289
-0.283
-0.2815
-0.2765
-0.2815
-0.2835
-0.28
-0.2795
-0.2865
-0.292
-0.284
-0.2845
-0.289
-0.286
-0.2735
-0.28
-0.275
-0.268
-0.277
-0.278
-0.28
-0.268
-0.2675
-0.2815
-0.272
-0.2685
-0.287
-0.289
-0.272
-0.2645
-0.276
-0.284
-0.278
-0.2775
-0.2885
-0.285
-0.2815
-0.2815
-0.2775
-0.2785
-0.2765
-0.278
-0.2675
-0.261
-0.268
-0.2715
-0.279
-0.277
-0.28
-0.2815
-0.268
-0.278
-0.278
-0.2725
-0.276
-0.2765
-0.2825
-0.2735
-0.277
-0.274
-0.2655
-0.279
-0.2855
-0.2755
-0.2725
-0.283
-0.273
-0.2725
-0.295
-0.285
-0.2745
-0.283
-0.272
-0.266
-0.2865
-0.3
-0.288
-0.2795
-0.2745
-0.2835
-0.2845
-0.289
-0.2965
-0.28
-0.2795
-0.271
-0.275
-0.2785
-0.285
-0.29
-0.2685
-0.2625
-0.263
-0.2805
-0.3015
-0.289
-0.294
-0.299
-0.2755
-0.2655
-0.2715
-0.284
-0.283
-0.289
-0.293
-0.2895
-0.295
-0.2885
-0.2835
-0.2785
-0.2805
-0.2835
-0.2735
-0.279
-0.2845
-0.278
-0.273
-0.2785
-0.288
-0.277
-0.2605
-0.263
-0.271
-0.2735
-0.273
-0.271
-0.282
-0.285
-0.2825
-0.2875
-0.28
-0.2715
-0.2725
-0.2885
-0.285
-0.273
-0.2865
-0.2945
-0.28
-0.254
-0.26
-0.2725
-0.2795
-0.2765
-0.2665
-0.2815
-0.2825
-0.277
-0.2855
-0.279
-0.283
-0.2965
-0.278
-0.27
-0.2705
-0.2755
-0.286
-0.28
-0.284
-0.2945
-0.291
-0.2755
-0.269
-0.2655
-0.2765
-0.295
-0.2925
-0.289
-0.2855
-0.2855
-0.2905
-0.2835
-0.276
-0.2875
-0.3065
-0.288
-0.265
-0.2695
-0.276
-0.2795
-0.2865
-0.2925
-0.2895
-0.2945
-0.3045
-0.3015
-0.284
-0.287
-0.2915
-0.2795
-0.284
-0.297
-0.296
-0.2815
-0.2725
-0.281
-0.285
-0.273
-0.271
-0.279
-0.2875
-0.2905
-0.288
-0.275
-0.269
-0.2815
-0.291
-0.2875
-0.283
-0.284
-0.2815
-0.2805
-0.289
-0.289
-0.28
-0.2735
-0.2755
-0.2935
-0.281
-0.275
-0.2795
-0.262
-0.271
-0.281
-0.2695
-0.2605
-0.2765
-0.2835
-0.2685
-0.2755
-0.2755
-0.261
-0.27
-0.2715
-0.2665
-0.2575
-0.2495
-0.271
-0.2585
-0.2425
-0.246
-0.2535
-0.2525
-0.2435
-0.248
-0.244
-0.2445
-0.2465
-0.2465
-0.2395
-0.233
-0.235
-0.236
-0.2385
-0.233
-0.2315
-0.2315
-0.2205
-0.224
-0.2195
-0.2185
-0.2305
-0.236
-0.229
-0.214
-0.2255
-0.236
-0.236
-0.243
-0.249
-0.237
-0.239
-0.2535
-0.241
-0.223
-0.2185
-0.24
-0.2475
-0.23
-0.2135
-0.2315
-0.241
-0.2285
-0.2265
-0.221
-0.232
-0.23
-0.2245
-0.2325
-0.2385
-0.2475
-0.256
-0.248
-0.263
-0.2795
-0.278
-0.2875
-0.294
-0.282
-0.26
-0.28
-0.3
-0.2915
-0.2835
-0.288
-0.2865
-0.305
-0.317
-0.309
-0.315
-0.306
-0.3035
-0.301
-0.3045
-0.3045
-0.292
-0.2985
-0.2925
-0.282
-0.288
-0.3085
-0.3065
-0.3085
-0.3205
-0.3025
-0.292
-0.289
-0.311
-0.3105
-0.295
-0.296
-0.303
-0.312
-0.288
-0.298
-0.3025
-0.2935
-0.308
-0.3015
-0.2975
-0.2865
-0.2885
-0.3055
-0.2985
-0.304
-0.2775
-0.2755
-0.325
-0.3135
-0.317
-0.341
-0.334
-0.3465
-0.3525
-0.34
-0.3535
-0.3645
-0.343
-0.343
-0.3365
-0.3275
-0.3385
-0.3075
-0.27
-0.2585
-0.2605
-0.24
-0.2175
-0.193
-0.1585
-0.128
-0.0825
-0.061
-0.0435
-0.0065
0.033
0.0745
0.1105
0.1525
0.216
0.2685
0.278
0.249
0.212
0.1705
0.1405
0.0985
0.052
0.0325
-0.01
-0.0375
-0.0445
-0.0625
-0.061
-0.062
-0.1065
-0.128
-0.122
-0.159
-0.187
-0.215
-0.2585
-0.2845
-0.32
-0.3325
-0.309
-0.2935
-0.2995
-0.31
-0.3065
-0.3075
-0.303
-0.2925
-0.289
-0.2895
-0.2945
-0.2945
-0.2865
-0.288
-0.296
-0.289
-0.283
-0.2865
-0.2935
-0.2905
-0.292
-0.3045
-0.303
-0.3035
-0.2905
-0.2855
-0.291
-0.2945
-0.301
-0.3
-0.308
-0.3055
-0.305
-0.306
-0.2995
-0.3005
-0.2935
-0.285
-0.287
-0.292
-0.2985
-0.294
-0.275
-0.28
-0.2975
-0.3115
-0.303
-0.289
-0.297
-0.306
-0.2945
-0.2715
-0.2905
-0.2975
-0.2875
-0.304
-0.2995
-0.2965
-0.3105
-0.288
-0.2685
-0.2975
-0.31
-0.2915
-0.286
-0.297
-0.2945
-0.2945
-0.3005
-0.2995
-0.314
-0.2975
-0.2835
-0.29
-0.281
-0.2835
-0.2885
-0.285
-0.2755
-0.279
-0.285
-0.281
-0.289
-0.291
-0.291
-0.292
-0.284
-0.2815
-0.2925
-0.302
-0.3005
-0.3035
-0.2875
-0.2705
-0.284
-0.295
-0.2835
-0.2695
-0.28
-0.277
-0.2755
-0.278
-0.26
-0.268
-0.283
-0.2865
-0.288
-0.3015
-0.298
-0.287
-0.285
-0.274
-0.277
-0.2755
-0.269
-0.2655
-0.2655
-0.2715
-0.2715
-0.272
-0.2635
-0.255
-0.2705
-0.258
-0.2525
-0.276
-0.2755
-0.2805
-0.282
-0.277
-0.258
-0.2455
-0.2645
-0.2685
-0.268
-0.267
-0.263
-0.269
-0.258
-0.258
-0.2625
-0.2495
-0.248
-0.252
-0.2625
-0.268
-0.2645
-0.255
-0.248
-0.263
-0.278
-0.266
-0.255
-0.2485
-0.253
-0.2555
-0.257
-0.272
-0.2665
-0.242
-0.236
-0.2465
-0.233
-0.239
-0.2615
-0.258
-0.2495
-0.2485
-0.2565
-0.2485
-0.244
-0.2515
-0.2325
-0.23
-0.237
-0.2395
-0.2365
-0.2315
-0.2365
-0.2295
-0.234
-0.2275
-0.223
-0.238
-0.246
-0.2435
-0.216
-0.209
-0.2285
-0.224
-0.2185
-0.2205
-0.2205
-0.227
-0.2145
-0.2125
-0.2145
-0.2215
-0.22
-0.2015
-0.195
-0.184
-0.2035
-0.209
-0.187
-0.1815
-0.1885
-0.178
-0.1675
-0.19
-0.2075
-0.188
-0.159
-0.173
-0.167
-0.1755
-0.189
-0.174
-0.163
-0.1495
-0.1585
-0.1565
-0.164
-0.164
-0.165
-0.164
-0.138
-0.1495
-0.1555
-0.1455
-0.1575
-0.157
-0.145
-0.1395
-0.1445
-0.1495
-0.1315
-0.133
-0.1445
-0.1365
-0.1275
-0.127
-0.1345
-0.1345
-0.134
-0.137
-0.1405
-0.143
-0.146
-0.143
-0.1355
-0.1425
-0.1425
-0.146
-0.1415
-0.1455
-0.1645
-0.1565
-0.157
-0.1685
-0.1705
-0.159
-0.156
-0.152
-0.156
-0.1725
-0.1765
-0.1875
-0.1785
-0.171
-0.185
-0.2035
-0.2085
-0.1945
-0.204
-0.211
-0.215
-0.2225
-0.2255
-0.225
-0.21
-0.2165
-0.2285
-0.237
-0.227
-0.223
-0.242
-0.237
-0.2455
-0.2605
-0.2465
-0.248
-0.256
-0.238
-0.2355
-0.236
-0.2525
-0.2735
-0.268
-0.265
-0.272
-0.2875
-0.2785
-0.259
-0.2605
-0.282
-0.29
-0.269
-0.287
-0.302
-0.2775
-0.279
-0.276
-0.2805
-0.3
-0.2855
-0.281
-0.3035
-0.297
-0.2835
-0.292
-0.305
-0.299
-0.2925
-0.3105
-0.3095
-0.295
-0.2895
-0.2885
-0.2905
-0.2935
-0.2945
-0.2925
-0.2885
-0.301
-0.3105
-0.308
-0.3015
-0.302
-0.306
-0.3
-0.3085
-0.3045
-0.297
-0.298
-0.306
-0.3165
-0.312
-0.305
-0.303
-0.306
-0.3025
-0.3105
-0.3105
-0.3075
-0.3135
-0.3105
-0.3105
-0.309
-0.3145
-0.3125
-0.3295
-0.338
-0.3045
-0.295
-0.3035
-0.3195
-0.318
-0.3085
-0.306
-0.3035
-0.3035
-0.2945
-0.3105
-0.316
-0.307
-0.312
-0.309
-0.303
-0.315
-0.329
-0.326
-0.312
-0.3025
-0.3015
-0.3055
-0.3185
-0.321
-0.3275
-0.33
-0.314
-0.3075
-0.32
-0.316
-0.296
-0.305
-0.3265
-0.326
-0.3195
-0.3195
-0.331
-0.337
-0.31
-0.3035
-0.318
-0.3215
-0.318
-0.3055
-0.3025
-0.311
-0.328
-0.3215
-0.32
-0.324
-0.3335
-0.336
-0.3215
-0.3185
-0.312
-0.3245
-0.321
-0.305
-0.3055
-0.318
-0.324
-0.319
-0.315
-0.3105
-0.313
-0.3115
-0.3165
-0.317
-0.314
-0.3105
-0.3
-0.308
-0.313
-0.3115
-0.3145
-0.315
-0.316
-0.311
-0.3095
-0.305
-0.3115
-0.325
-0.3215
-0.315
-0.3065
-0.312
-0.316
-0.3055
-0.3045
-0.308
-0.309
-0.309
-0.294
-0.2955
-0.307
-0.3
-0.3135
-0.316
-0.301
-0.288
-0.3
-0.328
-0.321
-0.308
-0.309
-0.3185
-0.315
-0.311
-0.3085
-0.3065
-0.305
-0.304
-0.3105
-0.3075
-0.3125
-0.3185
-0.3205
-0.3155
-0.3115
-0.3125
-0.3195
-0.319
-0.309
-0.308
-0.297
-0.295
-0.303
-0.3115
-0.321
-0.3175
-0.292
-0.288
-0.3075
-0.3005
-0.307
-0.309
-0.294
-0.2965
-0.304
-0.3065
-0.296
-0.2965
-0.297
-0.3025
-0.313
-0.3205
-0.324
-0.3075
-0.3005
-0.3035
-0.3015
-0.306
-0.316
-0.31
-0.318
-0.3115
-0.298
-0.309
-0.321
-0.3285
-0.298
-0.2955
-0.3115
-0.304
-0.305
-0.3085
-0.3035
-0.292
-0.305
-0.321
-0.321
-0.308
-0.297
-0.2895
-0.275
-0.293
-0.312
-0.322
-0.3285
-0.317
-0.3015
-0.3085
-0.323
-0.323
-0.328
-0.314
-0.2965
-0.3055
-0.314
-0.3125
-0.31
-0.3175
-0.3195
-0.3055
-0.3055
-0.3045
-0.304
-0.3125
-0.307
-0.315
-0.3295
-0.318
-0.3195
-0.317
-0.3035
-0.309
-0.3095
-0.309
-0.314
-0.307
-0.297
-0.2995
-0.3
-0.302
-0.302
-0.308
-0.3135
-0.3155
-0.321
-0.3195
-0.317
-0.319
-0.323
-0.311
-0.3
-0.3045
-0.3125
-0.302
-0.302
-0.3125
-0.3115
-0.319
-0.3135
-0.3175
-0.325
-0.314
-0.312
-0.3105
-0.3055
-0.308
-0.304
-0.31
-0.325
-0.3145
-0.3055
-0.3135
-0.3015
-0.298
-0.327
-0.326
-0.311
-0.3125
-0.312
-0.315
-0.3085
-0.3085
-0.318
-0.3155
-0.312
-0.318
-0.3155
-0.318
-0.311
-0.299
-0.312
-0.3055
-0.303
-0.303
-0.3085
-0.3155
-0.3085
-0.324
-0.3205
-0.3085
-0.2975
-0.3
-0.306
-0.3
-0.3195
-0.3135
-0.308
-0.32
-0.311
-0.293
-0.297
-0.3
-0.3015
-0.307
-0.3055
-0.312
-0.2985
-0.2875
-0.291
-0.2985
-0.3085
-0.301
-0.3
-0.3005
-0.2935
-0.2915
-0.28
-0.281
-0.283
-0.2785
-0.277
-0.265
-0.261
-0.2665
-0.272
-0.2795
-0.266
-0.2465
-0.248
-0.279
-0.289
-0.2655
-0.2625
-0.258
-0.254
-0.248
-0.2525
-0.2665
-0.2615
-0.265
-0.2495
-0.247
-0.2605
-0.24
-0.2415
-0.25
-0.2525
-0.2655
-0.269
-0.275
-0.28
-0.2775
-0.2655
-0.2645
-0.2835
-0.271
-0.256
-0.2645
-0.267
-0.264
-0.246
-0.2635
-0.2815
-0.258
-0.2395
-0.2445
-0.257
-0.2445
-0.253
-0.2665
-0.273
-0.2845
-0.2835
-0.298
-0.315
-0.3105
-0.3085
-0.311
-0.3145
-0.322
-0.3215
-0.318
-0.3135
-0.314
-0.3105
-0.298
-0.303
-0.316
-0.3165
-0.3175
-0.318
-0.3115
-0.3275
-0.3325
-0.313
-0.333
-0.33
-0.308
-0.317
-0.319
-0.316
-0.3115
-0.3185
-0.326
-0.3285
-0.3285
-0.322
-0.3055
-0.2975
-0.317
-0.3245
-0.322
-0.3265
-0.3245
-0.31
-0.3185
-0.337
-0.3305
-0.331
-0.329
-0.3225
-0.326
-0.324
-0.328
-0.3325
-0.326
-0.329
-0.327
-0.321
-0.336
-0.3485
-0.35
-0.3645
-0.374
-0.3645
-0.366
-0.3625
-0.348
-0.349
-0.356
-0.35
-0.339
-0.3295
-0.3105
-0.2915
-0.281
-0.2655
-0.2335
-0.1955
-0.167
-0.1455
-0.106
-0.077
-0.0755
-0.0385
0.0115
0.046
0.0965
0.1345
0.1775
0.2245
0.224
0.207
0.165
0.1235
0.1
0.055
0.022
-0.0125
-0.044
-0.045
-0.0465
-0.0645
-0.077
-0.0975
-0.122
-0.1225
-0.143
-0.1795
-0.2105
-0.2515
-0.2895
-0.3235
-0.3305
-0.34
-0.331
-0.305
-0.3205
-0.3245
-0.312
-0.3175
-0.3185
-0.314
-0.3195
-0.306
-0.2985
-0.2935
-0.309
-0.325
-0.32
-0.3305
-0.3145
-0.298
-0.307
-0.3095
-0.307
-0.32
-0.318
-0.3065
-0.3075
-0.313
-0.314
-0.3155
-0.33
-0.3195
-0.3045
-0.2935
-0.3045
-0.308
-0.2995
-0.327
-0.3365
-0.3345
-0.326
-0.319
-0.328
-0.3175
-0.3025
-0.3065
-0.312
-0.3095
-0.302
-0.308
-0.31
-0.309
-0.304
-0.2955
-0.3105
-0.313
-0.3085
-0.3135
-0.3125
-0.3175
-0.3225
-0.3185
-0.3135
-0.314
-0.3175
-0.317
-0.3145
-0.3125
-0.307
-0.3065
-0.3025
-0.296
-0.309
-0.3125
-0.3015
-0.302
-0.309
-0.3075
-0.309
-0.311
-0.318
-0.326
-0.314
-0.2975
-0.2885
-0.305
-0.306
-0.294
-0.3155
-0.316
-0.282
-0.279
-0.288
-0.2975
-0.3075
-0.3075
-0.3085
-0.2955
-0.298
-0.306
-0.297
-0.293
-0.2895
-0.295
-0.297
-0.2865
-0.296
-0.2925
-0.284
-0.2815
-0.274
-0.284
-0.2905
-0.287
-0.284
-0.278
-0.2795
-0.2825
-0.2775
-0.286
-0.2935
-0.287
-0.285
-0.2845
-0.2925
-0.282
-0.269
-0.279
-0.2715
-0.273
-0.2895
-0.28
-0.2655
-0.267
-0.28
-0.283
-0.277
-0.274
-0.2715
-0.2755
-0.2735
-0.274
-0.283
-0.278
-0.274
-0.2825
-0.275
-0.2615
-0.2635
-0.2695
-0.274
-0.2695
-0.275
-0.275
-0.266
-0.2625
-0.257
-0.272
-0.2745
-0.273
-0.2795
-0.275
-0.272
-0.265
-0.2675
-0.2575
-0.2685
-0.2825
-0.251
-0.251
-0.2565
-0.247
-0.2505
-0.258
-0.261
-0.2555
-0.254
-0.2605
-0.254
-0.247
-0.244
-0.2295
-0.2295
-0.2385
-0.2405
-0.2305
-0.2405
-0.2355
-0.237
-0.2495
-0.229
-0.2295
-0.2315
-0.229
-0.2215
-0.217
-0.2235
-0.226
-0.2175
-0.209
-0.212
-0.207
-0.2105
-0.214
-0.2135
-0.209
-0.2015
-0.2035
-0.201
-0.1985
-0.196
-0.1915
-0.185
-0.1875
-0.198
-0.1925
-0.1725
-0.1775
-0.183
-0.167
-0.1695
-0.17
-0.1665
-0.168
-0.1665
-0.1635
-0.1535
-0.154
-0.1625
-0.163
-0.162
-0.1575
-0.152
-0.1475
-0.1465
-0.148
-0.1525
-0.1525
-0.142
-0.15
-0.1505
-0.146
-0.144
-0.1465
-0.152
-0.152
-0.159
-0.141
-0.1335
-0.1345
-0.151
-0.1615
-0.1425
-0.1555
-0.155
-0.1395
-0.144
-0.1465
-0.1395
-0.147
-0.1655
-0.1575
-0.1605
-0.181
-0.179
-0.1715
-0.1645
-0.172
-0.182
-0.176
-0.171
-0.1865
-0.208
-0.1995
-0.1925
-0.197
-0.1985
-0.2035
-0.207
-0.2155
-0.225
-0.232
-0.236
-0.2245
-0.2275
-0.233
-0.2215
-0.229
-0.2415
-0.253
-0.253
-0.239
-0.241
-0.255
-0.262
-0.254
-0.263
-0.2705
-0.275
-0.2795
-0.2745
-0.281
-0.2745
-0.276
-0.2685
-0.279
-0.297
-0.282
-0.282
-0.2875
-0.29
-0.288
-0.2935
-0.2965
-0.2925
-0.2975
-0.313
-0.303
-0.298
-0.3045
-0.2995
-0.2955
-0.293
-0.3015
-0.3025
-0.2955
-0.2975
-0.305
-0.302
-0.3065
-0.3085
-0.3075
-0.3035
-0.3015
-0.306
-0.3045
-0.312
-0.312
-0.3085
-0.3085
-0.3135
-0.303
-0.3065
-0.3225
-0.3125
-0.3085
-0.313
-0.321
-0.3125
-0.3035
-0.3075
-0.2985
-0.2935
-0.307
-0.318
-0.318
-0.3195
-0.3215
-0.3085
-0.3025
-0.3175
-0.3275
-0.324
-0.3145
-0.322
-0.317
-0.3035
-0.3275
-0.335
-0.323
-0.323
-0.3165
-0.313
-0.3145
-0.3265
-0.327
-0.3215
-0.329
-0.3205
-0.32
-0.319
-0.3155
-0.3185
-0.32
-0.319
-0.315
-0.313
-0.3135
-0.3175
-0.3115
-0.3175
-0.3245
-0.322
-0.3245
-0.324
-0.329
-0.3245
-0.3195
-0.3245
-0.315
-0.3185
-0.3315
-0.328
-0.328
-0.316
-0.309
-0.3245
-0.3245
-0.3185
-0.3205
-0.3165
-0.3285
-0.334
-0.324
-0.3185
-0.3215
-0.329
-0.3245
-0.324
-0.3275
-0.331
-0.327
-0.3355
-0.3335
-0.306
-0.3085
-0.33
-0.3355
-0.3285
-0.325
-0.315
-0.323
-0.3295
-0.325
-0.3345
-0.332
-0.3245
-0.3135
-0.3135
-0.3275
-0.325
-0.3225
-0.3225
-0.319
-0.323
-0.3265
-0.3245
-0.32
-0.3225
-0.318
-0.3215
-0.324
-0.3265
-0.3275
-0.31
-0.3205
-0.3285
-0.3145
-0.3185
-0.328
-0.3205
-0.327
-0.3295
-0.328
-0.3295
-0.316
-0.315
-0.323
-0.326
-0.3285
-0.326
-0.3205
-0.327
-0.3235
-0.325
-0.334
-0.318
-0.3095
-0.3215
-0.325
-0.324
-0.324
-0.324
-0.3285
-0.3205
-0.314
-0.3175
-0.3175
-0.3265
-0.325
-0.3155
-0.3205
-0.318
-0.319
-0.324
-0.3195
-0.3095
-0.3015
-0.318
-0.3265
-0.3175
-0.325
-0.324
-0.323
-0.3215
-0.318
-0.316
-0.308
-0.313
-0.302
-0.305
-0.3225
-0.325
-0.32
-0.32
-0.328
-0.316
-0.3135
-0.3205
-0.317
-0.327
-0.329
-0.3245
-0.328
-0.313
-0.314
-0.3225
-0.305
-0.3035
-0.3085
-0.3125
-0.3205
-0.318
-0.3135
-0.3135
-0.3135
-0.3285
-0.331
-0.3135
-0.3085
-0.298
-0.3015
-0.314
-0.314
-0.315
-0.32
-0.322
-0.32
-0.3125
-0.3045
-0.3125
-0.311
-0.304
-0.3125
-0.3135
-0.309
-0.3015
-0.2985
-0.304
-0.3055
-0.3055
-0.3065
-0.3115
-0.321
-0.317
-0.3175
-0.3185
-0.315
-0.319
-0.319
-0.312
-0.3085
-0.317
-0.318
-0.3045
-0.306
-0.3375
-0.319
-0.293
-0.302
-0.3005
-0.3105
-0.3145
-0.3125
-0.303
-0.296
-0.302
-0.314
-0.3125
-0.3025
-0.306
-0.306
-0.3105
-0.3245
-0.3185
-0.3065
-0.307
-0.3055
-0.3085
-0.316
-0.317
-0.3125
-0.3115
-0.313
-0.3055
-0.307
-0.3215
-0.307
-0.293
-0.305
-0.3055
-0.311
-0.3235
-0.318
-0.3065
-0.305
-0.312
-0.3165
-0.3205
-0.3195
-0.312
-0.3055
-0.307
-0.322
-0.321
-0.3095
-0.303
-0.2985
-0.314
-0.3195
-0.312
-0.3115
-0.31
-0.311
-0.313
-0.3045
-0.3005
-0.3015
-0.3005
-0.3085
-0.3195
-0.3095
-0.3025
-0.307
-0.299
-0.303
-0.3155
-0.3305
-0.325
-0.314
-0.312
-0.307
-0.31
-0.309
-0.3155
-0.3165
-0.312
-0.309
-0.297
-0.3025
-0.308
-0.297
-0.3015
-0.3015
-0.294
-0.2965
-0.285
-0.2785
-0.2965
-0.2905
-0.2885
-0.295
-0.2825
-0.288
-0.2895
-0.2965
-0.295
-0.2765
-0.275
-0.279
-0.268
-0.265
-0.268
-0.267
-0.2715
-0.2655
-0.2705
-0.2755
-0.267
-0.2645
-0.265
-0.2555
-0.255
-0.2585
-0.253
-0.248
-0.2395
-0.243
-0.246
-0.249
-0.242
-0.2375
-0.255
-0.2525
-0.252
-0.263
-0.253
-0.25
-0.2535
-0.247
-0.2515
-0.253
-0.2525
-0.2555
-0.2545
-0.258
-0.2535
-0.262
-0.266
-0.2555
-0.2565
-0.256
-0.259
-0.2435
-0.2275
-0.2345
-0.2435
-0.2335
-0.2295
-0.249
-0.2565
-0.257
-0.266
-0.27
-0.2665
-0.2805
-0.287
-0.292
-0.307
-0.3055
-0.299
-0.3025
-0.3175
-0.3165
-0.308
-0.3005
-0.3045
-0.31
-0.306
-0.322
-0.3235
-0.315
-0.32
-0.316
-0.314
-0.3095
-0.3185
-0.3315
-0.317
-0.309
-0.3135
-0.3185
-0.313
-0.3105
-0.314
-0.3105
-0.311
-0.3075
-0.3155
-0.32
-0.314
-0.3205
-0.3315
-0.323
-0.3035
-0.3045
-0.314
-0.32
-0.316
-0.316
-0.316
-0.31
-0.3135
-0.3155
-0.317
-0.311
-0.308
-0.315
-0.319
-0.322
-0.3155
-0.318
-0.327
-0.3405
-0.353
-0.3545
-0.368
-0.37
-0.3755
-0.376
-0.356
-0.352
-0.3435
-0.333
-0.327
-0.324
-0.308
-0.2725
-0.2555
-0.248
-0.2215
-0.189
-0.1615
-0.1285
-0.0955
-0.079
-0.0645
-0.0235
0.021
0.0625
0.1055
0.152
0.191
0.237
0.281
0.2755
0.2485
0.193
0.15
0.1285
0.089
0.051
0.011
-0.0215
-0.036
-0.046
-0.063
-0.08
-0.1
-0.1215
-0.1215
-0.143
-0.179
-0.221
-0.2795
-0.307
-0.3185
-0.3215
-0.3185
-0.3075
-0.294
-0.2865
-0.2905
-0.312
-0.3175
-0.3135
-0.3105
-0.308
-0.307
-0.302
-0.299
-0.3005
-0.301
-0.303
-0.3025
-0.296
-0.2935
-0.299
-0.305
-0.314
-0.3145
-0.3115
-0.313
-0.3145
-0.315
-0.3175
-0.3225
-0.318
-0.322
-0.3225
-0.314
-0.3165
-0.318
-0.3145
-0.3125
-0.3085
-0.3065
-0.3045
-0.3025
-0.309
-0.312
-0.3125
-0.325
-0.3255
-0.3125
-0.3075
-0.311
-0.315
-0.307
-0.3045
-0.314
-0.3095
-0.309
-0.3075
-0.3035
-0.3115
-0.3
-0.291
-0.298
-0.3085
-0.308
-0.3015
-0.2995
-0.303
-0.3095
-0.3065
-0.3105
-0.3075
-0.306
-0.3095
-0.2985
-0.306
-0.309
-0.3095
-0.315
-0.304
-0.2925
-0.2905
-0.289
-0.29
-0.291
-0.285
-0.288
-0.293
-0.2935
-0.291
-0.305
-0.304
-0.2915
-0.3015
-0.3055
-0.3075
-0.304
-0.2935
-0.2895
-0.2945
-0.2935
-0.2935
-0.298
-0.3015
-0.291
-0.277
-0.2825
-0.28
-0.277
-0.277
-0.2815
-0.2875
-0.2775
-0.2815
-0.2965
-0.294
-0.28
-0.2795
-0.2855
-0.285
-0.2785
-0.276
-0.279
-0.2775
-0.2745
-0.27
-0.2715
-0.269
-0.2595
-0.2635
-0.264
-0.2685
-0.2835
-0.2725
-0.2585
-0.266
-0.269
-0.2635
-0.2645
-0.268
-0.268
-0.268
-0.2665
-0.2635
-0.263
-0.2665
-0.262
-0.262
-0.2685
-0.2645
-0.2635
-0.263
-0.2645
-0.2565
-0.247
-0.2575
-0.2675
-0.2625
-0.2585
-0.2615
-0.266
-0.2625
-0.247
-0.2465
-0.249
-0.244
-0.2415
-0.2415
-0.242
-0.2405
-0.241
-0.2405
-0.2345
-0.235
-0.251
-0.2445
-0.233
-0.237
-0.235
-0.2335
-0.23
-0.2295
-0.2395
-0.234
-0.2205
-0.2295
-0.2285
-0.215
-0.2205
-0.225
-0.2315
-0.2295
-0.217
-0.214
-0.2115
-0.2115
-0.21
-0.203
-0.2065
-0.213
-0.2015
-0.196
-0.1965
-0.199
-0.2035
-0.191
-0.193
-0.19
-0.184
-0.1875
-0.1815
-0.1745
-0.175
-0.172
-0.171
-0.1745
-0.165
-0.1585
-0.1555
-0.159
-0.155
-0.1545
-0.17
-0.163
-0.158
-0.153
-0.1405
-0.1455
-0.1445
-0.1475
-0.148
-0.136
-0.1325
-0.132
-0.138
-0.1255
-0.127
-0.1365
-0.127
-0.1265
-0.1245
-0.123
-0.129
-0.1355
-0.133
-0.1345
-0.131
-0.126
-0.129
-0.138
-0.1385
-0.1315
-0.122
-0.1165
-0.1155
-0.117
-0.1275
-0.125
-0.13
-0.1345
-0.139
-0.1465
-0.144
-0.141
-0.139
-0.145
-0.1485
-0.1535
-0.1595
-0.168
-0.173
-0.1695
-0.1735
-0.1675
-0.173
-0.1835
-0.1845
-0.1925
-0.19
-0.189
-0.1905
-0.1895
-0.2005
-0.2045
-0.199
-0.208
-0.2115
-0.215
-0.2255
-0.2225
-0.227
-0.2295
-0.233
-0.2405
-0.243
-0.24
-0.2435
-0.2525
-0.248
-0.2535
-0.2555
-0.2605
-0.26
-0.2565
-0.267
-0.2695
-0.271
-0.263
-0.2645
-0.273
-0.2675
-0.273
-0.2775
-0.271
-0.2765
-0.291
-0.298
-0.2905
-0.2855
-0.28
-0.275
-0.284
-0.291
-0.292
-0.2865
-0.279
-0.284
-0.286
-0.2795
-0.281
-0.2725
-0.279
-0.289
-0.284
-0.29
-0.277
-0.277
-0.294
-0.297
-0.2975
-0.29
-0.288
-0.286
-0.2935
-0.3075
-0.306
-0.3035
-0.298
-0.2935
-0.292
-0.288
-0.2915
-0.294
-0.292
-0.2905
-0.2855
-0.2885
-0.2835
-0.2835
-0.293
-0.2945
-0.3035
-0.3065
-0.3015
-0.3015
-0.3045
-0.304
-0.296
-0.292
-0.293
-0.294
-0.2945
-0.2945
-0.2915
-0.2905
-0.295
-0.296
-0.29
-0.2805
-0.289
-0.291
-0.2895
-0.308
-0.3055
-0.298
-0.297
-0.295
-0.298
-0.3065
-0.3045
-0.298
-0.296
-0.291
-0.296
-0.297
-0.2985
-0.299
-0.2925
-0.294
-0.295
-0.2975
-0.308
-0.3145
-0.3065
-0.2965
-0.296
-0.3035
-0.31
-0.3075
-0.307
-0.3025
-0.2985
-0.2965
-0.297
-0.293
-0.293
-0.3055
-0.3135
-0.31
-0.303
-0.3175
-0.3005
-0.2825
-0.2965
-0.302
-0.3015
-0.3005
-0.307
-0.3045
-0.302
-0.2995
-0.2965
-0.299
-0.306
-0.3115
-0.307
-0.3035
-0.303
-0.304
-0.3015
-0.298
-0.2945
-0.286
-0.287
-0.297
-0.304
-0.3045
-0.3015
-0.3025
-0.304
-0.3035
-0.2995
-0.2985
-0.298
-0.301
-0.303
-0.3
-0.3045
-0.297
-0.2935
-0.294
-0.291
-0.2915
-0.292
-0.297
-0.2945
-0.2975
-0.3065
-0.3085
-0.3125
-0.3075
-0.3005
-0.301
-0.303
-0.297
-0.299
-0.3005
-0.2955
-0.3045
-0.3025
-0.293
-0.2945
-0.2915
-0.2985
-0.3015
-0.2915
-0.3035
-0.3025
-0.2925
-0.2985
-0.2905
-0.2905
-0.299
-0.297
-0.3015
-0.303
-0.3045
-0.3035
-0.2925
-0.292
-0.2835
-0.2845
-0.294
-0.2915
-0.3025
-0.3025
-0.2975
-0.3055
-0.2985
-0.288
-0.2975
-0.307
-0.309
-0.3085
-0.2965
-0.2865
-0.2945
-0.294
-0.2885
-0.294
-0.297
-0.299
-0.305
-0.309
-0.3045
-0.3
-0.305
-0.3055
-0.297
-0.302
-0.3025
-0.303
-0.308
-0.302
-0.3005
-0.301
-0.3005
-0.296
-0.2955
-0.303
-0.304
-0.3
-0.2975
-0.2945
-0.29
-0.294
-0.3005
-0.302
-0.2995
-0.292
-0.2935
-0.298
-0.293
-0.3
-0.31
-0.2985
-0.296
-0.301
-0.303
-0.313
-0.313
-0.303
-0.298
-0.3035
-0.3005
-0.2945
-0.3005
-0.3045
-0.3035
-0.2975
-0.283
-0.2885
-0.301
-0.2995
-0.3065
-0.303
-0.2965
-0.2975
-0.293
-0.292
-0.296
-0.3025
-0.295
-0.291
-0.2945
-0.2895
-0.2995
-0.2985
-0.2925
-0.2975
-0.296
-0.2985
-0.2955
-0.292
-0.303
-0.3075
-0.2975
-0.294
-0.296
-0.2965
-0.301
-0.294
-0.288
-0.292
-0.2995
-0.3005
-0.2875
-0.2835
-0.286
-0.2965
-0.301
-0.296
-0.2945
-0.2875
-0.294
-0.301
-0.294
-0.2905
-0.282
-0.289
-0.3025
-0.294
-0.296
-0.298
-0.293
-0.2935
-0.2955
-0.2955
-0.2955
-0.295
-0.2935
-0.292
-0.294
-0.295
-0.288
-0.2935
-0.299
-0.2955
-0.2845
-0.288
-0.297
-0.289
-0.293
-0.2905
-0.2885
-0.2925
-0.2915
-0.299
-0.2965
-0.2935
-0.301
-0.3025
-0.2945
-0.2915
-0.297
-0.297
-0.2935
-0.2895
-0.291
-0.293
-0.29
-0.292
-0.2855
-0.2755
-0.286
-0.301
-0.296
-0.291
-0.296
-0.2905
-0.2875
-0.2985
-0.2955
-0.278
-0.285
-0.2845
-0.2755
-0.2745
-0.2765
-0.288
-0.269
-0.2585
-0.2755
-0.276
-0.2785
-0.276
-0.272
-0.279
-0.275
-0.274
-0.276
-0.277
-0.2765
-0.2735
-0.274
-0.268
-0.271
-0.271
-0.269
-0.2685
-0.251
-0.251
-0.251
-0.252
-0.256
-0.247
-0.24
-0.2395
-0.253
-0.247
-0.2265
-0.2245
-0.2295
-0.23
-0.2415
-0.237
-0.2235
-0.2275
-0.222
-0.224
-0.233
-0.232
-0.228
-0.2295
-0.2345
-0.2295
-0.2285
-0.23
-0.235
-0.237
-0.2325
-0.242
-0.245
-0.2445
-0.239
-0.2325
-0.24
-0.2455
-0.24
-0.2285
-0.2265
-0.229
-0.228
-0.226
-0.2215
-0.2205
-0.218
-0.2135
-0.223
-0.233
-0.235
-0.233
-0.2275
-0.23
-0.24
-0.259
-0.273
-0.281
-0.2835
-0.287
-0.2995
-0.2855
-0.28
-0.2945
-0.292
-0.289
-0.288
-0.2905
-0.293
-0.301
-0.3065
-0.305
-0.3065
-0.304
-0.301
-0.293
-0.29
-0.295
-0.2935
-0.2915
-0.292
-0.2945
-0.2985
-0.293
-0.292
-0.289
-0.284
-0.2915
-0.296
-0.296
-0.297
-0.2995
-0.3015
-0.294
-0.2805
-0.288
-0.2925
-0.2875
-0.291
-0.288
-0.2865
-0.296
-0.292
-0.2785
-0.282
-0.286
-0.2865
-0.2935
-0.298
-0.2975
-0.2935
-0.2985
-0.3045
-0.3145
-0.327
-0.326
-0.342
-0.348
-0.3425
-0.3405
-0.3375
-0.3455
-0.3435
-0.332
-0.317
-0.2985
-0.2825
-0.268
-0.2565
-0.2365
-0.2135
-0.1835
-0.1395
-0.109
-0.083
-0.056
-0.034
-0.01
0.0295
0.076
0.1175
0.165
0.2155
0.266
0.3145
0.3245
0.305
0.26
0.204
0.192
0.161
0.106
0.054
0.0125
-0.0085
-0.0305
-0.0505
-0.062
-0.0765
-0.1005
-0.109
-0.1285
-0.1635
-0.187
-0.232
-0.2765
-0.301
-0.3115
-0.31
-0.304
-0.2915
-0.2995
-0.3
-0.288
-0.295
-0.309
-0.316
-0.2945
-0.27
-0.2715
-0.2855
-0.2895
-0.2815
-0.278
-0.282
-0.286
-0.2885
-0.292
-0.2995
-0.3055
-0.3
-0.2945
-0.2965
-0.302
-0.3065
-0.303
-0.286
-0.285
-0.2975
-0.301
-0.308
-0.305
-0.2985
-0.2875
-0.2835
-0.3
-0.2995
-0.293
-0.295
-0.2995
-0.3025
-0.2945
-0.288
-0.2895
-0.2945
-0.2935
-0.299
-0.2995
-0.293
-0.292
-0.2915
-0.296
-0.2965
-0.2965
-0.299
-0.2915
-0.2895
-0.297
-0.287
-0.292
-0.303
-0.296
-0.2955
-0.291
-0.2855
-0.2855
-0.2885
-0.294
-0.289
-0.2845
-0.281
-0.2825
-0.2905
-0.29
-0.2875
-0.2825
-0.285
-0.2885
-0.2865
-0.292
-0.2925
-0.282
-0.275
-0.277
-0.2815
-0.282
-0.283
-0.288
-0.29
-0.289
-0.2875
-0.2915
-0.286
-0.282
-0.2755
-0.275
-0.2905
-0.279
-0.2695
-0.282
-0.2925
-0.2845
-0.275
-0.277
-0.2755
-0.278
-0.2785
-0.2765
-0.271
-0.271
-0.2785
-0.279
-0.284
-0.2755
-0.2645
-0.266
-0.269
-0.276
-0.274
-0.271
-0.274
-0.274
-0.276
-0.275
-0.273
-0.2725
-0.2655
-0.267
-0.2605
-0.259
-0.2715
-0.2685
-0.275
-0.277
-0.2675
-0.2755
-0.271
-0.257
-0.2625
-0.2625
-0.2625
-0.267
-0.2595
-0.262
-0.26
-0.2535
-0.263
-0.263
-0.259
-0.253
-0.2535
-0.2575
-0.2575
-0.2645
-0.2555
-0.2465
-0.2495
-0.252
-0.2545
-0.255
-0.2485
-0.2405
-0.242
-0.2435
-0.248
-0.2455
-0.245
-0.247
-0.239
-0.2405
-0.2415
-0.243
-0.242
-0.238
-0.239
-0.239
-0.2395
-0.234
-0.229
-0.228
-0.229
-0.2285
-0.2305
-0.227
-0.224
-0.2205
-0.2175
-0.221
-0.214
-0.208
-0.207
-0.206
-0.21
-0.2125
-0.2115
-0.2095
-0.204
-0.202
-0.2045
-0.2025
-0.1965
-0.1935
-0.19
-0.189
-0.198
-0.1975
-0.183
-0.176
-0.1745
-0.1655
-0.171
-0.18
-0.1765
-0.1745
-0.169
-0.15
-0.1425
-0.159
-0.1625
-0.158
-0.154
-0.1575
-0.153
-0.1355
-0.1405
-0.1445
-0.1405
-0.14
-0.145
-0.1415
-0.14
-0.1365
-0.1325
-0.14
-0.129
-0.1285
-0.1245
-0.114
-0.124
-0.129
-0.1285
-0.1265
-0.128
-0.1285
-0.131
-0.1215
-0.117
-0.1325
-0.136
-0.126
-0.1215
-0.1265
-0.135
-0.1365
-0.13
-0.134
-0.1295
-0.137
-0.139
-0.122
-0.1335
-0.135
-0.133
-0.1405
-0.147
-0.15
-0.1465
-0.156
-0.1605
-0.165
-0.171
-0.1675
-0.1725
-0.178
-0.1825
-0.1845
-0.183
-0.1835
-0.1785
-0.1955
-0.2085
-0.2015
-0.2045
-0.2035
-0.2095
-0.227
-0.231
-0.222
-0.224
-0.237
-0.2285
-0.2275
-0.2405
-0.2415
-0.2435
-0.241
-0.2395
-0.239
-0.252
-0.2565
-0.249
-0.253
-0.2615
-0.271
-0.255
-0.25
-0.2565
-0.264
-0.2735
-0.267
-0.2655
-0.268
-0.275
-0.273
-0.269
-0.2755
-0.282
-0.274
-0.27
-0.2775
-0.282
-0.287
-0.289
-0.286
-0.281
-0.279
-0.2805
-0.282
-0.2825
-0.279
-0.271
-0.2755
-0.279
-0.288
-0.301
-0.2855
-0.2775
-0.279
-0.282
-0.2835
-0.2865
-0.294
-0.2855
-0.282
-0.2775
-0.277
-0.288
-0.2925
-0.29
-0.295
-0.3005
-0.293
-0.294
-0.297
-0.295
-0.288
-0.2835
-0.2855
-0.2795
-0.2805
-0.287
-0.2935
-0.3015
-0.2965
-0.2945
-0.294
-0.2925
-0.2975
-0.289
-0.2855
-0.295
-0.299
-0.2985
-0.2955
-0.294
-0.295
-0.298
-0.298
-0.3
-0.298
-0.287
-0.297
-0.3095
-0.297
-0.294
-0.303
-0.3015
-0.306
-0.3085
-0.296
-0.3015
-0.311
-0.304
-0.2985
-0.303
-0.307
-0.308
-0.3045
-0.305
-0.308
-0.307
-0.313
-0.311
-0.3065
-0.306
-0.296
-0.293
-0.299
-0.297
-0.297
-0.2945
-0.2945
-0.2985
-0.298
-0.3065
-0.3025
-0.301
-0.303
-0.298
-0.299
-0.2935
-0.301
-0.3055
-0.299
-0.303
-0.3
-0.297
-0.3045
-0.304
-0.303
-0.3015
-0.293
-0.298
-0.3045
-0.299
-0.3
-0.2995
-0.2955
-0.3015
-0.3045
-0.308
-0.306
-0.2975
-0.2995
-0.2965
-0.3045
-0.3075
-0.3035
-0.305
-0.304
-0.299
-0.293
-0.2945
-0.299
-0.302
-0.2975
-0.3025
-0.306
-0.294
-0.2865
-0.295
-0.305
-0.299
-0.296
-0.3
-0.301
-0.308
-0.306
-0.289
-0.2865
-0.2925
-0.3085
-0.3165
-0.308
-0.3035
-0.2965
-0.298
-0.3025
-0.303
-0.297
-0.2955
-0.2945
-0.296
-0.301
-0.292
-0.2835
-0.292
-0.2985
-0.2935
-0.3025
-0.309
-0.308
-0.303
-0.2985
-0.3025
-0.2985
-0.2955
-0.301
-0.304
-0.2925
-0.2905
-0.2915
-0.2875
-0.2865
-0.285
-0.292
-0.296
-0.298
-0.2995
-0.2995
-0.2985
-0.2895
-0.2885
-0.2975
-0.303
-0.2955
-0.2905
-0.2925
-0.2935
-0.2945
-0.2965
-0.299
-0.2865
-0.286
-0.2925
-0.2955
-0.3065
-0.301
-0.297
-0.299
-0.2965
-0.2995
-0.3025
-0.3045
-0.2975
-0.2895
-0.2985
-0.299
-0.2975
-0.299
-0.2945
-0.2935
-0.2915
-0.2855
-0.289
-0.294
-0.2945
-0.298
-0.298
-0.2925
-0.2925
-0.291
-0.283
-0.287
-0.2965
-0.2955
-0.2935
-0.2925
-0.294
-0.2935
-0.292
-0.2985
-0.291
-0.292
-0.2975
-0.29
-0.2895
-0.2915
-0.2945
-0.2945
-0.295
-0.301
-0.3005
-0.294
-0.297
-0.295
-0.2865
-0.2895
-0.2865
-0.2935
-0.306
-0.2995
-0.297
-0.2985
-0.296
-0.291
-0.2895
-0.294
-0.289
-0.2835
-0.291
-0.2975
-0.2945
-0.292
-0.294
-0.2935
-0.294
-0.2925
-0.298
-0.3055
-0.3015
-0.2955
-0.291
-0.293
-0.2955
-0.2965
-0.3005
-0.296
-0.292
-0.298
-0.291
-0.2855
-0.294
-0.297
-0.297
-0.297
-0.2995
-0.3015
-0.2965
-0.2975
-0.2955
-0.294
-0.298
-0.2965
-0.3005
-0.303
-0.2975
-0.3005
-0.2965
-0.2815
-0.2875
-0.2945
-0.2955
-0.293
-0.2895
-0.298
-0.287
-0.283
-0.298
-0.3005
-0.2955
-0.291
-0.297
-0.3
-0.297
-0.287
-0.2915
-0.3035
-0.2905
-0.29
-0.2865
-0.2825
-0.2835
-0.29
-0.2985
-0.289
-0.2875
-0.2915
-0.299
-0.2995
-0.299
-0.296
-0.2875
-0.2935
-0.3
-0.299
-0.2945
-0.294
-0.2925
-0.2895
-0.293
-0.292
-0.292
-0.298
-0.294
-0.2915
-0.2985
-0.302
-0.3065
-0.3045
-0.3
-0.3025
-0.301
-0.302
-0.296
-0.289
-0.2895
-0.284
-0.2815
-0.2795
-0.283
-0.2835
-0.2765
-0.2765
-0.275
-0.273
-0.273
-0.2745
-0.2785
-0.2765
-0.273
-0.2745
-0.2675
-0.261
-0.271
-0.272
-0.269
-0.2675
-0.262
-0.2625
-0.2655
-0.2545
-0.2485
-0.255
-0.252
-0.244
-0.2395
-0.2435
-0.246
-0.2495
-0.251
-0.245
-0.243
-0.2415
-0.239
-0.232
-0.2225
-0.2235
-0.207
-0.1985
-0.2205
-0.2215
-0.22
-0.228
-0.2325
-0.223
-0.218
-0.228
-0.2265
-0.2275
-0.2275
-0.224
-0.2295
-0.23
-0.233
-0.2385
-0.2425
-0.237
-0.2285
-0.2285
-0.229
-0.2275
-0.222
-0.224
-0.218
-0.2115
-0.218
-0.224
-0.224
-0.217
-0.2135
-0.2115
-0.2065
-0.2075
-0.2205
-0.226
-0.2245
-0.2325
-0.2375
-0.2445
-0.264
-0.2655
-0.269
-0.2855
-0.2885
-0.2895
-0.279
-0.2755
-0.2795
-0.2805
-0.2855
-0.2875
-0.2935
-0.2885
-0.286
-0.287
-0.2895
-0.287
-0.2835
-0.292
-0.2945
-0.302
-0.294
-0.2905
-0.292
-0.297
-0.294
-0.2785
-0.2915
-0.2975
-0.296
-0.288
-0.2845
-0.287
-0.287
-0.291
-0.2875
-0.284
-0.283
-0.29
-0.2955
-0.291
-0.2895
-0.2895
-0.29
-0.298
-0.2935
-0.283
-0.2875
-0.288
-0.2885
-0.2965
-0.295
-0.2965
-0.298
-0.296
-0.3
-0.312
-0.325
-0.327
-0.33
-0.336
-0.3395
-0.341
-0.3435
-0.342
-0.33
-0.3215
-0.3185
-0.3085
-0.2945
-0.2845
-0.263
-0.2375
-0.215
-0.191
-0.1555
-0.1155
-0.083
-0.0535
-0.0345
-0.007
0.038
0.084
0.119
0.166
0.23
0.274
0.31
0.3515
0.341
0.297
0.2535
0.2225
0.2015
0.141
0.0915
0.0495
0.013
0.0075
-0.016
-0.037
-0.0505
-0.0735
-0.0875
-0.108
-0.1415
-0.168
-0.1955
-0.241
-0.271
-0.2895
-0.3065
-0.3015
-0.294
-0.289
-0.2855
-0.285
-0.28
-0.276
-0.278
-0.286
-0.2835
-0.2745
-0.2735
-0.279
-0.2785
-0.279
-0.2895
-0.2935
-0.29
-0.285
-0.284
-0.285
-0.2885
-0.291
-0.29
-0.2875
-0.2835
-0.2935
-0.3025
-0.305
-0.296
-0.2915
-0.2915
-0.2885
-0.2915
-0.2935
-0.2935
-0.2865
-0.294
-0.297
-0.294
-0.2965
-0.298
-0.296
-0.29
-0.2985
-0.2995
-0.2935
-0.292
-0.2865
-0.2875
-0.293
-0.296
-0.2915
-0.287
-0.29
-0.291
-0.2955
-0.2895
-0.279
-0.282
-0.289
-0.2895
-0.2845
-0.2855
-0.293
-0.293
-0.289
-0.293
-0.2875
-0.288
-0.288
-0.2805
-0.284
-0.2815
-0.2805
-0.277
-0.279
-0.2835
-0.288
-0.293
-0.279
-0.2735
-0.28
-0.2805
-0.2725
-0.2685
-0.2665
-0.2685
-0.2745
-0.2765
-0.2755
-0.279
-0.2855
-0.2735
-0.267
-0.2715
-0.2675
-0.263
-0.272
-0.283
-0.2865
-0.2815
-0.275
-0.279
-0.282
-0.2735
-0.269
-0.267
-0.2605
-0.26
-0.2595
-0.2615
-0.268
-0.276
-0.265
-0.258
-0.2695
-0.2715
-0.272
-0.267
-0.266
-0.262
-0.2605
-0.267
-0.2645
-0.2565
-0.2535
-0.2615
-0.2585
-0.2525
-0.2555
-0.255
-0.2525
-0.2495
-0.2455
-0.254
-0.2655
-0.261
-0.2505
-0.2495
-0.2545
-0.247
-0.246
-0.2495
-0.247
-0.25
-0.2425
-0.2405
-0.244
-0.24
-0.24
-0.2385
-0.2425
-0.2485
-0.2415
-0.2395
-0.243
-0.2445
-0.2435
-0.233
-0.2295
-0.2355
-0.234
-0.231
-0.233
-0.2265
-0.2235
-0.225
-0.221
-0.2225
-0.2245
-0.2255
-0.2235
-0.223
-0.2195
-0.219
-0.224
-0.218
-0.214
-0.2145
-0.218
-0.214
-0.2115
-0.2125
-0.2055
-0.2055
-0.2025
-0.1995
-0.207
-0.2
-0.1895
-0.201
-0.1975
-0.195
-0.1945
-0.183
-0.1935
-0.193
-0.1895
-0.1905
-0.1855
-0.182
-0.18
-0.181
-0.1765
-0.171
-0.1725
-0.179
-0.1735
-0.1655
-0.1655
-0.1515
-0.15
-0.159
-0.151
-0.1555
-0.163
-0.1535
-0.1465
-0.143
-0.141
-0.1425
-0.1445
-0.1355
-0.1295
-0.129
-0.1235
-0.123
-0.1105
-0.1155
-0.126
-0.119
-0.1205
-0.115
-0.1095
-0.1145
-0.1185
-0.1195
-0.1175
-0.109
-0.1105
-0.1115
-0.107
-0.1125
-0.1125
-0.1045
-0.101
-0.106
-0.1045
-0.109
-0.113
-0.105
-0.098
-0.0915
-0.098
-0.115
-0.1185
-0.1125
-0.1095
-0.1135
-0.117
-0.116
-0.1225
-0.1235
-0.123
-0.126
-0.131
-0.1305
-0.1315
-0.1405
-0.145
-0.1515
-0.1515
-0.151
-0.153
-0.1575
-0.1625
-0.166
-0.1725
-0.172
-0.1685
-0.172
-0.1745
-0.1745
-0.184
-0.1945
-0.1985
-0.201
-0.2005
-0.202
-0.205
-0.2065
-0.2145
-0.2195
-0.2175
-0.227
-0.23
-0.226
-0.234
-0.241
-0.231
-0.224
-0.233
-0.238
-0.2415
-0.2405
-0.2405
-0.2355
-0.2345
-0.2445
-0.2465
-0.254
-0.2585
-0.2585
-0.262
-0.2615
-0.2585
-0.2625
-0.2595
-0.2505
-0.2565
-0.261
-0.264
-0.271
-0.268
-0.2635
-0.2625
-0.2625
-0.2685
-0.27
-0.2695
-0.27
-0.2715
-0.2715
-0.2725
-0.279
-0.2765
-0.276
-0.279
-0.2705
-0.272
-0.278
-0.273
-0.2695
-0.2685
-0.274
-0.277
-0.278
-0.2795
-0.2795
-0.2885
-0.286
-0.276
-0.2825
-0.2735
-0.272
-0.282
-0.2815
-0.284
-0.281
-0.2795
-0.28
-0.2845
-0.2835
-0.2795
-0.287
-0.288
-0.28
-0.28
-0.281
-0.285
-0.2815
-0.269
-0.2825
-0.2925
-0.2835
-0.2835
-0.2905
-0.2915
-0.289
-0.29
-0.294
-0.297
-0.2835
-0.2905
-0.295
-0.281
-0.2855
-0.285
-0.285
-0.2865
-0.281
-0.286
-0.295
-0.287
-0.2885
-0.2945
-0.2945
-0.2955
-0.288
-0.2835
-0.2835
-0.289
-0.2895
-0.289
-0.2875
-0.2875
-0.293
-0.296
-0.2965
-0.2905
-0.29
-0.2925
-0.2945
-0.296
-0.2875
-0.2855
-0.291
-0.2935
-0.2905
-0.291
-0.2895
-0.284
-0.2855
-0.288
-0.2885
-0.2835
-0.2795
-0.278
-0.2845
-0.2875
-0.285
-0.2955
-0.2945
-0.285
-0.293
-0.298
-0.291
-0.289
-0.2795
-0.2765
-0.288
-0.288
-0.2845
-0.283
-0.288
-0.2935
-0.2925
-0.287
-0.282
-0.29
-0.2915
-0.2885
-0.292
-0.2965
-0.296
-0.2915
-0.287
-0.2875
-0.2925
-0.2845
-0.276
-0.2785
-0.2785
-0.2865
-0.286
-0.274
-0.276
-0.2765
-0.276
-0.2865
-0.293
-0.29
-0.284
-0.278
-0.2815
-0.2895
-0.2885
-0.2885
-0.297
-0.2865
-0.2765
-0.2845
-0.29
-0.29
-0.2815
-0.2755
-0.2795
-0.2775
-0.2795
-0.287
-0.2895
-0.294
-0.2915
-0.2805
-0.2825
-0.2895
-0.2895
-0.286
-0.285
-0.289
-0.29
-0.29
-0.29
-0.2915
-0.2955
-0.281
-0.2735
-0.2905
-0.2935
-0.2865
-0.282
-0.281
-0.2905
-0.299
-0.2985
-0.296
-0.2955
-0.285
-0.2815
-0.287
-0.2865
-0.287
-0.284
-0.2845
-0.283
-0.281
-0.287
-0.2885
-0.286
-0.285
-0.283
-0.2835
-0.2835
-0.2855
-0.2895
-0.2835
-0.284
-0.2865
-0.2875
-0.286
-0.2825
-0.2855
-0.2855
-0.2855
-0.2835
-0.283
-0.2825
-0.2805
-0.2895
-0.2945
-0.2885
-0.2775
-0.276
-0.285
-0.2885
-0.2945
-0.295
-0.28
-0.285
-0.293
-0.294
-0.3025
-0.2975
-0.2985
-0.302
-0.2965
-0.2795
-0.281
-0.288
-0.2835
-0.2895
-0.2905
-0.278
-0.264
-0.2825
-0.294
-0.292
-0.291
-0.2855
-0.2895
-0.2935
-0.2885
-0.2845
-0.284
-0.284
-0.2855
-0.285
-0.292
-0.2915
-0.2875
-0.2925
-0.29
-0.2865
-0.285
-0.282
-0.282
-0.2855
-0.2855
-0.281
-0.284
-0.2815
-0.2815
-0.2815
-0.2855
-0.293
-0.294
-0.2885
-0.2735
-0.276
-0.2725
-0.2685
-0.2735
-0.28
-0.2845
-0.2825
-0.283
-0.2845
-0.2805
-0.2725
-0.2795
-0.2835
-0.284
-0.283
-0.2815
-0.281
-0.2745
-0.2815
-0.283
-0.283
-0.2895
-0.2875
-0.2865
-0.279
-0.2775
-0.286
-0.2875
-0.2875
-0.286
-0.287
-0.282
-0.283
-0.286
-0.2795
-0.2795
-0.284
-0.282
-0.2785
-0.2855
-0.284
-0.2765
-0.276
-0.278
-0.28
-0.2785
-0.2805
-0.2825
-0.284
-0.29
-0.293
-0.2855
-0.281
-0.28
-0.287
-0.288
-0.281
-0.2855
-0.2795
-0.274
-0.279
-0.2815
-0.2805
-0.286
-0.2875
-0.2765
-0.277
-0.283
-0.279
-0.279
-0.279
-0.28
-0.2785
-0.278
-0.2845
-0.2895
-0.289
-0.2815
-0.2825
-0.283
-0.2765
-0.2775
-0.273
-0.2675
-0.277
-0.278
-0.2665
-0.268
-0.27
-0.2685
-0.267
-0.259
-0.2615
-0.2605
-0.259
-0.2675
-0.264
-0.2605
-0.2585
-0.2545
-0.261
-0.268
-0.2665
-0.2625
-0.2565
-0.2435
-0.244
-0.2495
-0.248
-0.2485
-0.245
-0.249
-0.247
-0.247
-0.2485
-0.2445
-0.245
-0.2415
-0.2375
-0.2355
-0.2355
-0.2275
-0.229
-0.2245
-0.2145
-0.2265
-0.215
-0.2005
-0.2165
-0.22
-0.2175
-0.221
-0.222
-0.2245
-0.2235
-0.2245
-0.2245
-0.227
-0.221
-0.2145
-0.228
-0.228
-0.2385
-0.24
-0.2235
-0.2215
-0.215
-0.222
-0.223
-0.22
-0.2235
-0.2215
-0.22
-0.216
-0.218
-0.2165
-0.2095
-0.202
-0.2045
-0.2115
-0.221
-0.2255
-0.2265
-0.229
-0.2345
-0.2465
-0.2535
-0.263
-0.274
-0.278
-0.2765
-0.285
-0.2875
-0.2825
-0.2905
-0.289
-0.283
-0.2785
-0.2815
-0.2875
-0.2855
-0.293
-0.299
-0.306
-0.308
-0.29
-0.2895
-0.292
-0.292
-0.3035
-0.3035
-0.2965
-0.296
-0.294
-0.2915
-0.296
-0.2945
-0.2925
-0.2955
-0.296
-0.2925
-0.2905
-0.2935
-0.2935
-0.2995
-0.291
-0.281
-0.287
-0.291
-0.301
-0.304
-0.3015
-0.3015
-0.2945
-0.295
-0.292
-0.292
-0.304
-0.3045
-0.305
-0.2965
-0.2925
-0.306
-0.3085
-0.319
-0.33
-0.341
-0.3555
-0.3585
-0.349
-0.3385
-0.339
-0.335
-0.329
-0.32
-0.311
-0.301
-0.285
-0.2675
-0.244
-0.2175
-0.1885
-0.161
-0.1325
-0.0985
-0.063
-0.038
-0.019
0.021
0.0655
0.1135
0.1765
0.237
0.2775
0.322
0.3565
0.3435
0.3115
0.2595
0.2285
0.2105
0.155
0.0945
0.0455
0.015
-0.006
-0.0285
-0.0445
-0.059
-0.0785
-0.087
-0.111
-0.156
-0.1865
-0.2165
-0.255
-0.2835
-0.303
-0.309
-0.302
-0.298
-0.2975
-0.296
-0.2945
-0.2935
-0.2915
-0.2915
-0.287
-0.282
-0.282
-0.2805
-0.277
-0.2805
-0.288
-0.284
-0.281
-0.29
-0.292
-0.295
-0.299
-0.2915
-0.295
-0.3025
-0.2945
-0.2895
-0.2935
-0.298
-0.3015
-0.302
-0.304
-0.301
-0.302
-0.306
-0.301
-0.2935
-0.295
-0.295
-0.2805
-0.28
-0.289
-0.295
-0.2995
-0.298
-0.299
-0.3015
-0.2985
-0.3
-0.299
-0.2965
-0.2915
-0.287
-0.2965
-0.3035
-0.299
-0.2975
-0.295
-0.295
-0.3025
-0.299
-0.297
-0.3005
-0.2995
-0.298
-0.2955
-0.2905
-0.291
-0.2945
-0.2905
-0.2895
-0.2965
-0.293
-0.29
-0.292
-0.296
-0.294
-0.287
-0.2855
-0.2835
-0.283
-0.274
-0.276
-0.2845
-0.283
-0.29
-0.294
-0.286
-0.2775
-0.281
-0.2875
-0.283
-0.2805
-0.2815
-0.28
-0.2785
-0.2815
-0.2785
-0.27
-0.2715
-0.2725
-0.2735
-0.287
-0.285
-0.272
-0.2765
-0.279
-0.2715
-0.2725
-0.2745
-0.2725
-0.27
-0.2695
-0.2725
-0.2685
-0.2655
-0.2685
-0.276
-0.273
-0.2605
-0.259
-0.266
-0.2715
-0.266
-0.259
-0.258
-0.2595
-0.265
-0.2685
-0.266
-0.264
-0.262
-0.2585
-0.2545
-0.255
-0.258
-0.2555
-0.261
-0.261
-0.253
-0.2535
-0.254
-0.253
-0.2495
-0.2565
-0.2625
-0.251
-0.2495
-0.2515
-0.25
-0.2505
-0.2515
-0.249
-0.2405
-0.243
-0.2465
-0.247
-0.2415
-0.2325
-0.2335
-0.2375
-0.2385
-0.2385
-0.235
-0.2325
-0.233
-0.237
-0.2375
-0.2375
-0.2395
-0.237
-0.237
-0.232
-0.2285
-0.2245
-0.2215
-0.2315
-0.231
-0.2245
-0.2195
-0.2145
-0.2175
-0.2145
-0.208
-0.209
-0.2135
-0.2115
-0.2085
-0.2115
-0.211
-0.2065
-0.2015
-0.1955
-0.1945
-0.197
-0.1965
-0.1885
-0.189
-0.1925
-0.1895
-0.1965
-0.196
-0.19
-0.188
-0.174
-0.1655
-0.1665
-0.1655
-0.1655
-0.1645
-0.167
-0.157
-0.1565
-0.152
-0.1495
-0.1605
-0.154
-0.1525
-0.145
-0.1385
-0.1415
-0.138
-0.1325
-0.1345
-0.1305
-0.1255
-0.128
-0.1255
-0.122
-0.1225
-0.123
-0.1215
-0.1215
-0.1205
-0.1185
-0.113
-0.104
-0.1
-0.1015
-0.1055
-0.109
-0.102
-0.1015
-0.1045
-0.109
-0.115
-0.1065
-0.104
-0.106
-0.106
-0.104
-0.1025
-0.1035
-0.104
-0.1025
-0.1055
-0.1095
-0.112
-0.1105
-0.105
-0.1085
-0.112
-0.109
-0.1095
-0.1135
-0.112
-0.1195
-0.127
-0.126
-0.13
-0.1285
-0.142
-0.15
-0.1475
-0.15
-0.1455
-0.1455
-0.1555
-0.1605
-0.1575
-0.164
-0.161
-0.1675
-0.18
-0.185
-0.1875
-0.184
-0.1855
-0.187
-0.2015
-0.211
-0.208
-0.2085
-0.21
-0.2135
-0.2135
-0.2165
-0.223
-0.226
-0.2245
-0.225
-0.227
-0.227
-0.228
-0.231
-0.2365
-0.25
-0.2515
-0.24
-0.2475
-0.2455
-0.2365
-0.245
-0.246
-0.2465
-0.25
-0.2485
-0.2505
-0.2465
-0.2435
-0.2555
-0.2515
-0.244
-0.2495
-0.252
-0.26
-0.2625
-0.261
-0.2585
-0.2575
-0.2645
-0.263
-0.2605
-0.2625
-0.267
-0.2695
-0.2645
-0.266
-0.2595
-0.2555
-0.261
-0.2585
-0.265
-0.267
-0.264
-0.268
-0.274
-0.278
-0.2735
-0.274
-0.275
-0.2695
-0.2725
-0.275
-0.2725
-0.2745
-0.274
-0.2715
-0.2745
-0.273
-0.265
-0.266
-0.2725
-0.277
-0.28
-0.272
-0.271
-0.2755
-0.2775
-0.278
-0.276
-0.2765
-0.2705
-0.2735
-0.281
-0.278
-0.2755
-0.277
-0.2715
-0.265
-0.264
-0.272
-0.2795
-0.2785
-0.2805
-0.278
-0.279
-0.2775
-0.2785
-0.282
-0.2855
-0.286
-0.274
-0.278
-0.2845
-0.2855
-0.286
-0.2875
-0.2865
-0.283
-0.281
-0.281
-0.2855
-0.28
-0.2815
-0.285
-0.2885
-0.293
-0.2905
-0.289
-0.284
-0.2855
-0.284
-0.274
-0.274
-0.291
-0.2915
-0.2875
-0.2875
-0.279
-0.2775
-0.2755
-0.28
-0.277
-0.2765
-0.2765
-0.2745
-0.2825
-0.2795
-0.2835
-0.2815
-0.2745
-0.278
-0.2835
-0.2855
-0.2815
-0.2865
-0.2845
-0.2785
-0.2745
-0.2715
-0.2735
-0.272
-0.2745
-0.274
-0.275
-0.28
-0.282
-0.287
-0.288
-0.2845
-0.2825
-0.2795
-0.2795
-0.279
-0.277
-0.2805
-0.285
-0.2835
-0.2755
-0.2755
-0.277
-0.2785
-0.2815
-0.28
-0.279
-0.28
-0.2775
-0.278
-0.285
-0.281
-0.285
-0.2825
-0.271
-0.272
-0.2725
-0.273
-0.2725
-0.274
-0.277
-0.2745
-0.27
-0.2725
-0.272
-0.2735
-0.277
-0.269
-0.276
-0.2865
-0.2855
-0.2825
-0.2845
-0.2895
-0.2865
-0.2845
-0.2825
-0.281
-0.2835
-0.285
-0.285
-0.283
-0.274
-0.2755
-0.284
-0.28
-0.2795
-0.284
-0.277
-0.271
-0.2795
-0.284
-0.282
-0.285
-0.2895
-0.287
-0.286
-0.287
-0.283
-0.278
-0.2815
-0.2835
-0.28
-0.282
-0.2815
-0.279
-0.281
-0.289
-0.285
-0.279
-0.2825
-0.283
-0.281
-0.2795
-0.2785
-0.288
-0.2915
-0.2835
-0.283
-0.2865
-0.28
-0.278
-0.282
-0.2775
-0.2795
-0.2835
-0.2825
-0.2805
-0.2785
-0.283
-0.284
-0.2805
-0.282
-0.2835
-0.2795
-0.272
-0.274
-0.276
-0.2805
-0.284
-0.278
-0.2835
-0.2865
-0.283
-0.2795
-0.2775
-0.285
-0.2785
-0.275
-0.2795
-0.276
-0.2745
-0.27
-0.277
-0.284
-0.282
-0.2825
-0.286
-0.286
-0.288
-0.2845
-0.276
-0.276
-0.2815
-0.283
-0.28
-0.279
-0.281
-0.2845
-0.281
-0.285
-0.286
-0.2845
-0.2815
-0.283
-0.28
-0.2745
-0.2845
-0.2815
-0.276
-0.2725
-0.2745
-0.2865
-0.2835
-0.272
-0.2775
-0.287
-0.29
-0.2905
-0.2805
-0.279
-0.2745
-0.281
-0.2875
-0.2715
-0.2775
-0.289
-0.29
-0.2925
-0.2905
-0.2865
-0.284
-0.278
-0.274
-0.2775
-0.281
-0.2875
-0.2855
-0.288
-0.288
-0.2765
-0.2845
-0.2845
-0.28
-0.2785
-0.283
-0.2855
-0.28
-0.2815
-0.275
-0.281
-0.2825
-0.279
-0.281
-0.2755
-0.2755
-0.2725
-0.278
-0.2875
-0.2785
-0.2795
-0.2835
-0.282
-0.284
-0.276
-0.2735
-0.283
-0.2845
-0.2795
-0.2815
-0.2835
-0.285
-0.287
-0.282
-0.279
-0.281
-0.2805
-0.28
-0.278
-0.279
-0.281
-0.2785
-0.281
-0.2815
-0.2775
-0.2755
-0.2805
-0.286
-0.286
-0.283
-0.279
-0.2725
-0.2745
-0.278
-0.269
-0.2665
-0.2695
-0.2695
-0.2635
-0.2645
-0.267
-0.2645
-0.2635
-0.263
-0.2625
-0.264
-0.263
-0.2565
-0.257
-0.2515
-0.2455
-0.246
-0.25
-0.2575
-0.253
-0.2495
-0.2505
-0.2405
-0.2405
-0.2455
-0.245
-0.242
-0.2405
-0.2405
-0.2355
-0.2395
-0.2395
-0.237
-0.236
-0.223
-0.2075
-0.207
-0.209
-0.207
-0.2115
-0.2105
-0.213
-0.2275
-0.223
-0.2125
-0.216
-0.2205
-0.2205
-0.215
-0.219
-0.222
-0.2255
-0.23
-0.231
-0.231
-0.2225
-0.2235
-0.225
-0.224
-0.226
-0.2205
-0.218
-0.2155
-0.212
-0.2115
-0.212
-0.2105
-0.2135
-0.217
-0.2085
-0.2135
-0.223
-0.2195
-0.215
-0.2155
-0.2215
-0.2285
-0.2475
-0.2745
-0.2865
-0.2845
-0.2805
-0.284
-0.286
-0.28
-0.283
-0.286
-0.282
-0.2815
-0.283
-0.2855
-0.292
-0.285
-0.281
-0.283
-0.2855
-0.2955
-0.2885
-0.2835
-0.2835
-0.2845
-0.2925
-0.291
-0.2865
-0.289
-0.2975
-0.291
-0.2925
-0.3005
-0.2865
-0.2875
-0.2955
-0.2895
-0.288
-0.2945
-0.2955
-0.2945
-0.289
-0.296
-0.2985
-0.2845
-0.2845
-0.2815
-0.2895
-0.2965
-0.294
-0.299
-0.2975
-0.289
-0.281
-0.2945
-0.3025
-0.3045
-0.314
-0.3115
-0.326
-0.3315
-0.3255
-0.342
-0.3455
-0.337
-0.338
-0.3415
-0.3385
-0.332
-0.322
-0.308
-0.3015
-0.2855
-0.2575
-0.2375
-0.221
-0.1915
-0.1465
-0.114
-0.085
-0.0475
-0.0225
0.001
0.05
0.0955
0.1335
0.196
0.2455
0.2985
0.353
0.377
0.3555
0.304
0.262
0.2405
0.2195
0.165
0.102
0.058
0.026
0.005
-0.0095
-0.039
-0.0645
-0.078
-0.0875
-0.1065
-0.135
-0.167
-0.2145
-0.2605
-0.2845
-0.3005
-0.307
-0.2965
-0.285
-0.2825
-0.283
-0.2825
-0.289
-0.29
-0.292
-0.287
-0.2705
-0.269
-0.275
-0.2765
-0.288
-0.29
-0.283
-0.2935
-0.291
-0.2855
-0.283
-0.2895
-0.2945
-0.2805
-0.291
-0.2985
-0.29
-0.2985
-0.2935
-0.2905
-0.301
-0.3005
-0.2965
-0.303
-0.2985
-0.285
-0.2865
-0.292
-0.297
-0.295
-0.299
-0.3035
-0.31
-0.3105
-0.301
-0.2965
-0.289
-0.286
-0.2835
-0.281
-0.284
-0.2855
-0.284
-0.2885
-0.288
-0.296
-0.2985
-0.2895
-0.2895
-0.2895
-0.2865
-0.29
-0.307
-0.3
-0.281
-0.2805
-0.2815
-0.28
-0.283
-0.2865
-0.2775
-0.2775
-0.282
-0.275
-0.278
-0.279
-0.2765
-0.277
-0.273
-0.274
-0.276
-0.275
-0.2765
-0.273
-0.273
-0.279
-0.276
-0.2735
-0.2735
-0.2735
-0.271
-0.2685
-0.2715
-0.273
-0.269
-0.2685
-0.275
-0.2745
-0.271
-0.2735
-0.274
-0.2705
-0.2645
-0.267
-0.2665
-0.2695
-0.2735
-0.2695
-0.2685
-0.265
-0.2685
-0.2715
-0.2675
-0.27
-0.2635
-0.253
-0.25
-0.2495
-0.267
-0.2625
-0.253
-0.2565
-0.253
-0.2585
-0.254
-0.26
-0.2515
-0.2435
-0.2525
-0.248
-0.246
-0.247
-0.2445
-0.243
-0.2455
-0.2395
-0.241
-0.245
-0.244
-0.2435
-0.234
-0.236
-0.2515
-0.25
-0.2375
-0.2335
-0.231
-0.235
-0.232
-0.238
-0.2405
-0.2375
-0.251
-0.234
-0.224
-0.2265
-0.2215
-0.232
-0.231
-0.22
-0.22
-0.2285
-0.2275
-0.2205
-0.223
-0.223
-0.2265
-0.2255
-0.2275
-0.2305
-0.2135
-0.2155
-0.214
-0.206
-0.2125
-0.2085
-0.2115
-0.203
-0.202
-0.211
-0.204
-0.2125
-0.212
-0.21
-0.2
-0.1925
-0.1995
-0.194
-0.1965
-0.1925
-0.192
-0.186
-0.173
-0.188
-0.187
-0.1805
-0.195
-0.188
-0.1705
-0.165
-0.167
-0.169
-0.169
-0.1665
-0.164
-0.163
-0.1585
-0.155
-0.15
-0.1465
-0.143
-0.149
-0.147
-0.1305
-0.1295
-0.1365
-0.146
-0.139
-0.143
-0.1385
-0.1265
-0.134
-0.1265
-0.113
-0.1055
-0.117
-0.123
-0.1145
-0.118
-0.1175
-0.1125
-0.108
-0.1055
-0.1055
-0.1025
-0.105
-0.106
-0.1055
-0.099
-0.1005
-0.1
-0.092
-0.094
-0.0945
-0.0985
-0.098
-0.1015
-0.1025
-0.1025
-0.103
-0.082
-0.071
-0.0825
-0.0905
-0.088
-0.093
-0.104
-0.106
-0.097
-0.0965
-0.1035
-0.1015
-0.105
-0.107
-0.1085
-0.108
-0.1065
-0.1155
-0.1165
-0.1115
-0.117
-0.127
-0.1355
-0.1425
-0.1375
-0.1395
-0.143
-0.1375
-0.142
-0.1485
-0.158
-0.166
-0.167
-0.1695
-0.1695
-0.1755
-0.1795
-0.1765
-0.18
-0.1795
-0.1785
-0.1815
-0.1985
-0.2075
-0.1955
-0.2015
-0.2075
-0.2065
-0.2175
-0.233
-0.2355
-0.2325
-0.2405
-0.2365
-0.235
-0.2285
-0.2185
-0.2295
-0.2285
-0.232
-0.2455
-0.2335
-0.2315
-0.2395
-0.244
-0.251
-0.2585
-0.26
-0.253
-0.251
-0.253
-0.2555
-0.2625
-0.259
-0.2525
-0.259
-0.2575
-0.2635
-0.2645
-0.2635
-0.2655
-0.261
-0.253
-0.252
-0.2535
-0.259
-0.2655
-0.2605
-0.266
-0.2725
-0.2725
-0.274
-0.2715
-0.272
-0.276
-0.2695
-0.2655
-0.269
-0.267
-0.269
-0.274
-0.272
-0.269
-0.256
-0.2525
-0.2685
-0.2735
-0.278
-0.276
-0.266
-0.2725
-0.279
-0.2795
-0.2745
-0.2645
-0.2605
-0.2675
-0.275
-0.2815
-0.2875
-0.2835
-0.277
-0.281
-0.292
-0.2825
-0.269
-0.274
-0.2785
-0.274
-0.2765
-0.28
-0.2765
-0.274
-0.2735
-0.278
-0.2795
-0.279
-0.278
-0.2735
-0.2815
-0.281
-0.275
-0.277
-0.279
-0.2825
-0.283
-0.2845
-0.2765
-0.2745
-0.281
-0.283
-0.284
-0.2845
-0.2875
-0.282
-0.275
-0.295
-0.2965
-0.2805
-0.2735
-0.269
-0.2845
-0.285
-0.2795
-0.2775
-0.286
-0.2895
-0.282
-0.2865
-0.277
-0.285
-0.29
-0.278
-0.2775
-0.271
-0.2705
-0.293
-0.3035
-0.284
-0.2825
-0.2965
-0.2895
-0.2885
-0.29
-0.274
-0.272
-0.2795
-0.2805
-0.275
-0.274
-0.28
-0.2805
-0.279
-0.2695
-0.277
-0.286
-0.2785
-0.2825
-0.282
-0.281
-0.2755
-0.279
-0.282
-0.2685
-0.2715
-0.2695
-0.2695
-0.2755
-0.2755
-0.2735
-0.2685
-0.2705
-0.275
-0.274
-0.2715
-0.274
-0.2695
-0.2745
-0.265
-0.2575
-0.2695
-0.264
-0.2625
-0.27
-0.2745
-0.2655
-0.271
-0.275
-0.2745
-0.281
-0.285
-0.2865
-0.2685
-0.2765
-0.2745
-0.272
-0.276
-0.2675
-0.2695
-0.27
-0.2805
-0.271
-0.262
-0.271
-0.2775
-0.2695
-0.276
-0.294
-0.285
-0.278
-0.268
-0.2645
-0.2735
-0.2735
-0.2715
-0.2635
-0.2595
-0.263
-0.2615
-0.2675
-0.2745
-0.2755
-0.2675
-0.2685
-0.282
-0.2805
-0.2735
-0.271
-0.2795
-0.2805
-0.2725
-0.272
-0.266
-0.2685
-0.269
-0.269
-0.2675
-0.266
-0.274
-0.2645
-0.2675
-0.2735
-0.269
-0.2685
-0.266
-0.2685
-0.2705
-0.2735
-0.2685
-0.259
-0.263
-0.2685
-0.2785
-0.2795
-0.2785
-0.276
-0.2725
-0.2755
-0.2655
-0.2675
-0.2725
-0.2675
-0.265
-0.263
-0.2745
-0.277
-0.269
-0.2775
-0.2835
-0.279
-0.271
-0.2675
-0.2735
-0.2705
-0.259
-0.255
-0.2705
-0.283
-0.2835
-0.279
-0.2715
-0.271
-0.2765
-0.2755
-0.276
-0.277
-0.2795
-0.2775
-0.27
-0.2675
-0.272
-0.2905
-0.3
-0.286
-0.2715
-0.269
-0.2755
-0.285
-0.2825
-0.2725
-0.2715
-0.276
-0.272
-0.277
-0.271
-0.2755
-0.2935
-0.285
-0.2815
-0.264
-0.2645
-0.281
-0.275
-0.2705
-0.277
-0.2865
-0.277
-0.266
-0.2715
-0.278
-0.275
-0.272
-0.28
-0.29
-0.292
-0.278
-0.2765
-0.287
-0.2855
-0.2795
-0.2745
-0.273
-0.2695
-0.2745
-0.283
-0.2885
-0.2845
-0.2755
-0.277
-0.2715
-0.2715
-0.279
-0.2765
-0.2795
-0.2725
-0.269
-0.281
-0.2815
-0.275
-0.272
-0.2745
-0.2665
-0.2825
-0.289
-0.274
-0.278
-0.2715
-0.2685
-0.2705
-0.278
-0.286
-0.2815
-0.279
-0.275
-0.268
-0.2695
-0.268
-0.2715
-0.275
-0.266
-0.271
-0.2705
-0.27
-0.272
-0.256
-0.2505
-0.2585
-0.2685
-0.2645
-0.2485
-0.245
-0.249
-0.2555
-0.2565
-0.246
-0.2445
-0.258
-0.257
-0.2525
-0.248
-0.238
-0.2355
-0.234
-0.2285
-0.2205
-0.224
-0.2205
-0.221
-0.2315
-0.2375
-0.232
-0.2255
-0.232
-0.219
-0.2075
-0.2045
-0.199
-0.201
-0.196
-0.192
-0.201
-0.192
-0.194
-0.2015
-0.1965
-0.2095
-0.2085
-0.2005
-0.199
-0.2005
-0.199
-0.1995
-0.204
-0.2095
-0.2275
-0.2155
-0.1995
-0.2105
-0.2155
-0.2185
-0.215
-0.2
-0.197
-0.202
-0.2115
-0.218
-0.2035
-0.196
-0.1925
-0.191
-0.188
-0.196
-0.211
-0.207
-0.203
-0.204
-0.211
-0.227
-0.2485
-0.254
-0.2575
-0.2595
-0.268
-0.2765
-0.2665
-0.265
-0.2615
-0.273
-0.277
-0.2725
-0.2745
-0.267
-0.266
-0.2805
-0.288
-0.2685
-0.273
-0.284
-0.285
-0.285
-0.275
-0.2625
-0.267
-0.28
-0.2775
-0.286
-0.289
-0.286
-0.283
-0.2785
-0.2835
-0.28
-0.2755
-0.281
-0.28
-0.2685
-0.2825
-0.2875
-0.277
-0.284
-0.266
-0.262
-0.2815
-0.2735
-0.279
-0.2755
-0.261
-0.28
-0.2805
-0.2815
-0.2795
-0.2835
-0.3005
-0.2995
-0.303
-0.3075
-0.309
-0.3175
-0.3365
-0.335
-0.3305
-0.331
-0.3225
-0.317
-0.31
-0.303
-0.2925
-0.2775
-0.266
-0.2395
-0.202
-0.1915
-0.176
-0.1345
-0.0835
-0.054
-0.0435
-0.021
0.0125
0.0565
0.1175
0.1635
0.1845
0.237
0.288
0.313
0.3175
0.286
0.236
0.197
0.1615
0.0945
0.054
0.04
0.0195
0.005
-0.0125
-0.0105
-0.02
-0.0455
-0.0725
-0.095
-0.106
-0.136
-0.1885
-0.2285
-0.26
-0.295
-0.3065
-0.304
-0.2925
-0.2895
-0.2875
-0.2795
-0.2765
-0.2705
-0.2815
-0.283
-0.2675
-0.2725
-0.281
-0.276
-0.2705
-0.27
-0.278
-0.2765
-0.2755
-0.2745
-0.2765
-0.2765
-0.2825
-0.2895
-0.2685
-0.2725
-0.286
-0.2775
-0.279
-0.278
-0.2775
-0.286
-0.285
-0.288
-0.2915
-0.2855
-0.286
-0.295
-0.294
-0.287
-0.277
-0.267
-0.28
-0.2845
-0.2785
-0.2735
-0.2795
-0.288
-0.277
-0.2815
-0.276
-0.2675
-0.2765
-0.2795
-0.2775
-0.2765
-0.2655
-0.265
-0.273
-0.282
-0.2835
-0.273
-0.287
-0.282
-0.26
-0.2615
-0.269
-0.278
-0.2925
-0.2995
-0.2855
-0.2725
-0.2765
-0.2825
-0.2785
-0.2715
-0.271
-0.262
-0.2645
-0.278
-0.269
-0.258
-0.263
-0.279
-0.2745
-0.272
-0.274
-0.2665
-0.262
-0.259
-0.263
-0.2615
-0.2695
-0.2725
-0.2615
-0.2605
-0.2685
-0.2655
-0.2575
-0.267
-0.2745
-0.266
-0.253
-0.2495
-0.2605
-0.2525
-0.25
-0.267
-0.252
-0.248
-0.2645
-0.269
-0.262
-0.2495
-0.26
-0.2705
-0.253
-0.2455
-0.247
-0.2455
-0.2485
-0.2515
-0.252
-0.2485
-0.248
-0.2505
-0.2425
-0.245
-0.2495
-0.233
-0.2465
-0.253
-0.2425
-0.253
-0.2385
-0.2385
-0.2605
-0.247
-0.246
-0.2525
-0.224
-0.212
-0.2335
-0.2435
-0.23
-0.231
-0.2355
-0.23
-0.227
-0.225
-0.226
-0.2375
-0.241
-0.221
-0.2265
-0.231
-0.2225
-0.2265
-0.235
-0.229
-0.216
-0.2355
-0.2225
-0.2165
-0.2275
-0.2165
-0.2175
-0.213
-0.213
-0.214
-0.2085
-0.21
-0.2135
-0.206
-0.1995
-0.196
-0.2045
-0.2105
-0.1935
-0.2
-0.1985
-0.1855
-0.1895
-0.1935
-0.192
-0.1895
-0.198
-0.193
-0.1945
-0.195
-0.182
-0.189
-0.1775
-0.1775
-0.19
-0.178
-0.174
-0.1635
-0.165
-0.169
-0.164
-0.168
-0.1705
-0.16
-0.147
-0.154
-0.1555
-0.153
-0.14
-0.137
-0.1535
-0.1655
-0.1645
-0.1485
-0.1355
-0.134
-0.138
-0.13
-0.127
-0.113
-0.113
-0.1295
-0.1285
-0.124
-0.1195
-0.1265
-0.115
-0.1045
-0.1145
-0.1115
-0.112
-0.1215
-0.1205
-0.106
-0.1065
-0.0965
-0.095
-0.1055
-0.0875
-0.1025
-0.1055
-0.094
-0.1035
-0.0965
-0.097
-0.102
-0.095
-0.09
-0.095
-0.1
-0.108
-0.1125
-0.101
-0.097
-0.095
-0.1075
-0.128
-0.12
-0.1145
-0.1205
-0.11
-0.097
-0.105
-0.1115
-0.105
-0.1055
-0.1195
-0.1265
-0.1365
-0.1355
-0.1355
-0.138
-0.1285
-0.1335
-0.146
-0.1665
-0.161
-0.1615
-0.172
-0.1615
-0.1665
-0.17
-0.167
-0.177
-0.181
-0.1825
-0.1905
-0.1815
-0.191
-0.2115
-0.212
-0.203
-0.203
-0.216
-0.214
-0.227
-0.2305
-0.221
-0.2215
-0.2235
-0.239
-0.247
-0.249
-0.2555
-0.2595
-0.2525
-0.247
-0.24
-0.2515
-0.2615
-0.246
-0.2505
-0.253
-0.245
-0.2535
-0.2585
-0.258
-0.2615
-0.264
-0.2725
-0.2775
-0.2735
-0.2675
-0.277
-0.286
-0.2725
-0.267
-0.278
-0.28
-0.2745
-0.278
-0.2775
-0.2695
-0.2755
-0.2875
-0.2905
-0.2795
-0.2705
-0.278
-0.3005
-0.2865
-0.27
-0.29
-0.294
-0.2975
-0.29
-0.275
-0.275
-0.295
-0.31
-0.297
-0.2885
-0.2885
-0.291
-0.2865
-0.2885
-0.2905
-0.2895
-0.304
-0.2935
-0.2855
-0.288
-0.2835
-0.288
-0.2955
-0.2975
-0.3005
-0.303
-0.2945
-0.2975
-0.2975
-0.2865
-0.293
-0.2965
-0.2875
-0.2965
-0.2905
-0.283
-0.295
-0.2895
-0.276
-0.2805
-0.296
-0.3025
-0.294
-0.296
-0.297
-0.2915
-0.3
-0.284
-0.2755
-0.2755
-0.2805
-0.293
-0.3005
-0.2975
-0.285
-0.295
-0.296
-0.286
-0.278
-0.2805
-0.2965
-0.298
-0.2855
-0.2805
-0.2895
-0.303
-0.3025
-0.286
-0.29
-0.2965
-0.283
-0.2805
-0.2835
-0.2825
-0.288
-0.2925
-0.2875
-0.2715
-0.2685
-0.2865
-0.288
-0.2865
-0.294
-0.283
-0.2725
-0.286
-0.289
-0.2785
-0.282
-0.276
-0.2875
-0.3
-0.2855
-0.281
-0.285
-0.2955
-0.303
-0.2805
-0.2855
-0.283
-0.2665
-0.2845
-0.2865
-0.289
-0.29
-0.2755
-0.283
-0.282
-0.283
-0.3105
-0.2985
-0.283
-0.2905
-0.28
-0.278
-0.2975
-0.301
-0.291
-0.289
-0.293
-0.2785
-0.264
-0.264
-0.275
-0.29
-0.2745
-0.2835
-0.296
-0.29
-0.282
-0.279
-0.289
-0.286
-0.28
-0.286
-0.297
-0.283
-0.2905
-0.2875
-0.2815
-0.2925
-0.286
-0.2875
-0.291
-0.3
-0.2915
-0.2925
-0.2965
-0.2875
-0.286
-0.2855
-0.2895
-0.2875
-0.2865
-0.2855
-0.2765
-0.2775
-0.2955
-0.2905
-0.2755
-0.279
-0.278
-0.288
-0.2865
-0.2785
-0.298
-0.2915
-0.297
-0.2935
-0.2675
-0.281
-0.282
-0.2895
-0.2885
-0.285
-0.2795
-0.27
-0.2795
-0.2765
-0.282
-0.284
-0.2805
-0.2795
-0.2725
-0.272
-0.2805
-0.2825
-0.288
-0.2845
-0.267
-0.267
-0.2805
-0.289
-0.2925
-0.2935
-0.2855
-0.2855
-0.293
-0.2935
-0.293
-0.287
-0.2925
-0.292
-0.276
-0.277
-0.277
-0.2845
-0.293
-0.2945
-0.2775
-0.2705
-0.293
-0.288
-0.2825
-0.2835
-0.2795
-0.277
-0.2835
-0.29
-0.285
-0.2845
-0.2765
-0.281
-0.2825
-0.27
-0.2815
-0.299
-0.2995
-0.285
-0.278
-0.2795
-0.284
-0.288
-0.2855
-0.291
-0.2875
-0.2825
-0.276
-0.2735
-0.2875
-0.292
-0.2855
-0.2865
-0.2935
-0.277
-0.276
-0.2885
-0.2865
-0.287
-0.29
-0.2905
-0.288
-0.287
-0.2885
-0.282
-0.276
-0.2865
-0.287
-0.2825
-0.297
-0.2895
-0.2765
-0.2825
-0.2815
-0.2805
-0.285
-0.2835
-0.281
-0.295
-0.2955
-0.2875
-0.2745
-0.2725
-0.2775
-0.277
-0.292
-0.284
-0.272
-0.2755
-0.276
-0.28
-0.289
-0.2965
-0.2795
-0.2585
-0.2595
-0.2735
-0.2835
-0.2865
-0.2925
-0.2875
-0.284
-0.2785
-0.269
-0.276
-0.2925
-0.2975
-0.2885
-0.282
-0.2945
-0.299
-0.277
-0.271
-0.287
-0.281
-0.277
-0.2865
-0.291
-0.2885
-0.277
-0.2825
-0.294
-0.2895
-0.274
-0.2775
-0.285
-0.278
-0.2805
-0.283
-0.2815
-0.283
-0.2905
-0.279
-0.2685
-0.278
-0.2845
-0.2855
-0.265
-0.2555
-0.269
-0.2805
-0.272
-0.266
-0.283
-0.289
-0.2835
-0.2615
-0.2525
-0.254
-0.2465
-0.2565
-0.262
-0.241
-0.2295
-0.2435
-0.2515
-0.2425
-0.2365
-0.244
-0.254
-0.2495
-0.235
-0.2405
-0.2485
-0.2425
-0.2275
-0.22
-0.232
-0.2235
-0.207
-0.22
-0.235
-0.2295
-0.2165
-0.222
-0.23
-0.2265
-0.222
-0.2245
-0.2315
-0.225
-0.224
-0.2195
-0.2285
-0.2345
-0.234
-0.234
-0.229
-0.2395
-0.2365
-0.2255
-0.225
-0.233
-0.236
-0.223
-0.2045
-0.2275
-0.2355
-0.228
-0.23
-0.2065
-0.2085
-0.217
-0.2255
-0.2355
-0.243
-0.25
-0.251
-0.2605
-0.2705
-0.2795
-0.272
-0.2755
-0.285
-0.2765
-0.276
-0.286
-0.273
-0.275
-0.2975
-0.2885
-0.295
-0.296
-0.282
-0.288
-0.2895
-0.2995
-0.3005
-0.2825
-0.2815
-0.287
-0.2995
-0.3
-0.2905
-0.2925
-0.284
-0.296
-0.3
-0.287
-0.283
-0.2815
-0.2845
-0.2795
-0.291
-0.2885
-0.278
-0.292
-0.2935
-0.29
-0.2855
-0.281
-0.2755
-0.295
-0.2975
-0.2815
-0.305
-0.3095
-0.304
-0.2935
-0.295
-0.3045
-0.303
-0.3085
-0.3095
-0.33
-0.343
-0.3355
-0.349
-0.35
-0.3315
-0.343
-0.341
-0.321
-0.3265
-0.3055
-0.295
-0.294
-0.2665
-0.2525
-0.2415
-0.2225
-0.1965
-0.1635
-0.113
-0.0955
-0.075
-0.0385
-0.0175
0.024
0.0695
0.121
0.161
0.206
0.2465
0.2755
0.28
0.266
0.222
0.165
0.1365
0.0855
0.058
0.0325
-0.0025
-0.024
-0.0285
-0.038
-0.05
-0.054
-0.0895
-0.1175
-0.1405
-0.147
-0.1745
-0.2435
-0.277
-0.294
-0.3085
-0.311
-0.3055
-0.298
-0.297
-0.2945
-0.291
-0.2935
-0.296
-0.284
-0.282
-0.2915
-0.2805
-0.2715
-0.2765
-0.2725
-0.274
-0.2815
-0.282
-0.279
-0.273
-0.275
-0.2835
-0.2855
-0.2805
-0.271
-0.2785
-0.2895
-0.292
-0.297
-0.2925
-0.2935
-0.302
-0.291
-0.2775
-0.287
-0.303
-0.3055
-0.291
-0.3
-0.307
-0.2935
-0.286
-0.2815
-0.2895
-0.281
-0.28
-0.291
-0.2795
-0.267
-0.3
-0.311
-0.284
-0.274
-0.267
-0.2675
-0.2685
-0.287
-0.2825
-0.2775
-0.2815
-0.269
-0.279
-0.274
-0.2745
-0.292
-0.2885
-0.279
-0.279
-0.269
-0.2645
-0.278
-0.2775
-0.273
-0.268
-0.274
-0.28
-0.2795
-0.285
-0.2895
-0.299
-0.2895
-0.2775
-0.2715
-0.273
-0.2785
-0.2725
-0.271
-0.2605
-0.2625
-0.2635
-0.2595
-0.2685
-0.265
-0.269
-0.27
-0.2845
-0.286
-0.2635
-0.2605
-0.267
-0.2635
-0.2525
-0.261
-0.258
-0.2555
-0.2615
-0.251
-0.2435
-0.249
-0.2635
-0.258
-0.235
-0.2405
-0.26
-0.248
-0.2475
-0.26
-0.2535
-0.259
-0.261
-0.255
-0.2585
-0.259
-0.2565
-0.248
-0.2495
-0.258
-0.248
-0.243
-0.237
-0.2385
-0.2585
-0.257
-0.2615
-0.2505
-0.232
-0.2485
-0.2455
-0.246
-0.24
-0.2205
-0.232
-0.251
-0.2535
-0.2395
-0.2375
-0.2385
-0.2215
-0.229
-0.248
-0.257
-0.2665
-0.2515
-0.236
-0.2295
-0.2335
-0.231
-0.214
-0.2145
-0.2195
-0.238
-0.243
-0.2265
-0.2215
-0.2265
-0.2225
-0.223
-0.2325
-0.2315
-0.226
-0.2205
-0.2285
-0.2145
-0.209
-0.222
-0.211
-0.212
-0.22
-0.211
-0.1975
-0.1975
-0.213
-0.218
-0.205
-0.2015
-0.206
-0.2095
-0.2035
-0.1975
-0.1955
-0.1915
-0.196
-0.193
-0.183
-0.1855
-0.1925
-0.1695
-0.1675
-0.1865
-0.177
-0.174
-0.1885
-0.1915
-0.169
-0.169
-0.1775
-0.176
-0.168
-0.148
-0.1475
-0.161
-0.157
-0.154
-0.1625
-0.1665
-0.1565
-0.134
-0.141
-0.154
-0.1545
-0.1365
-0.1305
-0.144
-0.13
-0.1325
-0.139
-0.1235
-0.12
-0.131
-0.121
-0.116
-0.1355
-0.138
-0.1245
-0.119
-0.1125
-0.104
-0.1135
-0.1165
-0.118
-0.114
-0.125
-0.123
-0.102
-0.0965
-0.106
-0.121
-0.107
-0.109
-0.113
-0.1095
-0.104
-0.1025
-0.1115
-0.1185
-0.1165
-0.1095
-0.103
-0.0975
-0.115
-0.1335
-0.1225
-0.1115
-0.1215
-0.128
-0.132
-0.125
-0.1335
-0.1275
-0.1115
-0.1465
-0.1565
-0.153
-0.1565
-0.1475
-0.145
-0.166
-0.184
-0.16
-0.1565
-0.1685
-0.1815
-0.2035
-0.2
-0.199
-0.199
-0.1945
-0.206
-0.212
-0.214
-0.2105
-0.214
-0.2245
-0.2275
-0.2405
-0.2335
-0.2235
-0.232
-0.235
-0.239
-0.247
-0.2635
-0.26
-0.2455
-0.2385
-0.2485
-0.261
-0.2445
-0.2425
-0.255
-0.2585
-0.2575
-0.257
-0.2625
-0.263
-0.264
-0.262
-0.257
-0.271
-0.276
-0.2785
-0.282
-0.272
-0.264
-0.2585
-0.274
-0.2805
-0.2725
-0.2755
-0.273
-0.2615
-0.2645
-0.2705
-0.2675
-0.271
-0.2665
-0.2685
-0.2755
-0.2815
-0.286
-0.2885
-0.3015
-0.285
-0.2735
-0.283
-0.2735
-0.2775
-0.2775
-0.279
-0.2805
-0.266
-0.2715
-0.2685
-0.2815
-0.292
-0.2765
-0.2805
-0.2735
-0.274
-0.291
-0.2825
-0.276
-0.2885
-0.2875
-0.291
-0.292
-0.2845
-0.2945
-0.295
-0.289
-0.2755
-0.264
-0.2805
-0.284
-0.2805
-0.2735
-0.268
-0.277
-0.279
-0.286
-0.2875
-0.282
-0.2775
-0.2875
-0.293
-0.283
-0.2855
-0.28
-0.278
-0.2755
-0.2795
-0.2845
-0.275
-0.2875
-0.2925
-0.2795
-0.2855
-0.284
-0.282
-0.288
-0.2945
-0.293
-0.273
-0.2765
-0.283
-0.2765
-0.287
-0.284
-0.271
-0.2825
-0.282
-0.266
-0.2695
-0.278
-0.271
-0.273
-0.281
-0.275
-0.2795
-0.2785
-0.2715
-0.279
-0.281
-0.2905
-0.29
-0.279
-0.2785
-0.268
-0.2665
-0.278
-0.2865
-0.29
-0.2735
-0.2665
-0.272
-0.278
-0.2735
-0.267
-0.2825
-0.2815
-0.278
-0.2795
-0.282
-0.28
-0.283
-0.2865
-0.287
-0.2765
-0.2595
-0.2815
-0.2875
-0.2725
-0.283
-0.2945
-0.2795
-0.287
-0.297
-0.2845
-0.281
-0.279
-0.279
-0.2815
-0.291
-0.2925
-0.285
-0.281
-0.286
-0.283
-0.279
-0.281
-0.2735
-0.285
-0.289
-0.281
-0.2605
-0.26
-0.289
-0.288
-0.295
-0.2935
-0.2875
-0.291
-0.2925
-0.2765
-0.268
-0.287
-0.29
-0.288
-0.2835
-0.283
-0.2855
-0.2885
-0.28
-0.2705
-0.2715
-0.2755
-0.28
-0.2765
-0.2665
-0.276
-0.2815
-0.2785
-0.2875
-0.28
-0.289
-0.2785
-0.2855
-0.297
-0.27
-0.2725
-0.2645
-0.2825
-0.2805
-0.267
-0.273
-0.266
-0.301
-0.2985
-0.2855
-0.2855
-0.2775
-0.285
-0.282
-0.278
-0.2725
-0.276
-0.2825
-0.2785
-0.271
-0.2715
-0.2765
-0.282
-0.2865
-0.2855
-0.288
-0.2925
-0.2945
-0.2755
-0.269
-0.2835
-0.2705
-0.2695
-0.282
-0.2805
-0.2945
-0.29
-0.271
-0.2795
-0.2915
-0.2825
-0.2815
-0.288
-0.286
-0.279
-0.271
-0.286
-0.2765
-0.274
-0.2955
-0.291
-0.285
-0.264
-0.2655
-0.2815
-0.2715
-0.2695
-0.2815
-0.2865
-0.279
-0.2865
-0.2835
-0.271
-0.2855
-0.281
-0.271
-0.2915
-0.2915
-0.282
-0.2805
-0.2785
-0.2795
-0.276
-0.282
-0.28
-0.276
-0.269
-0.2685
-0.2805
-0.2785
-0.279
-0.2765
-0.2775
-0.2685
-0.26
-0.2755
-0.283
-0.279
-0.2715
-0.2785
-0.2835
-0.2855
-0.2835
-0.27
-0.2715
-0.278
-0.282
-0.276
-0.272
-0.2775
-0.269
-0.263
-0.278
-0.28
-0.2745
-0.2715
-0.26
-0.258
-0.2495
-0.2645
-0.2895
-0.278
-0.275
-0.279
-0.277
-0.289
-0.2815
-0.27
-0.2775
-0.274
-0.271
-0.2695
-0.282
-0.292
-0.281
-0.279
-0.2725
-0.264
-0.2665
-0.2805
-0.2815
-0.2565
-0.2595
-0.269
-0.2635
-0.27
-0.2695
-0.271
-0.2635
-0.251
-0.2555
-0.277
-0.2855
-0.273
-0.2805
-0.27
-0.255
-0.2725
-0.2795
-0.26
-0.254
-0.2625
-0.248
-0.2525
-0.2585
-0.259
-0.2535
-0.2435
-0.257
-0.2485
-0.2475
-0.2475
-0.2465
-0.244
-0.2315
-0.241
-0.244
-0.2365
-0.238
-0.2365
-0.2265
-0.2215
-0.2385
-0.2455
-0.236
-0.244
-0.23
-0.2235
-0.235
-0.227
-0.2165
-0.2055
-0.2115
-0.199
-0.1905
-0.2065
-0.214
-0.223
-0.2265
-0.2275
-0.215
-0.2155
-0.221
-0.218
-0.211
-0.2075
-0.2245
-0.221
-0.211
-0.2175
-0.2275
-0.2245
-0.2175
-0.2165
-0.221
-0.213
-0.205
-0.2045
-0.2055
-0.217
-0.223
-0.2285
-0.219
-0.2165
-0.227
-0.232
-0.2225
-0.2035
-0.2195
-0.223
-0.2005
-0.2225
-0.245
-0.247
-0.2715
-0.2695
-0.25
-0.2575
-0.2725
-0.2745
-0.2595
-0.2625
-0.272
-0.274
-0.277
-0.2705
-0.2775
-0.276
-0.279
-0.285
-0.277
-0.2895
-0.288
-0.2755
-0.275
-0.2695
-0.274
-0.2855
-0.291
-0.28
-0.268
-0.2835
-0.28
-0.2695
-0.2775
-0.283
-0.286
-0.277
-0.2685
-0.273
-0.278
-0.282
-0.286
-0.284
-0.2885
-0.2815
-0.2755
-0.2885
-0.2845
-0.27
-0.279
-0.2825
-0.26
-0.2775
-0.2975
-0.2715
-0.27
-0.2785
-0.2825
-0.3015
-0.301
-0.3095
-0.32
-0.319
-0.335
-0.328
-0.321
-0.322
-0.3085
-0.306
-0.2945
-0.289
-0.2795
-0.2655
-0.2475
-0.2215
-0.1985
-0.182
-0.162
-0.1155
-0.082
-0.0565
-0.0285
-0.022
0.0095
0.0685
0.1035
0.1615
0.216
0.238
0.2745
0.283
0.269
0.2385
0.204
0.1675
0.107
0.086
0.058
0.0265
0.0095
-0.0115
-0.0135
-0.03
-0.051
-0.072
-0.085
-0.091
-0.121
-0.1695
-0.21
-0.246
-0.277
-0.293
-0.292
-0.285
-0.2835
-0.286
-0.278
-0.2645
-0.278
-0.2695
-0.255
-0.267
-0.267
-0.263
-0.26
-0.2625
-0.2705
-0.278
-0.2715
-0.256
-0.2555
-0.2685
-0.282
-0.2755
-0.265
-0.27
-0.27
-0.267
-0.2765
-0.2675
-0.2655
-0.2775
-0.27
-0.2755
-0.2675
-0.266
-0.273
-0.2735
-0.2825
-0.2555
-0.263
-0.2825
-0.2685
-0.271
-0.2715
-0.273
-0.277
-0.2695
-0.263
-0.2665
-0.2655
-0.2575
-0.2565
-0.2665
-0.2695
-0.2775
-0.2765
-0.2745
-0.279
-0.2725
-0.271
-0.266
-0.272
-0.266
-0.2665
-0.274
-0.2665
-0.2535
-0.2505
-0.268
-0.272
-0.275
-0.264
-0.2625
-0.267
-0.267
-0.276
-0.2705
-0.2575
-0.2775
-0.2855
-0.257
-0.269
-0.2605
-0.2405
-0.2465
-0.2525
-0.26
-0.266
-0.263
-0.261
-0.263
-0.2555
-0.2475
-0.249
-0.2625
-0.2615
-0.253
-0.246
-0.2395
-0.247
-0.2525
-0.248
-0.254
-0.2495
-0.2535
-0.2605
-0.25
-0.2505
-0.2515
-0.25
-0.2555
-0.26
-0.2555
-0.248
-0.243
-0.2565
-0.254
-0.247
-0.246
-0.246
-0.2435
-0.251
-0.264
-0.2455
-0.25
-0.253
-0.236
-0.245
-0.2525
-0.249
-0.249
-0.24
-0.2385
-0.2335
-0.2345
-0.2475
-0.247
-0.239
-0.236
-0.2415
-0.242
-0.249
-0.245
-0.226
-0.2245
-0.232
-0.2355
-0.2375
-0.2335
-0.228
-0.2255
-0.224
-0.231
-0.228
-0.2175
-0.224
-0.225
-0.2295
-0.24
-0.2315
-0.2305
-0.235
-0.2175
-0.2105
-0.2255
-0.2255
-0.209
-0.2205
-0.2425
-0.2245
-0.23
-0.232
-0.2165
-0.2175
-0.195
-0.195
-0.2075
-0.211
-0.2065
-0.1975
-0.1945
-0.2
-0.203
-0.194
-0.219
-0.2145
-0.1885
-0.191
-0.188
-0.188
-0.1985
-0.195
-0.189
-0.201
-0.205
-0.1985
-0.1825
-0.1785
-0.185
-0.1855
-0.1775
-0.173
-0.163
-0.165
-0.1765
-0.1685
-0.173
-0.1715
-0.158
-0.1495
-0.1505
-0.1675
-0.157
-0.145
-0.151
-0.147
-0.15
-0.156
-0.1525
-0.1455
-0.1455
-0.1375
-0.143
-0.15
-0.1355
-0.122
-0.13
-0.14
-0.1195
-0.1285
-0.137
-0.1205
-0.1245
-0.1285
-0.125
-0.115
-0.113
-0.116
-0.1125
-0.116
-0.1195
-0.1175
-0.109
-0.1085
-0.109
-0.111
-0.113
-0.108
-0.104
-0.1025
-0.1085
-0.1135
-0.1095
-0.106
-0.1155
-0.1195
-0.1225
-0.127
-0.115
-0.115
-0.1295
-0.129
-0.122
-0.121
-0.1275
-0.134
-0.121
-0.1195
-0.128
-0.125
-0.139
-0.1485
-0.1505
-0.1475
-0.1525
-0.1685
-0.1705
-0.1715
-0.1725
-0.162
-0.179
-0.197
-0.179
-0.17
-0.1745
-0.198
-0.197
-0.1995
-0.204
-0.2
-0.221
-0.237
-0.23
-0.223
-0.228
-0.212
-0.238
-0.2505
-0.243
-0.246
-0.2175
-0.221
-0.2285
-0.224
-0.24
-0.244
-0.253
-0.2525
-0.2315
-0.237
-0.2435
-0.245
-0.248
-0.25
-0.254
-0.2565
-0.265
-0.2655
-0.2545
-0.252
-0.2635
-0.2555
-0.2495
-0.263
-0.264
-0.2655
-0.2675
-0.2665
-0.255
-0.256
-0.266
-0.2565
-0.262
-0.2725
-0.269
-0.2665
-0.276
-0.277
-0.2675
-0.2625
-0.2705
-0.279
-0.2735
-0.277
-0.2785
-0.278
-0.271
-0.262
-0.2705
-0.2645
-0.2595
-0.264
-0.2685
-0.28
-0.2685
-0.2645
-0.271
-0.2745
-0.2765
-0.2745
-0.2835
-0.2815
-0.268
-0.269
-0.273
-0.264
-0.2695
-0.27
-0.27
-0.2735
-0.2675
-0.2715
-0.2655
-0.2685
-0.2795
-0.279
-0.2825
-0.2825
-0.2795
-0.286
-0.274
-0.265
-0.2815
-0.273
-0.2715
-0.264
-0.2625
-0.2815
-0.278
-0.279
-0.278
-0.2815
-0.2745
-0.29
-0.3015
-0.265
-0.266
-0.283
-0.2845
-0.275
-0.268
-0.2695
-0.2675
-0.2745
-0.281
-0.281
-0.2715
-0.27
-0.279
-0.276
-0.269
-0.2715
-0.2765
-0.276
-0.2785
-0.2785
-0.27
-0.2765
-0.282
-0.276
-0.2705
-0.2725
-0.2715
-0.265
-0.272
-0.271
-0.267
-0.2655
-0.27
-0.279
-0.2785
-0.27
-0.262
-0.2665
-0.2705
-0.269
-0.2695
-0.2725
-0.277
-0.273
-0.2685
-0.2675
-0.278
-0.279
-0.2785
-0.274
-0.2585
-0.265
-0.2635
-0.2615
-0.266
-0.273
-0.2845
-0.2825
-0.276
-0.2735
-0.2715
-0.2735
-0.276
-0.2655
-0.272
-0.277
-0.274
-0.2735
-0.2715
-0.281
-0.283
-0.2815
-0.291
-0.286
-0.265
-0.2605
-0.2545
-0.2625
-0.2765
-0.2645
-0.251
-0.2645
-0.281
-0.267
-0.264
-0.268
-0.2675
-0.275
-0.2725
-0.2625
-0.262
-0.2665
-0.272
-0.2715
-0.2665
-0.2655
-0.266
-0.265
-0.2605
-0.2635
-0.275
-0.2695
-0.2685
-0.2755
-0.2745
-0.264
-0.257
-0.2615
-0.259
-0.2705
-0.275
-0.263
-0.269
-0.273
-0.2595
-0.26
-0.2635
-0.257
-0.2625
-0.2705
-0.263
-0.261
-0.27
-0.2635
-0.263
-0.2595
-0.2605
-0.265
-0.2655
-0.269
-0.2615
-0.263
-0.264
-0.265
-0.266
-0.271
-0.276
-0.2735
-0.2775
-0.262
-0.261
-0.265
-0.2715
-0.262
-0.2395
-0.2525
-0.258
-0.259
-0.2695
-0.2685
-0.263
-0.273
-0.263
-0.2655
-0.273
-0.263
-0.274
-0.279
-0.273
-0.265
-0.2735
-0.267
-0.255
-0.2555
-0.2615
-0.269
-0.269
-0.262
-0.228
-0.24
-0.264
-0.2685
-0.2745
-0.2605
-0.264
-0.2725
-0.279
-0.2865
-0.276
-0.2605
-0.266
-0.263
-0.26
-0.265
-0.26
-0.2585
-0.254
-0.271
-0.264
-0.2505
-0.259
-0.2645
-0.2705
-0.265
-0.264
-0.2545
-0.249
-0.26
-0.262
-0.272
-0.283
-0.2675
-0.258
-0.262
-0.2715
-0.2685
-0.259
-0.2525
-0.2455
-0.2605
-0.264
-0.274
-0.2635
-0.2375
-0.2595
-0.2725
-0.2665
-0.265
-0.2635
-0.265
-0.27
-0.2685
-0.2715
-0.2675
-0.2605
-0.2605
-0.2595
-0.2675
-0.268
-0.2545
-0.244
-0.2475
-0.25
-0.258
-0.263
-0.259
-0.2555
-0.2555
-0.2715
-0.2855
-0.27
-0.2665
-0.2845
-0.2715
-0.2605
-0.268
-0.269
-0.271
-0.2715
-0.2725
-0.271
-0.249
-0.2455
-0.2615
-0.2695
-0.267
-0.261
-0.267
-0.266
-0.261
-0.26
-0.2665
-0.2755
-0.2685
-0.2595
-0.265
-0.268
-0.2615
-0.25
-0.245
-0.2505
-0.2505
-0.2505
-0.25
-0.2515
-0.25
-0.236
-0.2295
-0.2385
-0.245
-0.247
-0.244
-0.2495
-0.246
-0.2315
-0.242
-0.2425
-0.234
-0.232
-0.227
-0.2185
-0.2225
-0.221
-0.2195
-0.2305
-0.228
-0.2285
-0.2175
-0.2145
-0.222
-0.209
-0.2075
-0.204
-0.1975
-0.2075
-0.2005
-0.1895
-0.198
-0.2035
-0.204
-0.211
-0.212
-0.207
-0.192
-0.187
-0.196
-0.1945
-0.206
-0.2085
-0.2085
-0.2215
-0.224
-0.2265
-0.2265
-0.23
-0.2265
-0.214
-0.2145
-0.227
-0.2105
-0.1965
-0.214
-0.2075
-0.2075
-0.201
-0.1905
-0.2005
-0.1965
-0.193
-0.201
-0.2105
-0.2135
-0.206
-0.2165
-0.226
-0.239
-0.2605
-0.2565
-0.2595
-0.262
-0.252
-0.2525
-0.2695
-0.27
-0.257
-0.2535
-0.252
-0.2495
-0.2525
-0.2665
-0.2705
-0.2685
-0.2715
-0.276
-0.283
-0.2785
-0.2735
-0.28
-0.2815
-0.278
-0.2705
-0.266
-0.2735
-0.28
-0.281
-0.2765
-0.2745
-0.279
-0.264
-0.26
-0.276
-0.266
-0.2645
-0.2725
-0.267
-0.2745
-0.278
-0.2755
-0.277
-0.2735
-0.266
-0.281
-0.2895
-0.276
-0.278
-0.275
-0.27
-0.255
-0.2605
-0.2775
-0.277
-0.2875
-0.3005
-0.3135
-0.3175
-0.3185
-0.3205
-0.3265
-0.3305
-0.328
-0.3145
-0.3075
-0.301
-0.2765
-0.2665
-0.266
-0.2495
-0.22
-0.197
-0.1915
-0.1525
-0.102
-0.0845
-0.06
-0.0355
-0.0235
0.0085
0.061
0.093
0.1285
0.1955
0.255
0.299
0.314
0.2975
0.267
0.2175
0.1845
0.1575
0.1155
0.0785
0.04
0.0145
0.005
-0.019
-0.0315
-0.0385
-0.0665
-0.081
-0.0925
-0.1215
-0.1475
-0.1745
-0.2295
-0.2735
-0.2865
-0.277
-0.2635
-0.2795
-0.288
-0.2775
-0.2665
-0.269
-0.27
-0.264
-0.268
-0.2725
-0.2645
-0.26
-0.275
-0.2595
-0.2485
-0.264
-0.2655
-0.2655
-0.2615
-0.2625
-0.265
-0.2575
-0.262
-0.262
-0.276
-0.29
-0.277
-0.2795
-0.279
-0.275
-0.2725
-0.266
-0.269
-0.277
-0.275
-0.272
-0.275
-0.284
-0.27
-0.251
-0.264
-0.2755
-0.2675
-0.263
-0.266
-0.2585
-0.2565
-0.265
-0.2745
-0.263
-0.253
-0.2585
-0.27
-0.2715
-0.2605
-0.2685
-0.2665
-0.2615
-0.279
-0.2805
-0.2745
-0.268
-0.2625
-0.261
-0.256
-0.266
-0.2705
-0.2665
-0.2675
-0.2605
-0.259
-0.2585
-0.2505
-0.249
-0.2545
-0.2625
-0.26
-0.2635
-0.262
-0.2455
-0.252
-0.25
-0.248
-0.2535
-0.243
-0.251
-0.245
-0.2355
-0.238
-0.2385
-0.248
-0.2575
-0.262
-0.255
-0.257
-0.257
-0.2565
-0.2555
-0.252
-0.2435
-0.2375
-0.238
-0.2335
-0.239
-0.239
-0.2395
-0.2385
-0.2335
-0.224
-0.228
-0.233
-0.228
-0.2425
-0.2495
-0.237
-0.2395
-0.2425
-0.224
-0.2445
-0.252
-0.229
-0.223
-0.2335
-0.24
-0.2315
-0.2415
-0.2415
-0.226
-0.216
-0.228
-0.243
-0.22
-0.22
-0.233
-0.2165
-0.222
-0.2265
-0.2175
-0.218
-0.218
-0.2195
-0.2235
-0.2245
-0.21
-0.2085
-0.218
-0.216
-0.2145
-0.217
-0.214
-0.2115
-0.209
-0.2045
-0.206
-0.2085
-0.2035
-0.208
-0.218
-0.2145
-0.2115
-0.2045
-0.2085
-0.2095
-0.2095
-0.208
-0.1945
-0.195
-0.1905
-0.2025
-0.203
-0.195
-0.1985
-0.1895
-0.192
-0.191
-0.1885
-0.1975
-0.2
-0.1875
-0.1835
-0.189
-0.1865
-0.185
-0.1835
-0.1815
-0.1865
-0.1815
-0.178
-0.1795
-0.174
-0.1695
-0.1635
-0.1655
-0.172
-0.178
-0.1685
-0.158
-0.1645
-0.156
-0.149
-0.153
-0.155
-0.157
-0.147
-0.1405
-0.145
-0.1525
-0.154
-0.136
-0.129
-0.1355
-0.125
-0.1265
-0.1285
-0.1315
-0.138
-0.137
-0.1325
-0.109
-0.113
-0.1225
-0.1135
-0.1055
-0.1035
-0.11
-0.105
-0.1025
-0.1
-0.107
-0.112
-0.094
-0.0945
-0.0955
-0.0845
-0.0945
-0.103
-0.1025
-0.0965
-0.091
-0.093
-0.099
-0.097
-0.088
-0.0855
-0.0865
-0.083
-0.0845
-0.094
-0.093
-0.0875
-0.09
-0.097
-0.1
-0.092
-0.078
-0.0815
-0.0935
-0.092
-0.092
-0.1025
-0.0995
-0.093
-0.0995
-0.1045
-0.1085
-0.114
-0.1175
-0.115
-0.125
-0.1305
-0.125
-0.14
-0.1405
-0.124
-0.125
-0.1325
-0.131
-0.1455
-0.1575
-0.159
-0.1595
-0.1545
-0.1685
-0.172
-0.171
-0.1835
-0.1775
-0.171
-0.181
-0.1865
-0.1895
-0.195
-0.2015
-0.2095
-0.1995
-0.1925
-0.1875
-0.1815
-0.1985
-0.218
-0.2255
-0.231
-0.2305
-0.228
-0.222
-0.2155
-0.2185
-0.221
-0.2255
-0.2285
-0.229
-0.228
-0.23
-0.23
-0.2315
-0.2335
-0.2355
-0.24
-0.241
-0.242
-0.244
-0.2445
-0.249
-0.249
-0.242
-0.246
-0.2435
-0.2415
-0.246
-0.245
-0.246
-0.241
-0.2415
-0.248
-0.235
-0.2385
-0.2515
-0.251
-0.243
-0.236
-0.2545
-0.2525
-0.247
-0.252
-0.2485
-0.2535
-0.2495
-0.246
-0.2495
-0.2525
-0.2515
-0.253
-0.2565
-0.245
-0.2385
-0.2565
-0.254
-0.246
-0.256
-0.2665
-0.264
-0.2465
-0.236
-0.242
-0.2605
-0.2615
-0.2585
-0.262
-0.259
-0.2525
-0.2615
-0.266
-0.2575
-0.2505
-0.24
-0.2465
-0.2595
-0.2545
-0.2485
-0.2455
-0.2645
-0.279
-0.255
-0.2565
-0.2635
-0.252
-0.256
-0.2635
-0.265
-0.2625
-0.261
-0.255
-0.252
-0.2505
-0.2535
-0.2565
-0.2515
-0.253
-0.2615
-0.26
-0.25
-0.2375
-0.2455
-0.2665
-0.2665
-0.2665
-0.263
-0.269
-0.262
-0.25
-0.2685
-0.271
-0.2615
-0.249
-0.2435
-0.245
-0.248
-0.253
-0.248
-0.246
-0.2505
-0.2475
-0.252
-0.259
-0.2505
-0.2495
-0.2515
-0.258
-0.252
-0.248
-0.2605
-0.2575
-0.255
-0.251
-0.246
-0.248
-0.256
-0.25
-0.252
-0.259
-0.2505
-0.252
-0.2535
-0.2515
-0.258
-0.2635
-0.256
-0.2515
-0.2455
-0.2565
-0.261
-0.2465
-0.2505
-0.2525
-0.2495
-0.2455
-0.246
-0.2555
-0.2555
-0.2485
-0.2545
-0.258
-0.2515
-0.2535
-0.261
-0.2625
-0.251
-0.2455
-0.2585
-0.2615
-0.25
-0.258
-0.261
-0.2525
-0.243
-0.235
-0.2455
-0.2515
-0.255
-0.2605
-0.2535
-0.254
-0.251
-0.2595
-0.261
-0.243
-0.2345
-0.2315
-0.2645
-0.272
-0.259
-0.265
-0.256
-0.251
-0.2545
-0.249
-0.2515
-0.2525
-0.2495
-0.2635
-0.261
-0.2605
-0.2575
-0.2505
-0.2475
-0.2325
-0.2395
-0.247
-0.25
-0.2555
-0.258
-0.2595
-0.258
-0.2535
-0.2495
-0.262
-0.2555
-0.248
-0.256
-0.254
-0.2495
-0.25
-0.2505
-0.2445
-0.257
-0.258
-0.247
-0.245
-0.243
-0.252
-0.2535
-0.253
-0.251
-0.244
-0.243
-0.2525
-0.25
-0.2375
-0.24
-0.239
-0.2415
-0.2455
-0.248
-0.248
-0.242
-0.244
-0.2435
-0.243
-0.245
-0.2455
-0.242
-0.2425
-0.2395
-0.236
-0.2465
-0.248
-0.247
-0.247
-0.246
-0.247
-0.2405
-0.2355
-0.2285
-0.236
-0.2505
-0.253
-0.2525
-0.237
-0.2415
-0.2575
-0.2555
-0.243
-0.236
-0.246
-0.242
-0.2415
-0.244
-0.2455
-0.2435
-0.2395
-0.2485
-0.246
-0.2435
-0.244
-0.2405
-0.2395
-0.238
-0.235
-0.2395
-0.25
-0.2465
-0.2375
-0.2335
-0.2405
-0.2425
-0.2415
-0.242
-0.2415
-0.244
-0.242
-0.2395
-0.243
-0.246
-0.2305
-0.2425
-0.2475
-0.2345
-0.2475
-0.254
-0.257
-0.2465
-0.247
-0.2495
-0.2405
-0.241
-0.24
-0.241
-0.2365
-0.243
-0.248
-0.247
-0.2495
-0.247
-0.248
-0.2495
-0.2485
-0.2425
-0.238
-0.24
-0.232
-0.2335
-0.246
-0.2465
-0.251
-0.25
-0.239
-0.245
-0.2505
-0.2495
-0.2465
-0.234
-0.2325
-0.244
-0.2475
-0.2425
-0.25
-0.256
-0.246
-0.238
-0.2425
-0.2465
-0.24
-0.2425
-0.246
-0.2385
-0.232
-0.231
-0.2295
-0.2355
-0.2455
-0.2435
-0.243
-0.2435
-0.24
-0.237
-0.2325
-0.234
-0.2365
-0.2295
-0.226
-0.222
-0.2255
-0.227
-0.223
-0.2275
-0.2265
-0.2205
-0.217
-0.223
-0.2305
-0.229
-0.2205
-0.221
-0.2255
-0.2235
-0.2195
-0.209
-0.2115
-0.2045
-0.193
-0.202
-0.206
-0.2
-0.2055
-0.2025
-0.188
-0.201
-0.205
-0.1945
-0.185
-0.184
-0.1805
-0.179
-0.177
-0.164
-0.173
-0.1775
-0.188
-0.19
-0.183
-0.1965
-0.1825
-0.1695
-0.178
-0.175
-0.173
-0.178
-0.186
-0.1905
-0.185
-0.182
-0.1875
-0.1885
-0.1935
-0.197
-0.1955
-0.1875
-0.1835
-0.1815
-0.1725
-0.1765
-0.185
-0.177
-0.166
-0.1815
-0.185
-0.175
-0.176
-0.1805
-0.19
-0.194
-0.1935
-0.1945
-0.196
-0.2095
-0.224
-0.2275
-0.2375
-0.2355
-0.2315
-0.242
-0.2415
-0.241
-0.244
-0.2445
-0.2515
-0.2475
-0.242
-0.2435
-0.2395
-0.24
-0.245
-0.2435
-0.243
-0.2495
-0.245
-0.237
-0.2395
-0.253
-0.2545
-0.2545
-0.2595
-0.2465
-0.2455
-0.2495
-0.2545
-0.2535
-0.2395
-0.2375
-0.2415
-0.248
-0.2465
-0.2485
-0.256
-0.2495
-0.2445
-0.242
-0.242
-0.2485
-0.2575
-0.263
-0.252
-0.2435
-0.247
-0.2425
-0.2385
-0.238
-0.246
-0.2665
-0.268
-0.268
-0.278
-0.2835
-0.292
-0.299
-0.3055
-0.2965
-0.298
-0.302
-0.2935
-0.288
-0.273
-0.253
-0.2425
-0.244
-0.2185
-0.1905
-0.167
-0.1495
-0.125
-0.074
-0.0445
-0.017
0.007
0.023
0.056
0.1025
0.1445
0.1925
0.252
0.293
0.3315
0.372
0.3635
0.3235
0.2815
0.241
0.208
0.1655
0.1255
0.0855
0.058
0.0425
0.023
0.012
-0.005
-0.028
-0.0475
-0.0685
-0.0875
-0.115
-0.158
-0.202
-0.2285
-0.2455
-0.2565
-0.2575
-0.248
-0.234
-0.234
-0.2345
-0.2355
-0.2335
-0.24
-0.2495
-0.2415
-0.2315
-0.225
-0.2325
-0.2355
-0.2315
-0.233
-0.235
-0.2325
-0.241
-0.2555
-0.248
-0.243
-0.245
-0.245
-0.2455
-0.2505
-0.251
-0.2455
-0.2515
-0.258
-0.256
-0.252
-0.254
-0.2535
-0.2485
-0.247
-0.2475
-0.2475
-0.249
-0.253
-0.253
-0.251
-0.247
-0.242
-0.243
-0.2405
-0.2375
-0.2375
-0.2435
-0.254
-0.252
-0.2495
-0.2485
-0.2505
-0.254
-0.248
-0.2435
-0.248
-0.2515
-0.2465
-0.241
-0.2405
-0.2435
-0.2385
-0.2345
-0.233
-0.241
-0.2445
-0.2445
-0.2495
-0.2405
-0.2415
-0.2385
-0.2375
-0.2525
-0.2505
-0.2395
-0.2335
-0.2325
-0.234
-0.2335
-0.244
-0.2375
-0.224
-0.235
-0.242
-0.238
-0.238
-0.238
-0.2295
-0.232
-0.224
-0.2225
-0.232
-0.229
-0.2385
-0.237
-0.232
-0.2335
-0.241
-0.2375
-0.2245
-0.2215
-0.228
-0.235
-0.221
-0.223
-0.228
-0.2285
-0.235
-0.224
-0.221
-0.2225
-0.2225
-0.2195
-0.223
-0.232
-0.2275
-0.2255
-0.224
-0.218
-0.2185
-0.221
-0.217
-0.2175
-0.2215
-0.217
-0.21
-0.216
-0.227
-0.2225
-0.214
-0.223
-0.2255
-0.2205
-0.22
-0.214
-0.2165
-0.2105
-0.213
-0.217
-0.214
-0.22
-0.2165
-0.217
-0.2065
-0.1995
-0.205
-0.2
-0.2005
-0.2075
-0.2085
-0.209
-0.2015
-0.194
-0.1995
-0.1895
-0.1985
-0.2125
-0.203
-0.2075
-0.21
-0.206
-0.196
-0.196
-0.201
-0.196
-0.1945
-0.191
-0.1895
-0.1825
-0.1875
-0.1855
-0.1715
-0.176
-0.1825
-0.1835
-0.1805
-0.176
-0.1745
-0.175
-0.1705
-0.172
-0.17
-0.1655
-0.1585
-0.1645
-0.1785
-0.17
-0.1685
-0.1605
-0.1505
-0.152
-0.151
-0.145
-0.1425
-0.143
-0.144
-0.149
-0.1485
-0.149
-0.1425
-0.136
-0.139
-0.143
-0.1395
-0.1295
-0.1305
-0.1315
-0.1345
-0.131
-0.1215
-0.114
-0.1115
-0.1155
-0.111
-0.116
-0.111
-0.1045
-0.1075
-0.105
-0.103
-0.095
-0.1015
-0.099
-0.088
-0.086
-0.0845
-0.087
-0.089
-0.0905
-0.089
-0.0835
-0.0785
-0.076
-0.079
-0.0815
-0.077
-0.0805
-0.0775
-0.071
-0.0765
-0.075
-0.0715
-0.0715
-0.074
-0.0795
-0.0815
-0.0775
-0.071
-0.081
-0.0815
-0.0655
-0.065
-0.08
-0.078
-0.068
-0.0745
-0.077
-0.07
-0.0825
-0.09
-0.0815
-0.0915
-0.0875
-0.0845
-0.0995
-0.0935
-0.0945
-0.116
-0.1135
-0.0995
-0.1095
-0.1225
-0.127
-0.129
-0.123
-0.1275
-0.136
-0.154
-0.155
-0.1425
-0.1485
-0.1495
-0.1525
-0.1485
-0.1525
-0.1625
-0.171
-0.1795
-0.173
-0.1695
-0.174
-0.1775
-0.1795
-0.174
-0.1755
-0.18
-0.1915
-0.1995
-0.1945
-0.201
-0.197
-0.195
-0.1995
-0.204
-0.2115
-0.217
-0.221
-0.214
-0.2075
-0.2125
-0.217
-0.216
-0.2155
-0.215
-0.214
-0.2095
-0.2105
-0.226
-0.236
-0.2315
-0.224
-0.2215
-0.226
-0.231
-0.2345
-0.2375
-0.238
-0.2365
-0.228
-0.227
-0.232
-0.232
-0.2315
-0.225
-0.231
-0.237
-0.2315
-0.2265
-0.227
-0.231
-0.2285
-0.2365
-0.241
-0.2355
-0.2395
-0.2375
-0.2335
-0.2345
-0.2355
-0.2415
-0.242
-0.2395
-0.236
-0.2315
-0.232
-0.236
-0.244
-0.241
-0.238
-0.2335
-0.2255
-0.2315
-0.235
-0.2335
-0.2375
-0.246
-0.2575
-0.2475
-0.238
-0.24
-0.232
-0.234
-0.2365
-0.2405
-0.239
-0.233
-0.24
-0.2445
-0.244
-0.2405
-0.242
-0.2435
-0.233
-0.235
-0.2465
-0.253
-0.2535
-0.2455
-0.2415
-0.247
-0.249
-0.2445
-0.2485
-0.2515
-0.249
-0.25
-0.248
-0.25
-0.256
-0.251
-0.2445
-0.2475
-0.246
-0.239
-0.236
-0.2355
-0.2445
-0.257
-0.2585
-0.25
-0.251
-0.249
-0.245
-0.2535
-0.25
-0.249
-0.252
-0.25
-0.248
-0.2455
-0.2495
-0.244
-0.2495
-0.254
-0.243
-0.2525
-0.254
-0.2555
-0.2545
-0.2445
-0.2615
-0.2595
-0.2495
-0.2545
-0.259
-0.26
-0.247
-0.248
-0.251
-0.2495
-0.2525
-0.2355
-0.227
-0.2385
-0.2465
-0.254
-0.2625
-0.257
-0.2495
-0.262
-0.261
-0.258
-0.267
-0.249
-0.24
-0.2495
-0.2465
-0.246
-0.247
-0.246
-0.2485
-0.246
-0.2345
-0.2395
-0.249
-0.2465
-0.252
-0.25
-0.241
-0.2415
-0.249
-0.2565
-0.255
-0.2505
-0.249
-0.2475
-0.25
-0.253
-0.2515
-0.2555
-0.254
-0.2555
-0.257
-0.237
-0.2315
-0.238
-0.2465
-0.25
-0.245
-0.249
-0.2455
-0.2435
-0.2465
-0.243
-0.239
-0.247
-0.252
-0.245
-0.248
-0.2485
-0.246
-0.248
-0.2475
-0.248
-0.2505
-0.247
-0.243
-0.2505
-0.2505
-0.2485
-0.243
-0.24
-0.24
-0.2435
-0.2535
-0.253
-0.245
-0.2405
-0.252
-0.253
-0.2445
-0.247
-0.2485
-0.25
-0.2505
-0.2505
-0.2495
-0.249
-0.244
-0.24
-0.2455
-0.251
-0.253
-0.2495
-0.249
-0.247
-0.246
-0.2515
-0.2475
-0.2445
-0.257
-0.268
-0.255
-0.245
-0.248
-0.25
-0.2515
-0.2445
-0.241
-0.2415
-0.241
-0.247
-0.244
-0.2435
-0.25
-0.244
-0.248
-0.266
-0.257
