ECG
-0.0045
-0.004
-0.001
-0.001
-0.003
-0.0015
0.0035
0.0055
0.013
0.018
0.016
0.0155
0.016
0.018
0.019
0.015
0.013
0.018
0.0215
0.0255
0.028
0.023
0.0235
0.0255
0.0225
0.024
0.0245
0.0245
0.0255
0.0215
0.027
0.028
0.0275
0.035
0.0275
0.0235
0.024
0.0235
0.0275
0.0295
0.0355
0.037
0.0295
0.027
0.0295
0.0345
0.0375
0.0425
0.0455
0.0425
0.044
0.043
0.032
0.022
0.017
0.0135
0.015
0.0235
0.0275
0.0245
0.021
0.017
0.01
0.001
-0.0035
-0.0045
-0.0055
-0.01
-0.0185
-0.026
-0.0295
-0.035
-0.0455
-0.0475
-0.048
-0.0515
-0.055
-0.054
-0.052
-0.0575
-0.0585
-0.06
-0.062
-0.062
-0.0615
-0.062
-0.06
-0.0615
-0.0655
-0.0645
-0.0685
-0.0635
-0.0725
-0.0775
-0.069
-0.0725
-0.0705
-0.068
-0.0655
-0.0655
-0.0645
-0.06
-0.062
-0.0625
-0.061
-0.056
-0.054
-0.0635
-0.0645
-0.059
-0.058
-0.055
-0.0565
-0.061
-0.0575
-0.058
-0.0575
-0.0575
-0.061
-0.059
-0.057
-0.053
-0.0525
-0.054
-0.0565
-0.0585
-0.056
-0.0575
-0.053
-0.051
-0.052
-0.054
-0.0555
-0.0495
-0.05
-0.052
-0.0515
-0.045
-0.043
-0.0545
-0.0595
-0.0515
-0.0385
-0.0345
-0.038
-0.0415
-0.047
-0.0545
-0.061
-0.0715
-0.081
-0.0795
-0.0815
-0.0795
-0.082
-0.0865
-0.0825
-0.0945
-0.0995
-0.0915
-0.079
-0.06
-0.0405
-0.009
0.029
0.0675
0.1135
0.158
0.1965
0.239
0.2885
0.336
0.387
0.432
0.462
0.492
0.5155
0.5395
0.5755
0.5735
0.53
0.492
0.4755
0.4655
0.4605
0.47
0.451
0.4045
0.363
0.338
0.3085
0.256
0.2175
0.169
0.1125
0.067
0.026
0.0005
-0.0225
-0.0525
-0.088
-0.1075
-0.107
-0.098
-0.0955
-0.0935
-0.0845
-0.0835
-0.0875
-0.09
-0.0855
-0.076
-0.066
-0.0655
-0.074
-0.0755
-0.073
-0.0725
-0.072
-0.0685
-0.0695
-0.0725
-0.0725
-0.0715
-0.069
-0.0725
-0.069
-0.0665
-0.0695
-0.063
-0.0655
-0.0725
-0.073
-0.0695
-0.0665
-0.0695
-0.069
-0.0655
-0.066
-0.0665
-0.0655
-0.063
-0.062
-0.0645
-0.07
-0.0735
-0.068
-0.0665
-0.066
-0.0635
-0.0645
-0.0665
-0.067
-0.064
-0.064
-0.0605
-0.0595
-0.062
-0.063
-0.0665
-0.069
-0.067
-0.0715
-0.075
-0.067
-0.0645
-0.065
-0.067
-0.063
-0.0585
-0.0635
-0.066
-0.065
-0.0665
-0.068
-0.0675
-0.0705
-0.0695
-0.072
-0.069
-0.0695
-0.064
-0.056
-0.068
-0.0715
-0.0735
-0.0685
-0.0685
-0.07
-0.065
-0.066
-0.0645
-0.061
-0.061
-0.069
-0.0685
-0.072
-0.078
-0.0725
-0.074
-0.076
-0.078
-0.0795
-0.083
-0.0785
-0.072
-0.076
-0.0755
-0.0755
-0.0755
-0.0715
-0.0695
-0.066
-0.0665
-0.0735
-0.075
-0.078
-0.076
-0.0705
-0.0695
-0.0705
-0.0765
-0.082
-0.0815
-0.0765
-0.075
-0.0755
-0.0755
-0.076
-0.0745
-0.072
-0.069
-0.0675
-0.066
-0.065
-0.066
-0.0685
-0.0685
-0.0665
-0.066
-0.0655
-0.0665
-0.0685
-0.061
-0.056
-0.064
-0.0715
-0.073
-0.0755
-0.0735
-0.0685
-0.068
-0.071
-0.071
-0.0685
-0.0665
-0.069
-0.0735
-0.062
-0.056
-0.0565
-0.0555
-0.057
-0.0565
-0.0605
-0.062
-0.0675
-0.07
-0.0705
-0.069
-0.0685
-0.0695
-0.0595
-0.059
-0.0675
-0.0715
-0.0675
-0.066
-0.0685
-0.0695
-0.0665
-0.0625
-0.0615
-0.06
-0.0615
-0.058
-0.055
-0.057
-0.0585
-0.0585
-0.06
-0.063
-0.06
-0.057
-0.059
-0.0565
-0.0585
-0.0625
-0.059
-0.0565
-0.059
-0.0575
-0.0555
-0.061
-0.066
-0.069
-0.068
-0.0635
-0.063
-0.06
-0.0605
-0.069
-0.0725
-0.072
-0.0685
-0.065
-0.064
-0.0655
-0.063
-0.0565
-0.0585
-0.0635
-0.067
-0.066
-0.0605
-0.069
-0.0755
-0.077
-0.075
-0.068
-0.074
-0.075
-0.072
-0.072
-0.0705
-0.0665
-0.067
-0.0735
-0.072
-0.0745
-0.0795
-0.0815
-0.082
-0.073
-0.069
-0.0755
-0.077
-0.0755
-0.0725
-0.072
-0.0745
-0.077
-0.0815
-0.08
-0.0775
-0.0795
-0.0775
-0.0755
-0.076
-0.0755
-0.0695
-0.0685
-0.069
-0.066
-0.0655
-0.0655
-0.066
-0.0655
-0.0695
-0.072
-0.07
-0.067
-0.0645
-0.0645
-0.062
-0.0585
-0.0555
-0.058
-0.058
-0.0555
-0.0525
-0.049
-0.0565
-0.0685
-0.066
-0.056
-0.051
-0.0505
-0.0515
-0.0525
-0.051
-0.048
-0.0505
-0.0465
-0.0435
-0.051
-0.053
-0.0475
-0.0445
-0.046
-0.0415
-0.042
-0.0475
-0.0465
-0.048
-0.049
-0.0465
-0.0445
-0.0475
-0.053
-0.0515
-0.046
-0.045
-0.045
-0.044
-0.0475
-0.0525
-0.0515
-0.048
-0.048
-0.046
-0.0465
-0.047
-0.045
-0.0445
-0.047
-0.0435
-0.043
-0.056
-0.056
-0.0515
-0.0505
-0.0465
-0.0455
-0.0425
-0.0425
-0.0475
-0.0445
-0.0395
-0.0375
-0.0395
-0.048
-0.049
-0.05
-0.054
-0.048
-0.045
-0.0455
-0.0405
-0.0365
-0.0395
-0.039
-0.0405
-0.0435
-0.044
-0.042
-0.0395
-0.043
-0.0405
-0.038
-0.044
-0.0515
-0.0485
-0.0475
-0.042
-0.0405
-0.045
-0.042
-0.048
-0.0455
-0.0425
-0.047
-0.046
-0.045
-0.0465
-0.0525
-0.0555
-0.0515
-0.0525
-0.0575
-0.0555
-0.0485
-0.0465
-0.054
-0.0545
-0.051
-0.052
-0.052
-0.051
-0.0495
-0.0505
-0.05
-0.0485
-0.0485
-0.048
-0.0475
-0.044
-0.044
-0.05
-0.047
-0.042
-0.0415
-0.046
-0.052
-0.053
-0.052
-0.0495
-0.051
-0.0515
-0.0585
-0.062
-0.049
-0.046
-0.052
-0.0545
-0.051
-0.0475
-0.052
-0.05
-0.045
-0.0455
-0.048
-0.051
-0.046
-0.045
-0.044
-0.0455
-0.0485
-0.037
-0.0355
-0.0445
-0.042
-0.036
-0.037
-0.037
-0.0345
-0.04
-0.0445
-0.048
-0.0615
-0.0645
-0.058
-0.057
-0.0535
-0.0495
-0.0475
-0.0465
-0.047
-0.0505
-0.0525
-0.048
-0.044
-0.0505
-0.0545
-0.058
-0.0605
-0.0595
-0.056
-0.0495
-0.055
-0.0615
-0.0605
-0.0615
-0.0605
-0.056
-0.0585
-0.0565
-0.0555
-0.0615
-0.06
-0.0585
-0.0625
-0.061
-0.0585
-0.0565
-0.0555
-0.059
-0.0575
-0.0555
-0.0575
-0.057
-0.0575
-0.058
-0.0545
-0.055
-0.0635
-0.07
-0.069
-0.069
-0.061
-0.056
-0.0635
-0.0645
-0.063
-0.0615
-0.0655
-0.07
-0.0655
-0.0615
-0.0665
-0.0685
-0.063
-0.0635
-0.062
-0.0675
-0.0715
-0.0685
-0.0705
-0.0695
-0.069
-0.0695
-0.069
-0.0695
-0.0695
-0.069
-0.0665
-0.0665
-0.0665
-0.0645
-0.0655
-0.069
-0.07
-0.0685
-0.067
-0.0635
-0.0605
-0.06
-0.062
-0.059
-0.056
-0.064
-0.0665
-0.065
-0.0655
-0.0605
-0.0585
-0.059
-0.0615
-0.0605
-0.0605
-0.07
-0.071
-0.067
-0.0665
-0.0655
-0.068
-0.07
-0.0685
-0.066
-0.0645
-0.063
-0.065
-0.0615
-0.059
-0.0625
-0.062
-0.062
-0.0635
-0.065
-0.0615
-0.0595
-0.0565
-0.0545
-0.0575
-0.0585
-0.059
-0.059
-0.0595
-0.0565
-0.0555
-0.0565
-0.0595
-0.0655
-0.0635
-0.059
-0.0555
-0.0525
-0.054
-0.062
-0.064
-0.058
-0.061
-0.062
-0.0585
-0.0595
-0.0595
-0.0565
-0.0575
-0.056
-0.055
-0.0565
-0.057
-0.0555
-0.055
-0.061
-0.0615
-0.0585
-0.058
-0.055
-0.0515
-0.048
-0.0535
-0.0555
-0.051
-0.048
-0.046
-0.0495
-0.0515
-0.0525
-0.059
-0.0635
-0.056
-0.053
-0.0555
-0.055
-0.0555
-0.051
-0.0475
-0.0485
-0.0475
-0.0385
-0.04
-0.05
-0.047
-0.0465
-0.049
-0.0415
-0.038
-0.041
-0.0485
-0.0505
-0.044
-0.0445
-0.0465
-0.043
-0.043
-0.0455
-0.0465
-0.0435
-0.0405
-0.0425
-0.04
-0.039
-0.041
-0.039
-0.0395
-0.0345
-0.0335
-0.0345
-0.0355
-0.0465
-0.045
-0.038
-0.0315
-0.0305
-0.0435
-0.0465
-0.0455
-0.0465
-0.047
-0.047
-0.0445
-0.0405
-0.0355
-0.035
-0.039
-0.044
-0.042
-0.0395
-0.0415
-0.0415
-0.0435
-0.0395
-0.0395
-0.043
-0.042
-0.0435
-0.0485
-0.0475
-0.043
-0.043
-0.0455
-0.0445
-0.044
-0.0455
-0.044
-0.043
-0.0435
-0.0425
-0.0415
-0.0485
-0.05
-0.0475
-0.0465
-0.046
-0.0525
-0.049
-0.042
-0.044
-0.045
-0.045
-0.0415
-0.0375
-0.042
-0.0395
-0.0425
-0.047
-0.0445
-0.0485
-0.045
-0.044
-0.0445
-0.037
-0.039
-0.043
-0.042
-0.0415
-0.044
-0.0435
-0.043
-0.0455
-0.0445
-0.0385
-0.036
-0.037
-0.043
-0.0475
-0.045
-0.0445
-0.043
-0.0415
-0.04
-0.04
-0.0415
-0.0415
-0.0425
-0.0415
-0.0415
-0.042
-0.038
-0.043
-0.043
-0.0365
-0.0345
-0.033
-0.0365
-0.0405
-0.0425
-0.035
-0.039
-0.0455
-0.0415
-0.0385
-0.035
-0.0335
-0.0305
-0.028
-0.03
-0.0315
-0.0295
-0.03
-0.034
-0.0375
-0.039
-0.0405
-0.039
-0.038
-0.0405
-0.0455
-0.0495
-0.0455
-0.0445
-0.041
-0.041
-0.046
-0.0415
-0.035
-0.0355
-0.038
-0.0375
-0.0355
-0.0345
-0.0345
-0.036
-0.0405
-0.0405
-0.036
-0.0355
-0.0355
-0.0305
-0.034
-0.037
-0.035
-0.0345
-0.038
-0.0445
-0.0425
-0.0405
-0.0405
-0.033
-0.036
-0.0345
-0.026
-0.037
-0.039
-0.0345
-0.033
-0.0365
-0.038
-0.0355
-0.0375
-0.034
-0.034
-0.036
-0.0375
-0.038
-0.0385
-0.036
-0.034
-0.0315
-0.0285
-0.028
-0.0255
-0.0275
-0.0245
-0.0275
-0.034
-0.033
-0.037
-0.038
-0.0425
-0.043
-0.039
-0.036
-0.032
-0.0385
-0.042
-0.039
-0.034
-0.031
-0.0335
-0.037
-0.0375
-0.0385
-0.036
-0.0325
-0.036
-0.0345
-0.032
-0.036
-0.0385
-0.0365
-0.0335
-0.034
-0.032
-0.0295
-0.032
-0.0335
-0.0295
-0.0295
-0.0375
-0.042
-0.038
-0.035
-0.037
-0.0385
-0.0415
-0.0385
-0.0385
-0.044
-0.045
-0.0435
-0.0395
-0.0375
-0.041
-0.0445
-0.046
-0.0435
-0.0425
-0.0435
-0.04
-0.0385
-0.04
-0.0425
-0.0425
-0.0405
-0.0355
-0.037
-0.043
-0.0405
-0.0375
-0.035
-0.039
-0.042
-0.038
-0.0445
-0.048
-0.0405
-0.038
-0.033
-0.036
-0.0425
-0.04
-0.0445
-0.047
-0.043
-0.0435
-0.0455
-0.042
-0.042
-0.045
-0.0425
-0.0405
-0.0405
-0.0415
-0.039
-0.0395
-0.0395
-0.037
-0.038
-0.0375
-0.0335
-0.0315
-0.0375
-0.039
-0.0375
-0.0355
-0.034
-0.035
-0.0355
-0.035
-0.034
-0.033
-0.0315
-0.0325
-0.0355
-0.036
-0.032
-0.037
-0.04
-0.037
-0.0335
-0.029
-0.033
-0.034
-0.034
-0.0355
-0.032
-0.033
-0.035
-0.031
-0.031
-0.027
-0.0205
-0.021
-0.0195
-0.014
-0.0195
-0.0275
-0.0225
-0.018
-0.0175
-0.0165
-0.0145
-0.0125
-0.005
-0.0005
-0.0005
0.001
0.0075
0.0085
0.0085
0.0135
0.014
0.015
0.017
0.02
0.02
0.0215
0.024
0.031
0.0375
0.025
0.0215
0.0255
0.0265
0.0315
0.0375
0.0405
0.0365
0.0435
0.049
0.042
0.036
0.039
0.038
0.0305
0.0285
0.0235
0.0195
0.0245
0.03
0.0295
0.03
0.0335
0.0365
0.034
0.0305
0.0305
0.031
0.036
0.041
0.0445
0.0425
0.0395
0.0465
0.0525
0.049
0.047
0.0435
0.039
0.0425
0.0385
0.0375
0.039
0.0365
0.0405
0.041
0.045
0.043
0.034
0.031
0.021
0.0115
0.003
-0.006
-0.009
-0.011
-0.0145
-0.024
-0.0305
-0.031
-0.0365
-0.0385
-0.0415
-0.0485
-0.0515
-0.052
-0.0495
-0.0535
-0.055
-0.0555
-0.057
-0.0565
-0.0575
-0.0555
-0.0565
-0.0585
-0.059
-0.059
-0.06
-0.0575
-0.054
-0.0565
-0.061
-0.0645
-0.064
-0.0645
-0.0685
-0.068
-0.0665
-0.0675
-0.065
-0.0635
-0.0595
-0.0585
-0.0585
-0.0595
-0.058
-0.053
-0.0535
-0.0555
-0.0545
-0.053
-0.056
-0.059
-0.057
-0.0555
-0.055
-0.0555
-0.0535
-0.049
-0.049
-0.0475
-0.0445
-0.0475
-0.0515
-0.0545
-0.056
-0.0545
-0.0515
-0.055
-0.061
-0.059
-0.055
-0.054
-0.056
-0.058
-0.057
-0.056
-0.054
-0.049
-0.0475
-0.045
-0.046
-0.0505
-0.0505
-0.0505
-0.0635
-0.0735
-0.078
-0.085
-0.076
-0.0775
-0.0875
-0.0935
-0.093
-0.0855
-0.0765
-0.0645
-0.0505
-0.021
0.0115
0.0495
0.086
0.1265
0.178
0.221
0.2675
0.315
0.353
0.4015
0.446
0.4775
0.521
0.5465
0.565
0.598
0.5935
0.551
0.5175
0.498
0.479
0.468
0.472
0.455
0.4115
0.3705
0.347
0.318
0.263
0.2175
0.169
0.1185
0.074
0.0215
-0.018
-0.0395
-0.0625
-0.096
-0.117
-0.1155
-0.1065
-0.096
-0.093
-0.0905
-0.0875
-0.093
-0.095
-0.093
-0.0845
-0.0765
-0.0675
-0.063
-0.066
-0.067
-0.07
-0.0735
-0.0755
-0.069
-0.0645
-0.0685
-0.0685
-0.0685
-0.068
-0.066
-0.0655
-0.061
-0.0605
-0.059
-0.059
-0.06
-0.0585
-0.06
-0.0565
-0.055
-0.0555
-0.0565
-0.0595
-0.0585
-0.058
-0.058
-0.0585
-0.058
-0.0605
-0.0665
-0.07
-0.068
-0.0625
-0.064
-0.065
-0.0625
-0.0645
-0.0655
-0.0655
-0.064
-0.064
-0.0605
-0.058
-0.064
-0.063
-0.0615
-0.059
-0.0545
-0.054
-0.0535
-0.058
-0.0625
-0.061
-0.057
-0.0575
-0.06
-0.057
-0.055
-0.055
-0.058
-0.061
-0.06
-0.0545
-0.054
-0.0555
-0.056
-0.059
-0.057
-0.0575
-0.059
-0.056
-0.0545
-0.0525
-0.052
-0.0545
-0.0565
-0.059
-0.057
-0.0545
-0.055
-0.055
-0.053
-0.049
-0.0495
-0.0525
-0.0515
-0.049
-0.0485
-0.045
-0.044
-0.049
-0.0555
-0.058
-0.0545
-0.055
-0.0585
-0.058
-0.057
-0.055
-0.0535
-0.055
-0.0555
-0.053
-0.054
-0.056
-0.0555
-0.0545
-0.054
-0.0525
-0.0515
-0.0525
-0.0525
-0.059
-0.06
-0.058
-0.06
-0.0595
-0.058
-0.056
-0.055
-0.053
-0.0515
-0.0515
-0.052
-0.0565
-0.0545
-0.0515
-0.055
-0.0595
-0.071
-0.0735
-0.066
-0.0635
-0.064
-0.0665
-0.063
-0.062
-0.061
-0.0595
-0.06
-0.0595
-0.06
-0.057
-0.056
-0.0565
-0.056
-0.0575
-0.059
-0.0565
-0.0585
-0.062
-0.057
-0.0555
-0.0585
-0.0575
-0.0565
-0.0585
-0.056
-0.055
-0.055
-0.0545
-0.0555
-0.0535
-0.0525
-0.0535
-0.055
-0.054
-0.054
-0.0575
-0.062
-0.061
-0.0585
-0.059
-0.056
-0.056
-0.058
-0.059
-0.0575
-0.0545
-0.056
-0.0555
-0.059
-0.0605
-0.0585
-0.059
-0.054
-0.058
-0.0635
-0.063
-0.061
-0.054
-0.0575
-0.067
-0.065
-0.0615
-0.0585
-0.0585
-0.0625
-0.0605
-0.059
-0.057
-0.056
-0.0555
-0.058
-0.059
-0.0565
-0.0585
-0.0665
-0.067
-0.064
-0.064
-0.0565
-0.057
-0.0635
-0.0695
-0.0715
-0.0685
-0.0685
-0.064
-0.0625
-0.0635
-0.0635
-0.061
-0.069
-0.073
-0.0635
-0.0655
-0.0675
-0.069
-0.0745
-0.073
-0.0705
-0.069
-0.0675
-0.0655
-0.067
-0.072
-0.076
-0.0755
-0.0715
-0.068
-0.069
-0.0665
-0.067
-0.067
-0.0605
-0.0585
-0.058
-0.0585
-0.062
-0.0705
-0.0765
-0.071
-0.065
-0.0635
-0.0665
-0.066
-0.0615
-0.065
-0.067
-0.0595
-0.06
-0.0615
-0.061
-0.0615
-0.0615
-0.062
-0.063
-0.0635
-0.0605
-0.0615
-0.062
-0.0605
-0.057
-0.055
-0.0565
-0.0555
-0.0565
-0.0605
-0.06
-0.056
-0.0555
-0.055
-0.057
-0.062
-0.0605
-0.0585
-0.058
-0.057
-0.055
-0.0565
-0.0585
-0.0555
-0.0575
-0.0585
-0.057
-0.0565
-0.0545
-0.0555
-0.055
-0.0555
-0.0515
-0.049
-0.047
-0.042
-0.039
-0.0385
-0.0455
-0.0495
-0.044
-0.0425
-0.0485
-0.048
-0.053
-0.0565
-0.0525
-0.051
-0.048
-0.0475
-0.0455
-0.0465
-0.046
-0.0445
-0.047
-0.048
-0.0515
-0.052
-0.0525
-0.0545
-0.0555
-0.0525
-0.0495
-0.054
-0.057
-0.056
-0.058
-0.0565
-0.057
-0.057
-0.0545
-0.055
-0.0495
-0.053
-0.0565
-0.053
-0.055
-0.0535
-0.055
-0.0565
-0.055
-0.0545
-0.053
-0.053
-0.051
-0.0515
-0.0525
-0.053
-0.0505
-0.0475
-0.049
-0.044
-0.0425
-0.0495
-0.053
-0.055
-0.0555
-0.053
-0.0535
-0.0555
-0.0565
-0.0575
-0.059
-0.057
-0.0525
-0.055
-0.0545
-0.0545
-0.054
-0.0485
-0.0495
-0.0515
-0.049
-0.05
-0.052
-0.05
-0.0545
-0.0565
-0.0485
-0.0445
-0.043
-0.0415
-0.0425
-0.0465
-0.0505
-0.046
-0.0475
-0.055
-0.056
-0.0505
-0.0475
-0.0505
-0.051
-0.0525
-0.0525
-0.053
-0.0575
-0.0585
-0.058
-0.06
-0.0605
-0.0605
-0.0605
-0.059
-0.0555
-0.0575
-0.0625
-0.0595
-0.0585
-0.062
-0.06
-0.058
-0.0595
-0.057
-0.053
-0.055
-0.058
-0.057
-0.0575
-0.055
-0.0565
-0.0615
-0.062
-0.063
-0.0655
-0.0655
-0.064
-0.058
-0.056
-0.0595
-0.056
-0.055
-0.0555
-0.057
-0.0585
-0.0585
-0.056
-0.055
-0.055
-0.0555
-0.057
-0.053
-0.054
-0.0535
-0.0525
-0.056
-0.0555
-0.059
-0.0635
-0.059
-0.0555
-0.0555
-0.053
-0.052
-0.056
-0.0585
-0.057
-0.0555
-0.055
-0.0565
-0.062
-0.064
-0.0615
-0.0595
-0.058
-0.0555
-0.056
-0.059
-0.058
-0.059
-0.0575
-0.058
-0.061
-0.057
-0.055
-0.055
-0.056
-0.056
-0.058
-0.061
-0.058
-0.06
-0.0615
-0.063
-0.0595
-0.0555
-0.0615
-0.0595
-0.062
-0.063
-0.0665
-0.078
-0.0765
-0.0695
-0.072
-0.073
-0.072
-0.077
-0.077
-0.076
-0.0755
-0.0755
-0.078
-0.0755
-0.076
-0.0745
-0.071
-0.074
-0.076
-0.072
-0.0715
-0.0755
-0.072
-0.0695
-0.0685
-0.0655
-0.069
-0.0665
-0.0645
-0.0625
-0.06
-0.065
-0.0685
-0.069
-0.0665
-0.063
-0.0625
-0.068
-0.0715
-0.0675
-0.065
-0.0615
-0.066
-0.073
-0.0675
-0.065
-0.0685
-0.069
-0.0735
-0.0735
-0.0715
-0.072
-0.069
-0.068
-0.0685
-0.068
-0.0655
-0.067
-0.069
-0.069
-0.066
-0.065
-0.0655
-0.063
-0.0625
-0.062
-0.065
-0.064
-0.0615
-0.062
-0.0635
-0.0655
-0.0625
-0.0615
-0.0625
-0.058
-0.0565
-0.0615
-0.06
-0.0555
-0.0565
-0.06
-0.063
-0.059
-0.0615
-0.066
-0.0605
-0.058
-0.058
-0.057
-0.0535
-0.052
-0.0515
-0.051
-0.0555
-0.0525
-0.0465
-0.0475
-0.0505
-0.0495
-0.0465
-0.047
-0.0485
-0.0505
-0.05
-0.043
-0.042
-0.0455
-0.0455
-0.049
-0.0475
-0.0435
-0.0415
-0.037
-0.0395
-0.042
-0.0385
-0.039
-0.044
-0.045
-0.0415
-0.0435
-0.052
-0.0555
-0.0535
-0.0495
-0.0455
-0.048
-0.049
-0.0505
-0.0505
-0.052
-0.051
-0.0485
-0.0515
-0.0525
-0.0575
-0.0605
-0.055
-0.054
-0.0555
-0.0545
-0.05
-0.053
-0.057
-0.0545
-0.052
-0.0485
-0.0515
-0.0515
-0.0495
-0.052
-0.051
-0.0565
-0.059
-0.0595
-0.063
-0.0595
-0.0565
-0.053
-0.051
-0.0515
-0.0525
-0.0515
-0.0515
-0.0525
-0.0525
-0.055
-0.0565
-0.057
-0.0555
-0.0555
-0.0585
-0.058
-0.057
-0.057
-0.0535
-0.052
-0.0545
-0.0545
-0.056
-0.0535
-0.048
-0.0505
-0.0515
-0.054
-0.054
-0.0505
-0.0485
-0.0485
-0.0495
-0.0505
-0.0525
-0.0515
-0.0515
-0.0505
-0.0475
-0.05
-0.05
-0.0485
-0.049
-0.056
-0.057
-0.049
-0.051
-0.054
-0.0555
-0.054
-0.052
-0.0505
-0.048
-0.049
-0.048
-0.051
-0.0525
-0.051
-0.055
-0.055
-0.0545
-0.0505
-0.047
-0.0505
-0.053
-0.057
-0.0535
-0.0495
-0.053
-0.0485
-0.044
-0.0475
-0.0495
-0.046
-0.0475
-0.047
-0.0455
-0.045
-0.0505
-0.057
-0.0645
-0.0675
-0.0565
-0.0545
-0.055
-0.0555
-0.0555
-0.0535
-0.057
-0.061
-0.0605
-0.059
-0.061
-0.063
-0.0595
-0.059
-0.062
-0.059
-0.0555
-0.0565
-0.06
-0.0545
-0.0525
-0.0565
-0.0555
-0.0565
-0.0565
-0.0545
-0.057
-0.067
-0.071
-0.064
-0.0585
-0.0585
-0.0565
-0.0525
-0.052
-0.0515
-0.051
-0.054
-0.0555
-0.055
-0.056
-0.0515
-0.052
-0.05
-0.049
-0.05
-0.049
-0.0555
-0.056
-0.055
-0.0555
-0.0525
-0.052
-0.0545
-0.0555
-0.055
-0.0575
-0.0615
-0.0625
-0.059
-0.056
-0.0555
-0.0525
-0.0525
-0.056
-0.052
-0.0475
-0.0505
-0.0525
-0.0535
-0.058
-0.0625
-0.0605
-0.0575
-0.055
-0.0545
-0.0565
-0.0555
-0.055
-0.0565
-0.057
-0.056
-0.054
-0.0495
-0.048
-0.051
-0.0525
-0.0515
-0.0485
-0.048
-0.0525
-0.055
-0.057
-0.058
-0.052
-0.049
-0.0495
-0.052
-0.0545
-0.054
-0.0595
-0.0645
-0.0615
-0.0605
-0.061
-0.06
-0.062
-0.0715
-0.071
-0.065
-0.0635
-0.062
-0.065
-0.0625
-0.061
-0.0615
-0.062
-0.0625
-0.0615
-0.0625
-0.062
-0.0585
-0.0595
-0.059
-0.0565
-0.0615
-0.0605
-0.059
-0.061
-0.0615
-0.0605
-0.061
-0.065
-0.062
-0.06
-0.062
-0.0615
-0.0625
-0.062
-0.0625
-0.0585
-0.056
-0.0615
-0.066
-0.063
-0.055
-0.0575
-0.058
-0.0615
-0.07
-0.0635
-0.06
-0.063
-0.064
-0.067
-0.065
-0.0655
-0.0685
-0.0625
-0.0625
-0.069
-0.0695
-0.0675
-0.065
-0.066
-0.067
-0.066
-0.063
-0.0625
-0.0655
-0.066
-0.066
-0.0705
-0.0725
-0.07
-0.069
-0.0675
-0.0665
-0.0615
-0.059
-0.0565
-0.052
-0.0515
-0.053
-0.059
-0.0625
-0.0655
-0.065
-0.0615
-0.06
-0.0585
-0.0575
-0.057
-0.055
-0.049
-0.049
-0.0525
-0.048
-0.043
-0.045
-0.045
-0.045
-0.0465
-0.0435
-0.037
-0.0345
-0.0345
-0.035
-0.0325
-0.0325
-0.0305
-0.024
-0.0235
-0.0205
-0.0165
-0.0165
-0.0125
-0.013
-0.013
-0.0135
-0.017
-0.0085
-0.002
-0.0015
0.002
0.003
0.005
0.004
0.002
0.0045
0.004
0.007
0.01
0.0045
0.0045
0.0105
0.0175
0.014
0.0085
0.0055
0.0045
0.005
0.005
0.0075
0.0045
0.005
0.0065
0.005
0.008
0.008
0.006
0.005
0.003
0.007
0.009
0.01
0.0155
0.0165
0.007
0.003
0.0065
0.011
0.015
0.015
0.013
0.007
0.0065
0.009
0.0095
0.0075
0.001
0.002
0.0035
0.004
0.002
-0.0005
-0.001
-0.008
-0.0155
-0.024
-0.0285
-0.0305
-0.035
-0.041
-0.048
-0.053
-0.0535
-0.0565
-0.0625
-0.0655
-0.071
-0.073
-0.073
-0.07
-0.0635
-0.0725
-0.0905
-0.0995
-0.0965
-0.0915
-0.0865
-0.085
-0.0845
-0.0775
-0.073
-0.0725
-0.0745
-0.076
-0.073
-0.0745
-0.077
-0.0785
-0.0815
-0.079
-0.0775
-0.078
-0.079
-0.0785
-0.0755
-0.073
-0.0715
-0.07
-0.0715
-0.0735
-0.071
-0.069
-0.066
-0.0665
-0.0665
-0.066
-0.0655
-0.0605
-0.064
-0.0645
-0.066
-0.0705
-0.0735
-0.0805
-0.0825
-0.078
-0.0735
-0.07
-0.069
-0.0665
-0.066
-0.068
-0.07
-0.0725
-0.0705
-0.07
-0.0725
-0.072
-0.07
-0.0705
-0.0715
-0.073
-0.07
-0.0645
-0.0665
-0.071
-0.0715
-0.0685
-0.069
-0.076
-0.088
-0.0925
-0.0915
-0.09
-0.0845
-0.0885
-0.105
-0.116
-0.111
-0.104
-0.0915
-0.0745
-0.0505
-0.0215
0.013
0.0565
0.098
0.144
0.19
0.231
0.284
0.337
0.3895
0.4355
0.465
0.5055
0.5405
0.5645
0.5985
0.612
0.577
0.5325
0.513
0.4925
0.4645
0.4525
0.445
0.41
0.3685
0.334
0.301
0.253
0.2
0.159
0.108
0.0535
0.004
-0.032
-0.054
-0.076
-0.11
-0.1375
-0.143
-0.139
-0.1285
-0.1215
-0.116
-0.1075
-0.1095
-0.115
-0.1125
-0.1005
-0.0915
-0.091
-0.0875
-0.084
-0.0765
-0.076
-0.0795
-0.079
-0.08
-0.0795
-0.0795
-0.0815
-0.082
-0.081
-0.0875
-0.087
-0.0825
-0.08
-0.081
-0.0865
-0.0825
-0.079
-0.0795
-0.079
-0.079
-0.076
-0.0755
-0.0765
-0.0735
-0.073
-0.0755
-0.0755
-0.0735
-0.072
-0.0715
-0.0695
-0.0695
-0.069
-0.07
-0.0725
-0.076
-0.0735
-0.073
-0.075
-0.0745
-0.0765
-0.0725
-0.0755
-0.0795
-0.0785
-0.0795
-0.0775
-0.076
-0.0735
-0.0705
-0.0675
-0.0695
-0.076
-0.08
-0.076
-0.0715
-0.072
-0.073
-0.0695
-0.0665
-0.0735
-0.079
-0.0765
-0.0755
-0.0755
-0.0755
-0.076
-0.074
-0.0725
-0.073
-0.0775
-0.0825
-0.085
-0.082
-0.076
-0.0785
-0.076
-0.0755
-0.075
-0.0725
-0.075
-0.076
-0.0745
-0.076
-0.0795
-0.0795
-0.0785
-0.0765
-0.0745
-0.0735
-0.071
-0.0735
-0.076
-0.073
-0.0725
-0.0725
-0.072
-0.073
-0.0755
-0.0785
-0.0775
-0.0755
-0.076
-0.08
-0.0835
-0.079
-0.078
-0.08
-0.0765
-0.0725
-0.07
-0.07
-0.0675
-0.0645
-0.0635
-0.061
-0.0645
-0.0685
-0.073
-0.0805
-0.0835
-0.0815
-0.0765
-0.0765
-0.079
-0.0755
-0.0735
-0.073
-0.0715
-0.071
-0.074
-0.076
-0.0735
-0.073
-0.0745
-0.074
-0.071
-0.072
-0.0675
-0.068
-0.071
-0.066
-0.07
-0.071
-0.07
-0.0685
-0.0665
-0.0665
-0.066
-0.0645
-0.065
-0.067
-0.0655
-0.0645
-0.0625
-0.0595
-0.058
-0.058
-0.0625
-0.061
-0.057
-0.06
-0.061
-0.061
-0.0655
-0.0705
-0.066
-0.0615
-0.06
-0.0555
-0.0545
-0.0575
-0.0595
-0.0615
-0.0655
-0.0605
-0.058
-0.0645
-0.0655
-0.065
-0.066
-0.066
-0.0645
-0.0615
-0.0615
-0.0645
-0.0635
-0.065
-0.0635
-0.0635
-0.0675
-0.0685
-0.068
-0.0635
-0.0605
-0.0585
-0.062
-0.0685
-0.067
-0.0635
-0.066
-0.069
-0.066
-0.068
-0.072
-0.073
-0.0705
-0.0685
-0.0705
-0.0705
-0.0685
-0.066
-0.0685
-0.071
-0.0685
-0.066
-0.0655
-0.063
-0.0625
-0.0645
-0.065
-0.066
-0.064
-0.0665
-0.071
-0.07
-0.07
-0.064
-0.065
-0.073
-0.067
-0.062
-0.066
-0.0695
-0.0695
-0.0695
-0.067
-0.0645
-0.0685
-0.0695
-0.069
-0.0645
-0.0635
-0.069
-0.0645
-0.06
-0.062
-0.065
-0.067
-0.071
-0.072
-0.07
-0.066
-0.064
-0.0695
-0.071
-0.0685
-0.0745
-0.073
-0.0685
-0.072
-0.07
-0.0685
-0.066
-0.067
-0.0695
-0.0675
-0.0675
-0.063
-0.0605
-0.0675
-0.076
-0.073
-0.063
-0.0635
-0.0655
-0.065
-0.066
-0.064
-0.0635
-0.061
-0.0575
-0.056
-0.056
-0.0605
-0.0595
-0.0555
-0.0555
-0.0505
-0.0515
-0.0565
-0.0535
-0.0565
-0.058
-0.0545
-0.0575
-0.0595
-0.062
-0.0615
-0.0585
-0.057
-0.0555
-0.0545
-0.054
-0.056
-0.0545
-0.05
-0.0495
-0.049
-0.046
-0.0445
-0.0475
-0.048
-0.049
-0.0505
-0.0485
-0.0475
-0.045
-0.044
-0.0455
-0.049
-0.0475
-0.0465
-0.051
-0.045
-0.042
-0.0425
-0.036
-0.038
-0.04
-0.0355
-0.0375
-0.036
-0.035
-0.0335
-0.038
-0.048
-0.053
-0.057
-0.05
-0.045
-0.0435
-0.0405
-0.042
-0.04
-0.0395
-0.0445
-0.045
-0.045
-0.04
-0.035
-0.036
-0.037
-0.0415
-0.04
-0.038
-0.0385
-0.0415
-0.045
-0.0485
-0.0535
-0.05
-0.0495
-0.0525
-0.0515
-0.052
-0.049
-0.046
-0.0475
-0.0495
-0.049
-0.0475
-0.048
-0.0485
-0.0455
-0.0435
-0.0485
-0.055
-0.0535
-0.052
-0.05
-0.0485
-0.0565
-0.059
-0.0575
-0.057
-0.054
-0.053
-0.0555
-0.0565
-0.0605
-0.0605
-0.06
-0.0615
-0.059
-0.0575
-0.056
-0.06
-0.0615
-0.0585
-0.059
-0.0585
-0.06
-0.06
-0.0615
-0.066
-0.065
-0.0625
-0.062
-0.061
-0.0575
-0.0585
-0.059
-0.0575
-0.0605
-0.0595
-0.06
-0.063
-0.0675
-0.072
-0.0695
-0.0685
-0.0685
-0.071
-0.07
-0.061
-0.0615
-0.063
-0.0635
-0.065
-0.0615
-0.0615
-0.058
-0.057
-0.0585
-0.0585
-0.058
-0.058
-0.0585
-0.061
-0.0605
-0.0605
-0.063
-0.063
-0.0635
-0.061
-0.06
-0.0625
-0.062
-0.061
-0.0625
-0.0605
-0.066
-0.0755
-0.0775
-0.079
-0.07
-0.065
-0.069
-0.0725
-0.0725
-0.07
-0.073
-0.071
-0.069
-0.07
-0.0695
-0.069
-0.0645
-0.067
-0.069
-0.072
-0.069
-0.0645
-0.064
-0.0625
-0.067
-0.0695
-0.0715
-0.0695
-0.069
-0.0675
-0.064
-0.0665
-0.069
-0.068
-0.067
-0.069
-0.0695
-0.0655
-0.061
-0.064
-0.066
-0.0675
-0.0665
-0.0615
-0.061
-0.0615
-0.0615
-0.0645
-0.0675
-0.065
-0.0645
-0.0715
-0.0725
-0.068
-0.0645
-0.0635
-0.066
-0.0625
-0.0585
-0.0655
-0.0695
-0.0725
-0.0745
-0.0685
-0.068
-0.0685
-0.0675
-0.0715
-0.0725
-0.0725
-0.0725
-0.072
-0.064
-0.0635
-0.0715
-0.071
-0.072
-0.0705
-0.064
-0.058
-0.0635
-0.0645
-0.064
-0.0695
-0.071
-0.0705
-0.065
-0.0655
-0.068
-0.068
-0.069
-0.0685
-0.0695
-0.0725
-0.076
-0.0705
-0.0665
-0.0715
-0.0735
-0.072
-0.0725
-0.067
-0.066
-0.069
-0.0695
-0.0715
-0.07
-0.073
-0.0765
-0.075
-0.072
-0.0695
-0.0655
-0.0665
-0.072
-0.074
-0.073
-0.0695
-0.066
-0.063
-0.0615
-0.06
-0.0675
-0.073
-0.0725
-0.0725
-0.0745
-0.076
-0.073
-0.07
-0.069
-0.0695
-0.0675
-0.066
-0.066
-0.0665
-0.0655
-0.067
-0.07
-0.073
-0.0785
-0.0825
-0.0815
-0.076
-0.073
-0.0755
-0.073
-0.0705
-0.074
-0.075
-0.074
-0.0705
-0.0685
-0.07
-0.0705
-0.071
-0.0735
-0.0725
-0.072
-0.0735
-0.0745
-0.069
-0.0635
-0.063
-0.062
-0.0655
-0.068
-0.064
-0.059
-0.061
-0.0635
-0.0645
-0.068
-0.069
-0.067
-0.0645
-0.0645
-0.066
-0.069
-0.072
-0.069
-0.066
-0.0655
-0.0655
-0.065
-0.0655
-0.0625
-0.062
-0.0615
-0.0605
-0.065
-0.063
-0.0565
-0.0555
-0.0615
-0.0585
-0.0545
-0.058
-0.0585
-0.061
-0.062
-0.066
-0.069
-0.064
-0.0605
-0.0565
-0.0575
-0.057
-0.056
-0.0555
-0.057
-0.0655
-0.065
-0.0625
-0.0625
-0.0565
-0.0545
-0.0585
-0.057
-0.056
-0.062
-0.0635
-0.0625
-0.0575
-0.0565
-0.059
-0.0605
-0.065
-0.0635
-0.064
-0.062
-0.0595
-0.0595
-0.057
-0.058
-0.06
-0.062
-0.0615
-0.0625
-0.063
-0.061
-0.0655
-0.0675
-0.068
-0.0695
-0.07
-0.0725
-0.0725
-0.0725
-0.072
-0.069
-0.066
-0.0675
-0.073
-0.072
-0.067
-0.065
-0.0655
-0.065
-0.0615
-0.0595
-0.059
-0.0675
-0.069
-0.0665
-0.072
-0.076
-0.0755
-0.0705
-0.0715
-0.0715
-0.0685
-0.0675
-0.0715
-0.0735
-0.0725
-0.071
-0.066
-0.0675
-0.0665
-0.067
-0.069
-0.0685
-0.0665
-0.0625
-0.061
-0.061
-0.062
-0.062
-0.06
-0.0585
-0.0595
-0.0625
-0.0635
-0.063
-0.0655
-0.0655
-0.0675
-0.0665
-0.0625
-0.0615
-0.058
-0.0595
-0.0575
-0.055
-0.056
-0.067
-0.069
-0.058
-0.0585
-0.063
-0.065
-0.0695
-0.072
-0.0675
-0.068
-0.0655
-0.0605
-0.0615
-0.0625
-0.061
-0.058
-0.0575
-0.055
-0.0525
-0.0595
-0.065
-0.065
-0.061
-0.057
-0.0585
-0.0585
-0.058
-0.0585
-0.057
-0.0545
-0.052
-0.056
-0.059
-0.056
-0.0545
-0.0555
-0.0585
-0.062
-0.063
-0.06
-0.0565
-0.0555
-0.057
-0.0555
-0.055
-0.055
-0.0555
-0.0555
-0.0555
-0.055
-0.053
-0.052
-0.051
-0.0545
-0.0575
-0.055
-0.05
-0.047
-0.0545
-0.059
-0.058
-0.056
-0.057
-0.06
-0.057
-0.055
-0.058
-0.058
-0.0555
-0.0555
-0.0555
-0.055
-0.052
-0.053
-0.058
-0.0555
-0.0525
-0.05
-0.05
-0.0545
-0.0585
-0.057
-0.053
-0.054
-0.0515
-0.0505
-0.054
-0.0515
-0.056
-0.0605
-0.0595
-0.064
-0.059
-0.055
-0.055
-0.054
-0.054
-0.053
-0.0555
-0.057
-0.0595
-0.064
-0.067
-0.067
-0.066
-0.0655
-0.0615
-0.059
-0.0625
-0.0625
-0.0565
-0.0535
-0.059
-0.0625
-0.06
-0.057
-0.054
-0.055
-0.055
-0.059
-0.065
-0.0635
-0.0615
-0.059
-0.058
-0.061
-0.0595
-0.059
-0.062
-0.059
-0.0605
-0.0595
-0.058
-0.0575
-0.051
-0.0525
-0.0545
-0.0575
-0.062
-0.0625
-0.0605
-0.0575
-0.057
-0.055
-0.052
-0.0495
-0.051
-0.052
-0.0475
-0.0485
-0.048
-0.0475
-0.0475
-0.047
-0.0485
-0.0455
-0.0465
-0.049
-0.051
-0.05
-0.053
-0.0555
-0.0505
-0.048
-0.043
-0.0415
-0.0405
-0.0405
-0.042
-0.0425
-0.0445
-0.047
-0.049
-0.0465
-0.0495
-0.0525
-0.05
-0.0485
-0.0475
-0.049
-0.0495
-0.0465
-0.046
-0.0485
-0.046
-0.04
-0.0375
-0.037
-0.038
-0.0335
-0.0255
-0.029
-0.04
-0.0415
-0.033
-0.026
-0.021
-0.0235
-0.0245
-0.0205
-0.021
-0.018
-0.018
-0.02
-0.019
-0.0155
-0.0115
-0.0145
-0.013
-0.0095
-0.005
0.0005
-0.0085
-0.018
-0.0165
-0.0115
-0.0015
0.006
0.004
0.002
0.0045
0.008
0.01
0.007
0.002
-0.003
-0.0035
-0.0005
-0.0005
-0.0065
-0.01
-0.0085
-0.0075
-0.004
-0.005
-0.004
0.001
-0.0005
0.0015
-0.001
-0.005
-0.0015
0.0
0.005
0.0065
0.0075
0.011
0.015
0.0215
0.023
0.0185
0.014
0.0095
0.0055
0.008
0.007
0.004
0.003
-0.0015
-0.001
-0.003
-0.0055
-0.0135
-0.0255
-0.031
-0.034
-0.0365
-0.0425
-0.0505
-0.0545
-0.0595
-0.0655
-0.068
-0.069
-0.073
-0.077
-0.0785
-0.0775
-0.0785
-0.0835
-0.0845
-0.091
-0.092
-0.087
-0.087
-0.0905
-0.098
-0.096
-0.0905
-0.0905
-0.0905
-0.0895
-0.0915
-0.0935
-0.095
-0.097
-0.093
-0.0895
-0.0885
-0.088
-0.0895
-0.0895
-0.0895
-0.0865
-0.0865
-0.086
-0.0855
-0.0815
-0.079
-0.0795
-0.082
-0.0845
-0.0825
-0.0885
-0.0865
-0.0805
-0.086
-0.0895
-0.087
-0.085
-0.086
-0.085
-0.0815
-0.0835
-0.0885
-0.087
-0.0795
-0.082
-0.088
-0.0875
-0.088
-0.0845
-0.077
-0.0765
-0.076
-0.0755
-0.078
-0.0815
-0.0835
-0.084
-0.0895
-0.0875
-0.0825
-0.0825
-0.08
-0.077
-0.078
-0.0765
-0.079
-0.0925
-0.095
-0.0985
-0.1005
-0.096
-0.1015
-0.114
-0.1175
-0.1035
-0.102
-0.0925
-0.0765
-0.0555
-0.025
0.0095
0.0495
0.082
0.1305
0.182
0.222
0.2725
0.326
0.3785
0.432
0.466
0.5085
0.5505
0.5705
0.6055
0.6305
0.604
0.5575
0.531
0.5115
0.487
0.483
0.4805
0.441
0.3955
0.36
0.3255
0.276
0.226
0.18
0.1205
0.0675
0.0185
-0.019
-0.0415
-0.0645
-0.0965
-0.1245
-0.13
-0.1235
-0.121
-0.118
-0.111
-0.108
-0.1045
-0.112
-0.1165
-0.1065
-0.093
-0.079
-0.0775
-0.08
-0.078
-0.0715
-0.07
-0.076
-0.075
-0.0755
-0.0745
-0.0735
-0.077
-0.0815
-0.0855
-0.084
-0.082
-0.0795
-0.076
-0.0755
-0.076
-0.073
-0.071
-0.0735
-0.0765
-0.0745
-0.076
-0.078
-0.0745
-0.0755
-0.0735
-0.0735
-0.0755
-0.078
-0.081
-0.081
-0.08
-0.076
-0.078
-0.0825
-0.0795
-0.08
-0.083
-0.0795
-0.073
-0.073
-0.0755
-0.076
-0.0795
-0.0795
-0.08
-0.0805
-0.077
-0.079
-0.079
-0.079
-0.0785
-0.0745
-0.0735
-0.0695
-0.0705
-0.071
-0.0685
-0.0675
-0.0705
-0.073
-0.0745
-0.0755
-0.076
-0.0795
-0.079
-0.0755
-0.0745
-0.0735
-0.072
-0.0715
-0.0725
-0.075
-0.0745
-0.07
-0.0675
-0.069
-0.0695
-0.072
-0.071
-0.0595
-0.057
-0.062
-0.069
-0.072
-0.0695
-0.067
-0.064
-0.065
-0.0675
-0.0725
-0.0725
-0.0675
-0.0645
-0.0595
-0.058
-0.06
-0.0605
-0.062
-0.06
-0.061
-0.0645
-0.0635
-0.0615
-0.064
-0.072
-0.078
-0.0745
-0.071
-0.067
-0.066
-0.0695
-0.069
-0.069
-0.0695
-0.0735
-0.075
-0.0705
-0.0725
-0.071
-0.0665
-0.0665
-0.065
-0.064
-0.0635
-0.0645
-0.0655
-0.0655
-0.066
-0.063
-0.062
-0.062
-0.062
-0.0615
-0.059
-0.0565
-0.0545
-0.056
-0.057
-0.058
-0.06
-0.0585
-0.0585
-0.0625
-0.068
-0.0625
-0.0535
-0.0515
-0.0525
-0.056
-0.055
-0.054
-0.0525
-0.0585
-0.0625
-0.059
-0.0585
-0.056
-0.0555
-0.055
-0.0555
-0.0535
-0.053
-0.0575
-0.058
-0.055
-0.056
-0.057
-0.0575
-0.0655
-0.069
-0.062
-0.0595
-0.0605
-0.058
-0.0565
-0.0585
-0.0575
-0.0555
-0.057
-0.057
-0.06
-0.0555
-0.045
-0.0515
-0.0635
-0.063
-0.062
-0.0615
-0.0565
-0.055
-0.0575
-0.0575
-0.0615
-0.063
-0.06
-0.06
-0.0595
-0.057
-0.051
-0.049
-0.048
-0.0495
-0.0545
-0.0565
-0.054
-0.0495
-0.0505
-0.0485
-0.051
-0.0625
-0.0605
-0.0555
-0.055
-0.058
-0.062
-0.059
-0.0555
-0.056
-0.06
-0.0615
-0.061
-0.0595
-0.0605
-0.063
-0.063
-0.0635
-0.0655
-0.0685
-0.064
-0.0615
-0.0615
-0.059
-0.0585
-0.058
-0.0565
-0.0515
-0.054
-0.067
-0.075
-0.069
-0.0615
-0.062
-0.06
-0.0575
-0.06
-0.058
-0.055
-0.0545
-0.055
-0.0555
-0.0565
-0.0605
-0.062
-0.0605
-0.0555
-0.053
-0.057
-0.0585
-0.061
-0.0605
-0.056
-0.056
-0.0555
-0.0605
-0.0615
-0.058
-0.0575
-0.0555
-0.059
-0.065
-0.065
-0.0615
-0.059
-0.0595
-0.0575
-0.0565
-0.059
-0.0575
-0.0555
-0.054
-0.051
-0.0505
-0.0515
-0.0535
-0.0555
-0.0545
-0.0545
-0.056
-0.054
-0.0525
-0.049
-0.0445
-0.0475
-0.051
-0.05
-0.048
-0.045
-0.042
-0.0415
-0.0415
-0.0415
-0.042
-0.0435
-0.0425
-0.0445
-0.045
-0.0395
-0.0375
-0.0375
-0.04
-0.048
-0.054
-0.0595
-0.055
-0.046
-0.044
-0.0445
-0.042
-0.0365
-0.04
-0.0405
-0.043
-0.0525
-0.056
-0.057
-0.053
-0.048
-0.0425
-0.038
-0.038
-0.039
-0.043
-0.05
-0.0515
-0.047
-0.0445
-0.047
-0.0465
-0.0445
-0.0445
-0.047
-0.049
-0.0445
-0.047
-0.052
-0.0495
-0.047
-0.0485
-0.0485
-0.0495
-0.0495
-0.0485
-0.046
-0.047
-0.0475
-0.045
-0.0485
-0.048
-0.049
-0.0435
-0.043
-0.0555
-0.0565
-0.054
-0.05
-0.0495
-0.052
-0.054
-0.0555
-0.052
-0.052
-0.051
-0.0485
-0.0485
-0.048
-0.047
-0.0455
-0.045
-0.045
-0.0445
-0.042
-0.0415
-0.0415
-0.0395
-0.044
-0.047
-0.0455
-0.043
-0.039
-0.038
-0.0355
-0.0365
-0.0405
-0.034
-0.033
-0.037
-0.0445
-0.056
-0.0565
-0.051
-0.047
-0.049
-0.0475
-0.0465
-0.047
-0.041
-0.038
-0.0445
-0.0535
-0.052
-0.0475
-0.0455
-0.0475
-0.051
-0.056
-0.058
-0.0565
-0.0545
-0.0525
-0.0495
-0.0475
-0.0475
-0.047
-0.049
-0.0475
-0.049
-0.0505
-0.0495
-0.0485
-0.046
-0.051
-0.0575
-0.058
-0.057
-0.0575
-0.0565
-0.055
-0.055
-0.0535
-0.055
-0.056
-0.0565
-0.056
-0.0535
-0.053
-0.056
-0.0615
-0.063
-0.0615
-0.0665
-0.066
-0.0635
-0.066
-0.063
-0.062
-0.0615
-0.0635
-0.0625
-0.0605
-0.0665
-0.069
-0.069
-0.069
-0.0705
-0.074
-0.075
-0.073
-0.072
-0.0715
-0.0735
-0.072
-0.07
-0.0675
-0.0655
-0.0665
-0.0655
-0.0675
-0.071
-0.072
-0.07
-0.0685
-0.0685
-0.068
-0.065
-0.065
-0.0635
-0.061
-0.061
-0.0595
-0.069
-0.073
-0.069
-0.071
-0.073
-0.074
-0.0735
-0.07
-0.066
-0.0625
-0.057
-0.055
-0.053
-0.059
-0.0635
-0.0625
-0.063
-0.0605
-0.062
-0.067
-0.0685
-0.0725
-0.081
-0.0635
-0.041
-0.05
-0.064
-0.0685
-0.0675
-0.068
-0.065
-0.0635
-0.061
-0.06
-0.0625
-0.0625
-0.0675
-0.066
-0.066
-0.0645
-0.0605
-0.0605
-0.0555
-0.0565
-0.056
-0.055
-0.0555
-0.055
-0.055
-0.0545
-0.0555
-0.053
-0.058
-0.0655
-0.061
-0.059
-0.0555
-0.053
-0.0555
-0.055
-0.0555
-0.053
-0.052
-0.052
-0.0515
-0.0555
-0.057
-0.0585
-0.0555
-0.0515
-0.0505
-0.0525
-0.0555
-0.052
-0.0495
-0.0515
-0.055
-0.056
-0.055
-0.0555
-0.055
-0.0565
-0.0545
-0.049
-0.049
-0.0485
-0.05
-0.0525
-0.0505
-0.047
-0.045
-0.0495
-0.0545
-0.0555
-0.0545
-0.0505
-0.048
-0.053
-0.0625
-0.056
-0.0475
-0.0545
-0.0525
-0.0485
-0.0515
-0.0525
-0.0545
-0.056
-0.0545
-0.055
-0.055
-0.056
-0.057
-0.055
-0.057
-0.0575
-0.0545
-0.054
-0.055
-0.0565
-0.059
-0.062
-0.0635
-0.0605
-0.059
-0.061
-0.065
-0.0635
-0.062
-0.068
-0.0655
-0.0645
-0.0645
-0.0645
-0.0665
-0.064
-0.062
-0.06
-0.0575
-0.0555
-0.0555
-0.0575
-0.059
-0.056
-0.0565
-0.0695
-0.0735
-0.07
-0.0665
-0.0625
-0.0615
-0.058
-0.0595
-0.0635
-0.06
-0.056
-0.0575
-0.059
-0.0575
-0.0585
-0.0555
-0.058
-0.0625
-0.057
-0.055
-0.0565
-0.055
-0.056
-0.054
-0.052
-0.052
-0.051
-0.0495
-0.0455
-0.046
-0.05
-0.0535
-0.057
-0.053
-0.0475
-0.046
-0.0455
-0.0505
-0.055
-0.049
-0.044
-0.049
-0.051
-0.052
-0.0555
-0.053
-0.0505
-0.049
-0.0455
-0.0475
-0.05
-0.049
-0.0505
-0.0495
-0.0475
-0.048
-0.047
-0.0435
-0.0415
-0.046
-0.0475
-0.043
-0.048
-0.0505
-0.049
-0.053
-0.0545
-0.0575
-0.052
-0.047
-0.049
-0.0455
-0.0445
-0.043
-0.043
-0.044
-0.037
-0.039
-0.0425
-0.041
-0.0435
-0.0415
-0.041
-0.04
-0.043
-0.043
-0.045
-0.052
-0.048
-0.047
-0.0465
-0.044
-0.0435
-0.0445
-0.0455
-0.0425
-0.041
-0.041
-0.038
-0.0425
-0.0495
-0.0445
-0.0385
-0.038
-0.038
-0.038
-0.038
-0.0375
-0.0395
-0.0445
-0.044
-0.0385
-0.0385
-0.041
-0.0415
-0.04
-0.035
-0.03
-0.0325
-0.036
-0.039
-0.038
-0.0365
-0.036
-0.0365
-0.0385
-0.035
-0.0315
-0.035
-0.0335
-0.0285
-0.028
-0.029
-0.035
-0.042
-0.048
-0.047
-0.0415
-0.0395
-0.0375
-0.0365
-0.032
-0.0335
-0.0375
-0.04
-0.0445
-0.0475
-0.045
-0.0415
-0.04
-0.041
-0.0415
-0.0415
-0.042
-0.045
-0.0485
-0.047
-0.043
-0.0385
-0.0375
-0.0385
-0.0375
-0.042
-0.044
-0.042
-0.0415
-0.0395
-0.041
-0.044
-0.0465
-0.047
-0.047
-0.045
-0.042
-0.0415
-0.0415
-0.0415
-0.042
-0.042
-0.0415
-0.0445
-0.0425
-0.041
-0.042
-0.04
-0.043
-0.046
-0.0475
-0.0485
-0.0465
-0.0425
-0.043
-0.0525
-0.0545
-0.0495
-0.051
-0.049
-0.048
-0.047
-0.045
-0.045
-0.045
-0.044
-0.0385
-0.038
-0.0485
-0.051
-0.0455
-0.048
-0.0515
-0.051
-0.0465
-0.044
-0.0435
-0.039
-0.038
-0.041
-0.041
-0.035
-0.032
-0.035
-0.039
-0.042
-0.042
-0.0405
-0.0475
-0.0545
-0.0495
-0.044
-0.0435
-0.043
-0.0395
-0.036
-0.037
-0.038
-0.04
-0.0385
-0.0385
-0.0455
-0.042
-0.0395
-0.0385
-0.036
-0.042
-0.0385
-0.035
-0.0365
-0.0375
-0.0375
-0.0365
-0.043
-0.044
-0.0455
-0.051
-0.0475
-0.042
-0.044
-0.0455
-0.0405
-0.0385
-0.0375
-0.0375
-0.0355
-0.0355
-0.0385
-0.036
-0.034
-0.0355
-0.0375
-0.036
-0.0325
-0.0315
-0.0345
-0.0365
-0.031
-0.0285
-0.0255
-0.0245
-0.028
-0.0275
-0.029
-0.0265
-0.025
-0.025
-0.0235
-0.021
-0.018
-0.018
-0.017
-0.018
-0.0215
-0.027
-0.031
-0.0285
-0.031
-0.0295
-0.0215
-0.0155
-0.0105
-0.011
-0.013
-0.0045
0.003
0.002
0.002
0.002
0.0095
0.0135
0.006
0.0025
0.0075
0.0105
0.012
0.016
0.0165
0.012
0.0115
0.0145
0.022
0.027
0.027
0.0325
0.0375
0.0365
0.0385
0.04
0.0395
0.0415
0.0425
0.0415
0.0495
0.055
0.054
0.053
0.048
0.047
0.042
0.0445
0.0455
0.041
0.0435
0.042
0.0365
0.0315
0.0285
0.033
0.036
0.039
0.0425
0.0395
0.0445
0.047
0.043
0.045
0.047
0.045
0.048
0.0505
0.052
0.0575
0.057
0.052
0.0495
0.048
0.044
0.044
0.039
0.036
0.039
0.036
0.0355
0.0335
0.0325
0.0305
0.0215
0.015
0.009
-0.0005
-0.0045
-0.0105
-0.018
-0.029
-0.04
-0.0415
-0.045
-0.0435
-0.046
-0.055
-0.0565
-0.057
-0.0555
-0.055
-0.0555
-0.055
-0.058
-0.0555
-0.056
-0.0615
-0.066
-0.071
-0.0745
-0.08
-0.0785
-0.0735
-0.069
-0.067
-0.0685
-0.065
-0.069
-0.0715
-0.065
-0.062
-0.0605
-0.061
-0.062
-0.065
-0.067
-0.0665
-0.0635
-0.062
-0.0625
-0.061
-0.062
-0.0655
-0.065
-0.0665
-0.0695
-0.069
-0.069
-0.068
-0.069
-0.0675
-0.0625
-0.0615
-0.0585
-0.06
-0.0645
-0.0665
-0.065
-0.0615
-0.062
-0.062
-0.062
-0.062
-0.0605
-0.0585
-0.061
-0.069
-0.0695
-0.066
-0.068
-0.0695
-0.066
-0.0615
-0.058
-0.0545
-0.0515
-0.055
-0.0575
-0.067
-0.079
-0.0795
-0.0815
-0.0785
-0.0815
-0.094
-0.106
-0.1085
-0.0975
-0.0925
-0.0805
-0.065
-0.0375
-0.001
0.036
0.0845
0.1245
0.168
0.2105
0.25
0.3105
0.364
0.4215
0.4745
0.506
0.552
0.582
0.5995
0.6405
0.6565
0.624
0.586
0.566
0.538
0.5065
0.5025
0.4955
0.456
0.411
0.3765
0.3345
0.2825
0.2335
0.1745
0.111
0.0575
0.0095
-0.024
-0.0465
-0.073
-0.1075
-0.134
-0.141
-0.1325
-0.124
-0.1195
-0.1105
-0.1035
-0.105
-0.1145
-0.1135
-0.1035
-0.095
-0.086
-0.079
-0.077
-0.076
-0.076
-0.0725
-0.069
-0.071
-0.072
-0.069
-0.069
-0.0705
-0.07
-0.0705
-0.0695
-0.0635
-0.062
-0.0675
-0.069
-0.069
-0.065
-0.0615
-0.0605
-0.0585
-0.06
-0.065
-0.0685
-0.071
-0.0755
-0.0715
-0.0685
-0.069
-0.068
-0.07
-0.0675
-0.06
-0.0615
-0.066
-0.0645
-0.0625
-0.059
-0.059
-0.058
-0.057
-0.061
-0.0595
-0.058
-0.06
-0.0565
-0.055
-0.058
-0.0585
-0.058
-0.0525
-0.0455
-0.049
-0.053
-0.056
-0.058
-0.064
-0.0735
-0.0685
-0.06
-0.059
-0.0615
-0.062
-0.0615
-0.059
-0.0585
-0.0595
-0.0585
-0.0585
-0.0565
-0.058
-0.058
-0.055
-0.053
-0.052
-0.051
-0.0565
-0.0595
-0.0565
-0.057
-0.053
-0.0535
-0.0555
-0.056
-0.057
-0.0555
-0.058
-0.059
-0.058
-0.0575
-0.0585
-0.061
-0.062
-0.061
-0.061
-0.0575
-0.056
-0.059
-0.0575
-0.056
-0.054
-0.0525
-0.0505
-0.0515
-0.0555
-0.0535
-0.052
-0.051
-0.0505
-0.048
-0.049
-0.055
-0.0555
-0.0555
-0.055
-0.061
-0.066
-0.066
-0.064
-0.0625
-0.0615
-0.0565
-0.0495
-0.05
-0.054
-0.053
-0.0525
-0.048
-0.0535
-0.0585
-0.059
-0.064
-0.0695
-0.054
-0.028
-0.037
-0.049
-0.051
-0.0475
-0.0445
-0.0475
-0.0465
-0.048
-0.0455
-0.0405
-0.0395
-0.0385
-0.043
-0.0425
-0.039
-0.0485
-0.055
-0.0545
-0.054
-0.053
-0.058
-0.059
-0.0505
-0.0485
-0.0505
-0.0505
-0.045
-0.0455
-0.05
-0.0485
-0.049
-0.0525
-0.0495
-0.048
-0.049
-0.048
-0.0455
-0.0415
-0.0415
-0.038
-0.042
-0.0475
-0.0455
-0.045
-0.0455
-0.05
-0.053
-0.054
-0.055
-0.0585
-0.054
-0.0475
-0.0495
-0.0485
-0.0495
-0.048
-0.0445
-0.0455
-0.0425
-0.0415
-0.0395
-0.039
-0.044
-0.046
-0.0515
-0.052
-0.047
-0.045
-0.042
-0.0425
-0.042
-0.0415
-0.045
-0.046
-0.046
-0.044
-0.0415
-0.042
-0.042
-0.0425
-0.0435
-0.045
-0.043
-0.0355
-0.0385
-0.042
-0.0405
-0.046
-0.0465
-0.0415
-0.041
-0.046
-0.052
-0.049
-0.0445
-0.0395
-0.0335
-0.0315
-0.03
-0.0345
-0.0395
-0.0445
-0.0435
-0.0435
-0.054
-0.052
-0.0455
-0.047
-0.048
-0.046
-0.0465
-0.0465
-0.044
-0.043
-0.0415
-0.044
-0.045
-0.047
-0.046
-0.043
-0.044
-0.046
-0.0465
-0.0425
-0.0435
-0.0475
-0.047
-0.0445
-0.042
-0.0425
-0.0395
-0.0355
-0.038
-0.043
-0.0445
-0.0415
-0.0385
-0.0375
-0.034
-0.035
-0.0375
-0.037
-0.0395
-0.042
-0.041
-0.041
-0.041
-0.0355
-0.034
-0.034
-0.0335
-0.0355
-0.0345
-0.0365
-0.0385
-0.034
-0.0315
-0.0305
-0.028
-0.03
-0.03
-0.0275
-0.029
-0.0315
-0.028
-0.0265
-0.0315
-0.029
-0.03
-0.034
-0.0345
-0.0355
-0.034
-0.0315
-0.0335
-0.0345
-0.0315
-0.029
-0.0315
-0.0355
-0.033
-0.031
-0.0365
-0.033
-0.0295
-0.0275
-0.028
-0.0355
-0.0345
-0.0355
-0.035
-0.031
-0.0355
-0.0435
-0.046
-0.0375
-0.0365
-0.042
-0.0395
-0.04
-0.0405
-0.04
-0.038
-0.048
-0.051
-0.038
-0.04
-0.0415
-0.042
-0.0445
-0.0405
-0.0365
-0.039
-0.0405
-0.0455
-0.0485
-0.046
-0.048
-0.045
-0.0445
-0.0445
-0.0435
-0.0455
-0.044
-0.0485
-0.048
-0.0465
-0.052
-0.0505
-0.048
-0.0475
-0.0425
-0.038
-0.0385
-0.04
-0.0455
-0.051
-0.0545
-0.0535
-0.0505
-0.0485
-0.048
-0.0485
-0.0455
-0.0495
-0.051
-0.047
-0.041
-0.0395
-0.042
-0.0475
-0.0525
-0.047
-0.0485
-0.0465
-0.042
-0.0455
-0.045
-0.0445
-0.0465
-0.046
-0.0435
-0.04
-0.0425
-0.045
-0.043
-0.0465
-0.048
-0.0465
-0.0455
-0.044
-0.0435
-0.0485
-0.0505
-0.0455
-0.047
-0.049
-0.048
-0.0455
-0.048
-0.052
-0.047
-0.0425
-0.046
-0.047
-0.044
-0.043
-0.047
-0.0485
-0.0435
-0.0375
-0.036
-0.037
-0.037
-0.0425
-0.0485
-0.056
-0.057
-0.052
-0.052
-0.0495
-0.051
-0.05
-0.0485
-0.0485
-0.0495
-0.0555
-0.0545
-0.0555
-0.0605
-0.057
-0.0515
-0.052
-0.053
-0.0515
-0.052
-0.0515
-0.049
-0.0545
-0.057
-0.0555
-0.061
-0.065
-0.064
-0.0635
-0.0615
-0.062
-0.064
-0.062
-0.062
-0.059
-0.057
-0.0585
-0.0615
-0.07
-0.074
-0.071
-0.068
-0.063
-0.056
-0.058
-0.063
-0.0625
-0.062
-0.0585
-0.0525
-0.0535
-0.0575
-0.0585
-0.058
-0.059
-0.059
-0.0605
-0.058
-0.055
-0.057
-0.0565
-0.055
-0.054
-0.0535
-0.0515
-0.0545
-0.0535
-0.052
-0.0535
-0.052
-0.052
-0.0495
-0.0485
-0.0485
-0.0485
-0.049
-0.0485
-0.052
-0.0565
-0.0525
-0.046
-0.045
-0.045
-0.046
-0.044
-0.0445
-0.045
-0.0415
-0.0435
-0.05
-0.0515
-0.0565
-0.0585
-0.0525
-0.051
-0.049
-0.051
-0.0505
-0.0525
-0.0535
-0.052
-0.0475
-0.046
-0.0545
-0.0525
-0.0435
-0.043
-0.0485
-0.052
-0.0505
-0.051
-0.0555
-0.052
-0.05
-0.0535
-0.0575
-0.0605
-0.0565
-0.053
-0.052
-0.0515
-0.0495
-0.046
-0.0475
-0.0485
-0.0485
-0.0505
-0.0525
-0.0515
-0.0555
-0.0615
-0.0615
-0.061
-0.059
-0.061
-0.066
-0.0595
-0.051
-0.053
-0.056
-0.055
-0.056
-0.0545
-0.0545
-0.0525
-0.051
-0.0545
-0.053
-0.0555
-0.056
-0.055
-0.056
-0.06
-0.057
-0.0505
-0.054
-0.054
-0.056
-0.052
-0.0495
-0.0555
-0.0555
-0.055
-0.0575
-0.054
-0.0515
-0.0515
-0.049
-0.0485
-0.0465
-0.0425
-0.0455
-0.049
-0.048
-0.0485
-0.0465
-0.046
-0.049
-0.046
-0.0475
-0.045
-0.041
-0.0435
-0.0425
-0.0505
-0.0585
-0.055
-0.0515
-0.053
-0.053
-0.052
-0.0545
-0.058
-0.0565
-0.048
-0.0475
-0.049
-0.0445
-0.048
-0.055
-0.0565
-0.0535
-0.052
-0.054
-0.0565
-0.0605
-0.0585
-0.0525
-0.052
-0.0545
-0.053
-0.0525
-0.05
-0.0485
-0.0475
-0.046
-0.056
-0.059
-0.057
-0.058
-0.057
-0.055
-0.052
-0.0515
-0.0535
-0.0565
-0.056
-0.053
-0.0545
-0.0585
-0.058
-0.057
-0.0575
-0.0555
-0.055
-0.057
-0.057
-0.057
-0.0545
-0.052
-0.049
-0.043
-0.0485
-0.056
-0.0585
-0.059
-0.056
-0.053
-0.0505
-0.0515
-0.0525
-0.05
-0.052
-0.052
-0.0525
-0.053
-0.0505
-0.0545
-0.053
-0.051
-0.0495
-0.0485
-0.0515
-0.051
-0.0515
-0.048
-0.045
-0.0445
-0.0455
-0.0505
-0.045
-0.041
-0.045
-0.0465
-0.047
-0.0445
-0.047
-0.052
-0.0515
-0.0495
-0.0435
-0.0405
-0.042
-0.039
-0.04
-0.043
-0.044
-0.0445
-0.0395
-0.0385
-0.0475
-0.05
-0.048
-0.046
-0.0415
-0.0425
-0.0475
-0.053
-0.0535
-0.0545
-0.055
-0.0495
-0.0485
-0.048
-0.05
-0.048
-0.045
-0.049
-0.0555
-0.0585
-0.0545
-0.056
-0.0525
-0.053
-0.0545
-0.05
-0.0525
-0.0495
-0.0465
-0.051
-0.055
-0.057
-0.0485
-0.043
-0.0495
-0.049
-0.0435
-0.042
-0.044
-0.045
-0.0415
-0.045
-0.0495
-0.0475
-0.052
-0.054
-0.051
-0.054
-0.0535
-0.052
-0.052
-0.052
-0.0515
-0.052
-0.0495
-0.05
-0.05
-0.047
-0.048
-0.047
-0.0475
-0.0495
-0.05
-0.048
-0.0455
-0.044
-0.0395
-0.037
-0.038
-0.0355
-0.0365
-0.036
-0.0355
-0.0435
-0.053
-0.061
-0.0545
-0.0475
-0.049
-0.0485
-0.051
-0.0485
-0.0465
-0.048
-0.048
-0.0475
-0.0485
-0.049
-0.0535
-0.0525
-0.0485
-0.045
-0.0415
-0.0415
-0.0415
-0.039
-0.0355
-0.035
-0.034
-0.0365
-0.045
-0.0475
-0.0495
-0.05
-0.0475
-0.048
-0.0455
-0.048
-0.053
-0.054
-0.056
-0.0535
-0.047
-0.0435
-0.05
-0.0555
-0.0525
-0.0505
-0.0445
-0.045
-0.0475
-0.051
-0.058
-0.054
-0.0485
-0.047
-0.0425
-0.04
-0.0435
-0.049
-0.046
-0.04
-0.0385
-0.0385
-0.04
-0.0425
-0.0435
-0.043
-0.043
-0.045
-0.0445
-0.0425
-0.047
-0.048
-0.045
-0.0455
-0.0435
-0.0425
-0.0475
-0.0465
-0.046
-0.051
-0.046
-0.047
-0.0505
-0.048
-0.047
-0.0465
-0.0475
-0.0465
-0.0475
-0.049
-0.0465
-0.041
-0.0405
-0.0435
-0.04
-0.043
-0.0455
-0.044
-0.045
-0.0415
-0.04
-0.0485
-0.0525
-0.05
-0.043
-0.04
-0.046
-0.0445
-0.043
-0.046
-0.048
-0.046
-0.0445
-0.043
-0.0405
-0.0385
-0.0325
-0.026
-0.0205
-0.0265
-0.0325
-0.0305
-0.026
-0.0245
-0.0255
-0.026
-0.0305
-0.0255
-0.0205
-0.02
-0.01
-0.004
-0.0045
-0.0045
-0.0015
0.002
0.0
0.0005
0.007
0.012
0.019
0.015
0.006
0.0075
0.013
0.0235
0.027
0.0265
0.027
0.0275
0.0315
0.0375
0.0465
0.045
0.044
0.053
0.052
0.043
0.0345
0.035
0.038
0.0335
0.0385
0.0345
0.03
0.0285
0.024
0.026
0.029
0.036
0.033
0.032
0.0315
0.0335
0.036
0.0355
0.0425
0.0405
0.0415
0.04
0.039
0.041
0.0405
0.0395
0.039
0.041
0.0385
0.0355
0.0335
0.033
0.026
0.0215
0.024
0.027
0.026
0.0245
0.02
0.0055
0.003
0.0015
-0.0025
-0.0135
-0.03
-0.034
-0.035
-0.036
-0.043
-0.041
-0.04
-0.048
-0.049
-0.0495
-0.056
-0.063
-0.07
-0.0765
-0.0715
-0.07
-0.073
-0.0715
-0.0725
-0.072
-0.0685
-0.0635
-0.0565
-0.061
-0.0675
-0.0675
-0.071
-0.0685
-0.0605
-0.0595
-0.06
-0.0585
-0.0635
-0.066
-0.065
-0.0645
-0.0655
-0.0665
-0.0675
-0.073
-0.074
-0.075
-0.076
-0.0755
-0.0785
-0.08
-0.072
-0.07
-0.0715
-0.069
-0.0685
-0.067
-0.068
-0.066
-0.0655
-0.0635
-0.0615
-0.0625
-0.0635
-0.065
-0.0625
-0.065
-0.0685
-0.066
-0.065
-0.0655
-0.0685
-0.0645
-0.056
-0.055
-0.0595
-0.0615
-0.0655
-0.0645
-0.0575
-0.055
-0.0505
-0.0485
-0.0545
-0.0615
-0.0715
-0.081
-0.0825
-0.083
-0.0755
-0.0755
-0.086
-0.086
-0.0795
-0.0775
-0.074
-0.0655
-0.052
-0.0295
0.0055
0.0555
0.104
0.148
0.2005
0.247
0.2935
0.3535
0.403
0.449
0.4865
0.5275
0.578
0.5925
0.615
0.643
0.6285
0.6005
0.579
0.561
0.5275
0.509
0.511
0.4885
0.4435
0.41
0.3795
0.3275
0.2735
0.216
0.1435
0.0775
0.0295
-0.01
-0.0355
-0.059
-0.0915
-0.125
-0.1425
-0.139
-0.1325
-0.1205
-0.107
-0.0975
-0.0925
-0.099
-0.1
-0.093
-0.0845
-0.0775
-0.069
-0.062
-0.064
-0.068
-0.0665
-0.065
-0.068
-0.067
-0.067
-0.0665
-0.0645
-0.06
-0.0575
-0.0605
-0.0655
-0.0685
-0.0615
-0.06
-0.061
-0.0655
-0.067
-0.063
-0.063
-0.062
-0.0635
-0.062
-0.055
-0.0545
-0.0655
-0.0795
-0.0765
-0.067
-0.0645
-0.0605
-0.058
-0.0605
-0.06
-0.0595
-0.062
-0.0575
-0.0565
-0.0545
-0.0505
-0.0535
-0.056
-0.0555
-0.0585
-0.056
-0.054
-0.055
-0.049
-0.0495
-0.0575
-0.059
-0.0565
-0.054
-0.049
-0.05
-0.052
-0.058
-0.064
-0.0585
-0.0565
-0.058
-0.0555
-0.0555
-0.056
-0.0555
-0.055
-0.055
-0.0545
-0.055
-0.0535
-0.051
-0.056
-0.0575
-0.058
-0.0565
-0.0535
-0.052
-0.052
-0.055
-0.0525
-0.051
-0.0525
-0.0525
-0.0525
-0.0475
-0.045
-0.047
-0.0505
-0.0505
-0.044
-0.0495
-0.0505
-0.048
-0.0495
-0.0485
-0.0465
-0.043
-0.045
-0.0435
-0.044
-0.044
-0.0425
-0.043
-0.0465
-0.0545
-0.0565
-0.0605
-0.058
-0.0585
-0.061
-0.0555
-0.053
-0.0565
-0.0665
-0.0615
-0.0575
-0.058
-0.0585
-0.0625
-0.061
-0.0565
-0.048
-0.047
-0.0495
-0.0505
-0.0555
-0.0555
-0.0555
-0.0505
-0.0455
-0.048
-0.0475
-0.05
-0.048
-0.0475
-0.0485
-0.0415
-0.0385
-0.0405
-0.0415
-0.0415
-0.042
-0.04
-0.0405
-0.0485
-0.0495
-0.0495
-0.051
-0.0415
-0.0405
-0.0445
-0.0455
-0.0465
-0.0455
-0.048
-0.045
-0.0365
-0.035
-0.0375
-0.038
-0.038
-0.036
-0.0355
-0.0385
-0.0435
-0.046
-0.0445
-0.045
-0.0445
-0.0425
-0.043
-0.042
-0.041
-0.0415
-0.041
-0.0365
-0.0375
-0.0425
-0.041
-0.0395
-0.043
-0.044
-0.0475
-0.051
-0.05
-0.0465
-0.0445
-0.048
-0.045
-0.0425
-0.045
-0.0435
-0.043
-0.0415
-0.037
-0.0385
-0.0385
-0.0335
-0.033
-0.0415
-0.0415
-0.033
-0.032
-0.039
-0.0425
-0.04
-0.038
-0.041
-0.051
-0.0495
-0.046
-0.0485
-0.046
-0.0475
-0.045
-0.0375
-0.0355
-0.0355
-0.0355
-0.0355
-0.04
-0.045
-0.0415
-0.0365
-0.0375
-0.0365
-0.035
-0.042
-0.047
-0.042
-0.041
-0.042
-0.0445
-0.045
-0.04
-0.0385
-0.041
-0.0425
-0.043
-0.042
-0.0425
-0.0415
-0.038
-0.0405
-0.0435
-0.0455
-0.042
-0.038
-0.041
-0.042
-0.046
-0.0465
-0.0425
-0.0385
-0.042
-0.044
-0.04
-0.045
-0.048
-0.046
-0.049
-0.0515
-0.0485
-0.0445
-0.0435
-0.0435
-0.039
-0.0405
-0.0455
-0.048
-0.0475
-0.043
-0.0455
-0.0505
-0.049
-0.045
-0.0415
-0.0435
-0.042
-0.036
-0.035
-0.0345
-0.0325
-0.028
-0.03
-0.0305
-0.028
-0.038
-0.052
-0.0585
-0.058
-0.051
-0.042
-0.038
-0.0385
-0.036
-0.0375
-0.0375
-0.0335
-0.0335
-0.036
-0.0365
-0.0305
-0.032
-0.0315
-0.037
-0.048
-0.0445
-0.0435
-0.041
-0.038
-0.0385
-0.04
-0.04
-0.034
-0.032
-0.034
-0.033
-0.0375
-0.0435
-0.042
-0.041
-0.0415
-0.042
-0.036
-0.035
-0.0415
-0.0405
-0.036
-0.034
-0.039
-0.0405
-0.039
-0.0415
-0.038
-0.04
-0.0395
-0.04
-0.042
-0.0415
-0.0445
-0.0455
-0.045
-0.04
-0.042
-0.048
-0.0445
-0.0415
-0.042
-0.0395
-0.0395
-0.039
-0.034
-0.0335
-0.0385
-0.0415
-0.0415
-0.042
-0.0425
-0.0425
-0.04
-0.037
-0.0315
-0.0325
-0.0345
-0.0355
-0.036
-0.0355
-0.037
-0.03
-0.033
-0.035
-0.0345
-0.0345
-0.032
-0.04
-0.05
-0.06
-0.055
-0.049
-0.045
-0.0385
-0.0415
-0.049
-0.0505
-0.0485
-0.0475
-0.0485
-0.044
-0.036
-0.0375
-0.042
-0.0435
-0.0465
-0.048
-0.0475
-0.0485
-0.047
-0.046
-0.044
-0.0415
-0.0495
-0.0505
-0.0475
-0.047
-0.0485
-0.0525
-0.054
-0.051
-0.048
-0.0475
-0.047
-0.049
-0.0475
-0.0465
-0.0485
-0.0485
-0.0485
-0.0535
-0.0565
-0.055
-0.051
-0.0485
-0.0495
-0.0555
-0.061
-0.0585
-0.0575
-0.057
-0.0555
-0.0555
-0.054
-0.057
-0.055
-0.0545
-0.0595
-0.0535
-0.052
-0.0575
-0.057
-0.057
-0.0615
-0.0605
-0.06
-0.064
-0.064
-0.062
-0.0645
-0.068
-0.0715
-0.0665
-0.062
-0.065
-0.0655
-0.065
-0.067
-0.072
-0.065
-0.061
-0.067
-0.0665
-0.0705
-0.0645
-0.0595
-0.0685
-0.07
-0.064
-0.062
-0.0575
-0.0555
-0.0585
-0.063
-0.0785
-0.083
-0.0815
-0.0775
-0.07
-0.073
-0.0725
-0.0725
-0.0735
-0.0735
-0.0725
-0.079
-0.0805
-0.075
-0.076
-0.073
-0.0755
-0.0775
-0.074
-0.0725
-0.075
-0.0755
-0.068
-0.066
-0.069
-0.0725
-0.0765
-0.071
-0.0695
-0.0725
-0.073
-0.076
-0.0755
-0.073
-0.0805
-0.0855
-0.0795
-0.0805
-0.0775
-0.0715
-0.0705
-0.0765
-0.085
-0.081
-0.08
-0.0795
-0.076
-0.077
-0.079
-0.079
-0.0795
-0.0795
-0.0725
-0.0675
-0.0725
-0.074
-0.0685
-0.0705
-0.071
-0.0655
-0.0655
-0.066
-0.071
-0.074
-0.0715
-0.072
-0.074
-0.0755
-0.0705
-0.067
-0.0695
-0.068
-0.067
-0.0645
-0.0655
-0.063
-0.0585
-0.0595
-0.054
-0.0565
-0.068
-0.078
-0.08
-0.072
-0.067
-0.063
-0.0665
-0.0675
-0.066
-0.0715
-0.071
-0.067
-0.0655
-0.068
-0.065
-0.0615
-0.0615
-0.06
-0.063
-0.0685
-0.065
-0.0635
-0.065
-0.065
-0.0685
-0.0635
-0.063
-0.0635
-0.063
-0.065
-0.06
-0.058
-0.0575
-0.0585
-0.0625
-0.0675
-0.0675
-0.0645
-0.06
-0.0555
-0.0555
-0.057
-0.0565
-0.055
-0.058
-0.0575
-0.065
-0.0735
-0.0665
-0.067
-0.0695
-0.0645
-0.0585
-0.0665
-0.0685
-0.062
-0.066
-0.0645
-0.061
-0.063
-0.06
-0.0595
-0.0645
-0.0625
-0.0605
-0.06
-0.0595
-0.061
-0.0595
-0.0555
-0.056
-0.057
-0.061
-0.0615
-0.062
-0.061
-0.059
-0.061
-0.061
-0.062
-0.0595
-0.059
-0.0595
-0.055
-0.056
-0.057
-0.0535
-0.052
-0.056
-0.0575
-0.056
-0.057
-0.0515
-0.0515
-0.0585
-0.057
-0.055
-0.049
-0.046
-0.053
-0.0585
-0.057
-0.056
-0.0585
-0.0535
-0.0525
-0.0555
-0.0565
-0.0595
-0.0575
-0.0565
-0.0575
-0.0525
-0.05
-0.0495
-0.049
-0.0485
-0.046
-0.048
-0.047
-0.0435
-0.0485
-0.049
-0.0425
-0.0455
-0.0535
-0.056
-0.0525
-0.0485
-0.0445
-0.0435
-0.046
-0.052
-0.0555
-0.0525
-0.057
-0.0615
-0.0605
-0.057
-0.053
-0.052
-0.05
-0.0515
-0.0525
-0.052
-0.056
-0.0585
-0.058
-0.0595
-0.0605
-0.0595
-0.061
-0.062
-0.0625
-0.0595
-0.054
-0.0515
-0.05
-0.0545
-0.055
-0.0495
-0.049
-0.0455
-0.049
-0.057
-0.0555
-0.0485
-0.0495
-0.0465
-0.046
-0.046
-0.0415
-0.044
-0.043
-0.045
-0.045
-0.0455
-0.049
-0.047
-0.0535
-0.061
-0.0515
-0.047
-0.0485
-0.0445
-0.0495
-0.051
-0.0525
-0.0655
-0.0595
-0.0495
-0.0525
-0.05
-0.05
-0.0525
-0.0525
-0.053
-0.052
-0.051
-0.048
-0.047
-0.0505
-0.0485
-0.0425
-0.042
-0.045
-0.052
-0.057
-0.055
-0.0545
-0.0585
-0.056
-0.0565
-0.0595
-0.0605
-0.061
-0.058
-0.0565
-0.054
-0.0545
-0.058
-0.059
-0.0575
-0.059
-0.054
-0.0495
-0.0615
-0.067
-0.058
-0.052
-0.0565
-0.0625
-0.0695
-0.073
-0.0655
-0.058
-0.056
-0.061
-0.06
-0.057
-0.058
-0.0575
-0.0565
-0.0555
-0.059
-0.0575
-0.0575
-0.0595
-0.06
-0.063
-0.0655
-0.065
-0.061
-0.06
-0.0615
-0.0585
-0.054
-0.052
-0.0555
-0.0535
-0.049
-0.054
-0.054
-0.0545
-0.0525
-0.048
-0.053
-0.057
-0.0605
-0.0575
-0.052
-0.049
-0.053
-0.0525
-0.0555
-0.064
-0.0605
-0.0675
-0.0715
-0.0665
-0.0665
-0.0625
-0.0615
-0.058
-0.061
-0.066
-0.065
-0.064
-0.0615
-0.0625
-0.064
-0.062
-0.062
-0.062
-0.0585
-0.0585
-0.059
-0.061
-0.057
-0.0545
-0.0605
-0.059
-0.0615
-0.0655
-0.065
-0.059
-0.058
-0.0655
-0.0695
-0.0675
-0.0635
-0.065
-0.0645
-0.0595
-0.051
-0.0515
-0.054
-0.0515
-0.057
-0.0555
-0.0475
-0.051
-0.0555
-0.056
-0.058
-0.0575
-0.0525
-0.0535
-0.05
-0.048
-0.0535
-0.054
-0.0535
-0.0485
-0.0515
-0.0495
-0.0425
-0.04
-0.0345
-0.034
-0.031
-0.036
-0.038
-0.035
-0.0385
-0.0405
-0.038
-0.034
-0.039
-0.0445
-0.044
-0.035
-0.0295
-0.029
-0.0285
-0.034
-0.031
-0.0265
-0.0255
-0.0325
-0.0405
-0.0285
-0.0165
-0.014
-0.0155
-0.0145
-0.013
-0.013
-0.01
-0.0105
-0.007
0.001
0.008
0.0095
0.009
0.0115
0.0135
0.013
0.011
0.0125
0.013
0.0245
0.033
0.0275
0.0295
0.028
0.027
0.0245
0.0215
0.023
0.0175
0.0155
0.0135
0.013
0.0165
0.0135
0.0175
0.026
0.0265
0.0255
0.0225
0.0245
0.0275
0.023
0.02
0.029
0.0355
0.033
0.035
0.0365
0.0345
0.039
0.0415
0.032
0.0245
0.0305
0.029
0.025
0.026
0.022
0.0255
0.0275
0.027
0.03
0.024
0.0075
0.0035
-0.002
-0.011
-0.008
-0.014
-0.0205
-0.0215
-0.0255
-0.0295
-0.034
-0.041
-0.0415
-0.0415
-0.0485
-0.052
-0.064
-0.066
-0.058
-0.062
-0.063
-0.0695
-0.071
-0.0685
-0.067
-0.0615
-0.0585
-0.0575
-0.0595
-0.0605
-0.06
-0.0565
-0.0565
-0.0625
-0.0615
-0.0645
-0.0665
-0.0645
-0.06
-0.055
-0.0545
-0.057
-0.0575
-0.056
-0.051
-0.05
-0.0555
-0.054
-0.0595
-0.063
-0.06
-0.058
-0.0555
-0.056
-0.055
-0.057
-0.0585
-0.0585
-0.0565
-0.053
-0.055
-0.06
-0.063
-0.0615
-0.062
-0.0625
-0.0645
-0.0655
-0.056
-0.058
-0.061
-0.055
-0.0575
-0.059
-0.057
-0.052
-0.054
-0.0555
-0.053
-0.0585
-0.0555
-0.0495
-0.048
-0.0455
-0.0505
-0.0555
-0.0615
-0.0775
-0.086
-0.086
-0.0765
-0.0735
-0.0815
-0.0965
-0.1
-0.087
-0.081
-0.0685
-0.0555
-0.0265
0.006
0.0375
0.0845
0.125
0.173
0.2205
0.269
0.3285
0.378
0.4315
0.4785
0.504
0.5505
0.573
0.584
0.6095
0.597
0.5735
0.5485
0.5345
0.5105
0.4865
0.489
0.472
0.4325
0.397
0.3675
0.3215
0.2665
0.22
0.157
0.0905
0.04
0.0
-0.027
-0.048
-0.0735
-0.106
-0.1315
-0.1375
-0.1275
-0.1165
-0.107
-0.097
-0.09
-0.0885
-0.095
-0.0935
-0.0865
-0.08
-0.075
-0.071
-0.068
-0.068
-0.064
-0.065
-0.066
-0.065
-0.0605
-0.0575
-0.059
-0.0605
-0.069
-0.069
-0.0635
-0.0625
-0.0615
-0.066
-0.0725
-0.07
-0.0605
-0.0585
-0.0595
-0.056
-0.056
-0.0575
-0.0555
-0.051
-0.048
-0.055
-0.065
-0.0645
-0.0585
-0.0605
-0.07
-0.076
-0.0745
-0.0715
-0.0685
-0.064
-0.065
-0.0645
-0.062
-0.06
-0.058
-0.057
-0.064
-0.064
-0.0565
-0.057
-0.058
-0.0655
-0.067
-0.062
-0.0605
-0.062
-0.0605
-0.0555
-0.055
-0.0555
-0.055
-0.053
-0.052
-0.05
-0.0545
-0.0585
-0.056
-0.0515
-0.0515
-0.0555
-0.0555
-0.056
-0.0575
-0.056
-0.0545
-0.0585
-0.055
-0.054
-0.0565
-0.056
-0.055
-0.053
-0.056
-0.053
-0.0545
-0.062
-0.0585
-0.055
-0.0555
-0.0545
-0.059
-0.0615
-0.0595
-0.0575
-0.056
-0.057
-0.046
-0.0475
-0.056
-0.0525
-0.054
-0.0525
-0.0525
-0.049
-0.0505
-0.0555
-0.0565
-0.0495
-0.0435
-0.0485
-0.0485
-0.048
-0.0495
-0.045
-0.047
-0.054
-0.0545
-0.053
-0.0465
-0.047
-0.0445
-0.0365
-0.0405
-0.0505
-0.055
-0.0605
-0.06
-0.0565
-0.0585
-0.0515
-0.0535
-0.0585
-0.0625
-0.0625
-0.058
-0.0585
-0.0535
-0.051
-0.0565
-0.052
-0.0455
-0.0455
-0.051
-0.0575
-0.056
-0.059
-0.058
-0.0555
-0.0525
-0.053
-0.0555
-0.0525
-0.053
-0.049
-0.0525
-0.054
-0.054
-0.0625
-0.056
-0.049
-0.056
-0.0575
-0.0505
-0.0535
-0.056
-0.058
-0.055
-0.0465
-0.0485
-0.048
-0.053
-0.055
-0.0495
-0.0465
-0.0475
-0.0475
-0.0445
-0.051
-0.0515
-0.0485
-0.0485
-0.05
-0.052
-0.0485
-0.05
-0.048
-0.044
-0.0475
-0.048
-0.0455
-0.043
-0.0375
-0.0375
-0.046
-0.0515
-0.0485
-0.044
-0.046
-0.0465
-0.0465
-0.049
-0.049
-0.0475
-0.0425
-0.0395
-0.0365
-0.0365
-0.037
-0.035
-0.0375
-0.039
-0.047
-0.048
-0.043
-0.044
-0.0445
-0.044
-0.043
-0.043
-0.0445
-0.044
-0.038
-0.0345
-0.046
-0.0525
-0.0505
-0.05
-0.0465
-0.049
-0.047
-0.045
-0.045
-0.042
-0.0435
-0.0375
-0.039
-0.0425
-0.04
-0.0465
-0.0505
-0.046
-0.0445
-0.0435
-0.0405
-0.045
-0.0415
-0.032
-0.0355
-0.044
-0.0475
-0.0455
-0.0445
-0.0435
-0.0415
-0.044
-0.044
-0.041
-0.039
-0.0385
-0.042
-0.0405
-0.0385
-0.0375
-0.0345
-0.041
-0.0375
-0.031
-0.0345
-0.035
-0.0375
-0.0355
-0.036
-0.0375
-0.038
-0.039
-0.034
-0.0355
-0.0375
-0.0355
-0.037
-0.036
-0.036
-0.035
-0.037
-0.0375
-0.036
-0.0385
-0.0315
-0.0335
-0.039
-0.0365
-0.0355
-0.038
-0.0355
-0.0345
-0.034
-0.036
-0.0425
-0.044
-0.041
-0.0365
-0.037
-0.0335
-0.031
-0.0305
-0.028
-0.028
-0.032
-0.0355
-0.0325
-0.031
-0.031
-0.039
-0.0375
-0.0375
-0.0415
-0.038
-0.041
-0.0465
-0.0555
-0.052
-0.048
-0.0445
-0.0375
-0.0355
-0.04
-0.0505
-0.046
-0.0415
-0.0385
-0.0335
-0.0435
-0.0435
-0.0375
-0.042
-0.045
-0.0445
-0.0415
-0.0415
-0.0425
-0.04
-0.0365
-0.04
-0.0445
-0.044
-0.0405
-0.042
-0.043
-0.041
-0.0455
-0.0465
-0.044
-0.0465
-0.048
-0.049
-0.043
-0.0375
-0.0415
-0.04
-0.037
-0.0425
-0.0465
-0.045
-0.045
-0.048
-0.047
-0.0445
-0.0495
-0.0485
-0.051
-0.054
-0.0495
-0.054
-0.0535
-0.0495
-0.0475
-0.0435
-0.048
-0.04
-0.033
-0.0385
-0.037
-0.0425
-0.0485
-0.052
-0.057
-0.053
-0.052
-0.0515
-0.0465
-0.0455
-0.044
-0.045
-0.0435
-0.044
-0.0455
-0.047
-0.052
-0.049
-0.0465
-0.047
-0.0465
-0.0405
-0.032
-0.0315
-0.0425
-0.0505
-0.0495
-0.0485
-0.0435
-0.041
-0.039
-0.036
-0.0345
-0.0375
-0.043
-0.049
-0.057
-0.055
-0.0495
-0.0455
-0.042
-0.0425
-0.0495
-0.0525
-0.052
-0.052
-0.044
-0.047
-0.054
-0.0495
-0.051
-0.053
-0.0555
-0.053
-0.05
-0.0555
-0.052
-0.048
-0.0495
-0.0525
-0.0555
-0.0525
-0.0515
-0.0505
-0.0485
-0.0445
-0.042
-0.048
-0.051
-0.048
-0.043
-0.0435
-0.047
-0.0445
-0.0535
-0.058
-0.0505
-0.0475
-0.04
-0.0385
-0.044
-0.0455
-0.047
-0.0455
-0.0415
-0.0445
-0.0495
-0.053
-0.0555
-0.051
-0.046
-0.048
-0.048
-0.048
-0.048
-0.0495
-0.0525
-0.054
-0.051
-0.049
-0.0535
-0.055
-0.057
-0.052
-0.0495
-0.0545
-0.054
-0.0545
-0.053
-0.054
-0.058
-0.0625
-0.065
-0.0635
-0.061
-0.0585
-0.06
-0.0615
-0.062
-0.06
-0.057
-0.0525
-0.0555
-0.0625
-0.064
-0.07
-0.0655
-0.061
-0.0665
-0.069
-0.0645
-0.0585
-0.0595
-0.067
-0.066
-0.0545
-0.0525
-0.0555
-0.058
-0.0585
-0.0585
-0.0535
-0.0445
-0.0495
-0.0585
-0.057
-0.053
-0.0545
-0.055
-0.0555
-0.0525
-0.0515
-0.051
-0.0475
-0.0515
-0.0525
-0.055
-0.057
-0.056
-0.0585
-0.054
-0.051
-0.0515
-0.052
-0.053
-0.0525
-0.0515
-0.049
-0.0435
-0.047
-0.048
-0.041
-0.0445
-0.0435
-0.0485
-0.05
-0.0455
-0.055
-0.052
-0.049
-0.051
-0.0485
-0.051
-0.053
-0.0515
-0.051
-0.0525
-0.05
-0.048
-0.051
-0.0515
-0.054
-0.0545
-0.0485
-0.0475
-0.049
-0.042
-0.049
-0.0525
-0.0445
-0.053
-0.048
-0.039
-0.0485
-0.054
-0.0475
-0.0425
-0.0425
-0.0475
-0.054
-0.06
-0.0575
-0.0445
-0.039
-0.0395
-0.039
-0.044
-0.047
-0.045
-0.0405
-0.037
-0.0335
-0.032
-0.036
-0.041
-0.051
-0.0465
-0.0415
-0.0445
-0.047
-0.048
-0.0415
-0.0435
-0.042
-0.0425
-0.0445
-0.044
-0.0415
-0.0385
-0.0445
-0.0435
-0.0415
-0.043
-0.044
-0.044
-0.041
-0.0465
-0.0475
-0.046
-0.0475
-0.044
-0.047
-0.045
-0.0425
-0.0445
-0.046
-0.0495
-0.045
-0.043
-0.0385
-0.0395
-0.0425
-0.043
-0.0515
-0.049
-0.0425
-0.0425
-0.0415
-0.0415
-0.0425
-0.0445
-0.038
-0.0365
-0.04
-0.037
-0.0415
-0.04
-0.0395
-0.0455
-0.0415
-0.0435
-0.0455
-0.0485
-0.0495
-0.0385
-0.033
-0.0355
-0.038
-0.038
-0.035
-0.0325
-0.0345
-0.0375
-0.0405
-0.043
-0.044
-0.0415
-0.043
-0.055
-0.051
-0.0435
-0.0425
-0.041
-0.0435
-0.033
-0.033
-0.038
-0.0395
-0.0445
-0.0465
-0.044
-0.042
-0.0415
-0.04
-0.0445
-0.049
-0.051
-0.0395
-0.0355
-0.0395
-0.038
-0.0385
-0.0325
-0.0365
-0.0445
-0.042
-0.0385
-0.0415
-0.0425
-0.045
-0.047
-0.04
-0.035
-0.0365
-0.0425
-0.048
-0.046
-0.0395
-0.041
-0.041
-0.0375
-0.04
-0.037
-0.031
-0.031
-0.034
-0.0345
-0.038
-0.042
-0.0375
-0.0365
-0.0425
-0.039
-0.0325
-0.028
-0.03
-0.04
-0.037
-0.0345
-0.037
-0.0325
-0.031
-0.038
-0.0395
-0.034
-0.0335
-0.0355
-0.034
-0.0305
-0.0345
-0.0385
-0.036
-0.036
-0.037
-0.0355
-0.0355
-0.0375
-0.0385
-0.0285
-0.0245
-0.023
-0.019
-0.0315
-0.0335
-0.0275
-0.0285
-0.0325
-0.04
-0.037
-0.0335
-0.034
-0.033
-0.0335
-0.0325
-0.037
-0.034
-0.0335
-0.0395
-0.039
-0.034
-0.0325
-0.0315
-0.0265
-0.037
-0.0435
-0.0425
-0.043
-0.036
-0.0365
-0.0305
-0.025
-0.034
-0.027
-0.023
-0.027
-0.027
-0.0355
-0.041
-0.047
-0.0465
-0.0375
-0.035
-0.0355
-0.032
-0.0325
-0.031
-0.028
-0.0335
-0.0385
-0.036
-0.033
-0.0295
-0.022
-0.027
-0.033
-0.0355
-0.0335
-0.0325
-0.0365
-0.0345
-0.034
-0.0365
-0.0375
-0.035
-0.03
-0.0275
-0.029
-0.028
-0.0275
-0.024
-0.0215
-0.021
-0.0205
-0.0295
-0.0275
-0.0265
-0.03
-0.0295
-0.031
-0.0335
-0.031
-0.026
-0.029
-0.0275
-0.0275
-0.0285
-0.0315
-0.036
-0.0325
-0.028
-0.0305
-0.034
-0.0315
-0.028
-0.025
-0.03
-0.033
-0.0315
-0.0335
-0.0395
-0.0375
-0.034
-0.035
-0.029
-0.0285
-0.0285
-0.026
-0.034
-0.0425
-0.0455
-0.043
-0.037
-0.036
-0.038
-0.0355
-0.0285
-0.0235
-0.025
-0.03
-0.031
-0.0235
-0.0195
-0.0245
-0.03
-0.0275
-0.0175
-0.018
-0.025
-0.027
-0.0265
-0.029
-0.026
-0.0265
-0.029
-0.023
-0.025
-0.0295
-0.026
-0.018
-0.0175
-0.016
-0.009
-0.0105
-0.017
-0.016
-0.0135
-0.0205
-0.0195
-0.014
-0.007
0.002
0.001
-0.0005
0.0015
0.002
0.004
0.006
0.0025
0.0015
0.0015
0.001
0.008
0.016
0.022
0.0235
0.0255
0.0315
0.031
0.028
0.0295
0.028
0.026
0.032
0.029
0.0185
0.021
0.033
0.035
0.0315
0.0325
0.034
0.0325
0.027
0.0215
0.017
0.016
0.0235
0.027
0.026
0.029
0.03
0.0315
0.034
0.0365
0.036
0.034
0.034
0.033
0.034
0.0355
0.04
0.047
0.043
0.0385
0.037
0.0315
0.0275
0.0335
0.0285
0.024
0.036
0.039
0.031
0.0235
0.019
0.011
0.0035
0.004
-0.007
-0.006
0.0025
-0.0035
-0.0025
-0.014
-0.025
-0.028
-0.037
-0.042
-0.043
-0.0415
-0.0465
-0.0495
-0.0485
-0.05
-0.046
-0.0485
-0.0635
-0.0665
-0.062
-0.0565
-0.0535
-0.057
-0.0555
-0.0635
-0.0675
-0.059
-0.0595
-0.055
-0.0545
-0.058
-0.0535
-0.053
-0.0435
-0.0435
-0.057
-0.059
-0.053
-0.0495
-0.0495
-0.0505
-0.0535
-0.055
-0.048
-0.0415
-0.0425
-0.0445
-0.0455
-0.0415
-0.0525
-0.059
-0.0485
-0.049
-0.0435
-0.041
-0.0425
-0.039
-0.033
-0.0355
-0.0365
-0.0285
-0.0345
-0.034
-0.034
-0.0345
-0.038
-0.0425
-0.036
-0.039
-0.038
-0.0345
-0.034
-0.0315
-0.031
-0.0245
-0.018
-0.019
-0.02
-0.0145
-0.014
-0.019
-0.0285
-0.0445
-0.0495
-0.05
-0.053
-0.0545
-0.062
-0.062
-0.0675
-0.0645
-0.059
-0.06
-0.0465
-0.0305
-0.0005
0.039
0.0755
0.1145
0.158
0.207
0.2515
0.2965
0.347
0.396
0.4485
0.4835
0.518
0.56
0.572
0.59
0.5995
0.5795
0.559
0.543
0.526
0.497
0.4875
0.492
0.472
0.428
0.403
0.3755
0.3135
0.2635
0.215
0.1495
0.0975
0.053
0.0135
-0.0085
-0.0265
-0.0565
-0.0865
-0.1005
-0.101
-0.0955
-0.0955
-0.084
-0.068
-0.063
-0.063
-0.069
-0.062
-0.0545
-0.061
-0.0595
-0.05
-0.052
-0.054
-0.0505
-0.0525
-0.052
-0.0505
-0.0455
-0.0445
-0.0545
-0.051
-0.047
-0.0495
-0.045
-0.0465
-0.0485
-0.0485
-0.047
-0.047
-0.0455
-0.0405
-0.0415
-0.039
-0.0385
-0.04
-0.045
-0.0485
-0.045
-0.048
-0.047
-0.0425
-0.043
-0.0475
-0.046
-0.0395
-0.042
-0.038
-0.0395
-0.037
-0.035
-0.0425
-0.034
-0.0345
-0.038
-0.035
-0.036
-0.0315
-0.033
-0.0355
-0.0345
-0.0355
-0.034
-0.037
-0.037
-0.039
-0.042
-0.0395
-0.0395
-0.038
-0.0425
-0.0465
-0.037
-0.0325
-0.037
-0.0355
-0.0335
-0.032
-0.027
-0.0285
-0.035
-0.036
-0.032
-0.031
-0.0305
-0.027
-0.024
-0.024
-0.026
-0.029
-0.0245
-0.019
-0.026
-0.0385
-0.043
-0.0335
-0.0275
-0.032
-0.0335
-0.0275
-0.024
-0.03
-0.028
-0.026
-0.031
-0.033
-0.038
-0.0385
-0.035
-0.035
-0.038
-0.041
-0.036
-0.033
-0.0345
-0.037
-0.041
-0.0405
-0.0425
-0.0465
-0.044
-0.0375
-0.035
-0.0335
-0.033
-0.0355
-0.0325
-0.03
-0.028
-0.026
-0.0225
-0.021
-0.027
-0.0325
-0.0295
-0.027
-0.029
-0.026
-0.024
-0.024
-0.028
-0.0325
-0.0315
-0.029
-0.0305
-0.032
-0.032
-0.0285
-0.025
-0.0285
-0.026
-0.0255
-0.031
-0.0305
-0.031
-0.033
-0.025
-0.0225
-0.0255
-0.0295
-0.0355
-0.0305
-0.025
-0.0255
-0.0255
-0.0275
-0.035
-0.037
-0.0345
-0.0355
-0.031
-0.026
-0.0295
-0.0315
-0.029
-0.023
-0.02
-0.0245
-0.026
-0.023
-0.019
-0.021
-0.0275
-0.034
-0.035
-0.031
-0.0315
-0.031
-0.0285
-0.032
-0.0325
-0.0275
-0.022
-0.019
-0.0255
-0.0295
-0.031
-0.0305
-0.0265
-0.0255
-0.027
-0.0285
-0.0285
-0.037
-0.036
-0.0305
-0.0345
-0.0305
-0.027
-0.024
-0.0265
-0.0245
-0.0215
-0.0255
-0.025
-0.024
-0.022
-0.0205
-0.023
-0.026
-0.0265
-0.026
-0.024
-0.0235
-0.0215
-0.0205
-0.021
-0.018
-0.0165
-0.0135
-0.02
-0.0205
-0.0175
-0.0215
-0.022
-0.0225
-0.0175
-0.0145
-0.0145
-0.0135
-0.0225
-0.0295
-0.0315
-0.0295
-0.023
-0.028
-0.031
-0.0305
-0.031
-0.03
-0.031
-0.029
-0.024
-0.0215
-0.0245
-0.019
-0.0185
-0.0245
-0.024
-0.0215
-0.0165
-0.0205
-0.018
-0.0165
-0.0315
-0.035
-0.0365
-0.0345
-0.0275
-0.0295
-0.029
-0.0265
-0.0245
-0.0255
-0.0285
-0.026
-0.021
-0.0245
-0.0235
-0.0265
-0.0265
-0.019
-0.0275
-0.0265
-0.023
-0.0235
-0.026
-0.0295
-0.0275
-0.0345
-0.0295
-0.0215
-0.032
-0.0325
-0.029
-0.0285
-0.028
-0.0295
-0.03
-0.0325
-0.0325
-0.0305
-0.0285
-0.022
-0.013
-0.0155
-0.0185
-0.0165
-0.018
-0.016
-0.019
-0.0205
-0.02
-0.0215
-0.024
-0.0215
-0.016
-0.0165
-0.019
-0.0185
-0.011
-0.013
-0.018
-0.0205
-0.0165
-0.012
-0.0135
-0.011
-0.0165
-0.0225
-0.0195
-0.0145
-0.0175
-0.02
-0.0165
-0.02
-0.0145
-0.0115
-0.015
-0.014
-0.014
-0.0115
-0.0105
-0.006
-0.0085
-0.015
-0.0055
-0.007
-0.019
-0.0195
-0.013
-0.0095
-0.01
-0.011
-0.012
-0.0115
-0.014
-0.018
-0.0155
-0.0155
-0.027
-0.031
-0.0245
-0.021
-0.021
-0.0205
-0.0185
-0.013
-0.0135
-0.023
-0.0275
-0.0285
-0.0235
-0.024
-0.0305
-0.029
-0.0305
-0.0295
-0.0265
-0.0275
-0.0255
-0.0215
-0.0215
-0.0205
-0.0205
-0.0265
-0.026
-0.0235
-0.023
-0.0175
-0.0145
-0.0155
-0.017
-0.0155
-0.014
-0.0175
-0.0195
-0.0215
-0.0205
-0.024
-0.0325
-0.0265
-0.0185
-0.0155
-0.0155
-0.017
-0.015
-0.012
-0.013
-0.0185
-0.02
-0.0205
-0.025
-0.028
-0.0285
-0.025
-0.02
-0.0275
-0.0285
-0.027
-0.0235
-0.0155
-0.0195
-0.0255
-0.019
-0.014
-0.014
-0.0125
-0.0135
-0.0085
-0.016
-0.0175
-0.0075
-0.01
-0.0145
-0.012
-0.007
-0.0185
-0.0245
-0.017
-0.021
-0.0225
-0.033
-0.033
-0.0255
-0.026
-0.026
-0.0245
-0.023
-0.0265
-0.0265
-0.024
-0.0215
-0.0285
-0.03
-0.0285
-0.027
-0.018
-0.0165
-0.0235
-0.0235
-0.021
-0.0265
-0.031
-0.037
-0.0405
-0.035
-0.0315
-0.027
-0.0265
-0.0335
-0.0355
-0.0335
-0.0255
-0.03
-0.0345
-0.0295
-0.0385
-0.043
-0.0375
-0.035
-0.038
-0.0365
-0.027
-0.0255
-0.0335
-0.0315
-0.0305
-0.031
-0.027
-0.031
-0.0275
-0.027
-0.032
-0.037
-0.044
-0.041
-0.0365
-0.032
-0.031
-0.029
-0.0275
-0.0305
-0.031
-0.036
-0.039
-0.036
-0.0335
-0.04
-0.04
-0.0375
-0.038
-0.0335
-0.031
-0.0345
-0.0425
-0.0355
-0.031
-0.034
-0.037
-0.039
-0.0355
-0.0405
-0.041
-0.037
-0.036
-0.0325
-0.0385
-0.0445
-0.038
-0.04
-0.037
-0.0375
-0.0415
-0.0375
-0.033
-0.037
-0.0505
-0.0475
-0.043
-0.0505
-0.0495
-0.0485
-0.0485
-0.045
-0.0445
-0.048
-0.0485
-0.0465
-0.046
-0.0415
-0.0355
-0.038
-0.0415
-0.0385
-0.0325
-0.0325
-0.0425
-0.047
-0.0465
-0.0425
-0.038
-0.0415
-0.0455
-0.045
-0.042
-0.0415
-0.0455
-0.0435
-0.0405
-0.041
-0.042
-0.0415
-0.043
-0.047
-0.0475
-0.049
-0.0455
-0.047
-0.043
-0.038
-0.0425
-0.0415
-0.042
-0.047
-0.05
-0.047
-0.042
-0.043
-0.049
-0.0415
-0.036
-0.037
-0.0375
-0.043
-0.043
-0.0355
-0.033
-0.0365
-0.034
-0.037
-0.0435
-0.0505
-0.049
-0.036
-0.0375
-0.0405
-0.042
-0.047
-0.0445
-0.0425
-0.037
-0.038
-0.0415
-0.0395
-0.04
-0.0395
-0.0375
-0.035
-0.0345
-0.033
-0.036
-0.0345
-0.035
-0.038
-0.037
-0.0385
-0.033
-0.026
-0.0285
-0.0385
-0.0405
-0.033
-0.034
-0.041
-0.04
-0.0355
-0.035
-0.0305
-0.0285
-0.034
-0.0365
-0.0385
-0.0355
-0.0315
-0.0285
-0.0275
-0.028
-0.0245
-0.0245
-0.022
-0.02
-0.019
-0.025
-0.0305
-0.025
-0.0255
-0.029
-0.0265
-0.0275
-0.0275
-0.0265
-0.0315
-0.0315
-0.0235
-0.023
-0.029
-0.028
-0.032
-0.039
-0.0375
-0.0335
-0.0295
-0.031
-0.032
-0.033
-0.033
-0.0265
-0.028
-0.032
-0.0365
-0.035
-0.0365
-0.0355
-0.0235
-0.026
-0.034
-0.0355
-0.0335
-0.0295
-0.028
-0.031
-0.0295
-0.022
-0.0215
-0.025
-0.031
-0.031
-0.027
-0.033
-0.0315
-0.022
-0.019
-0.017
-0.024
-0.029
-0.03
-0.0285
-0.024
-0.022
-0.018
-0.02
-0.0195
-0.0235
-0.0245
-0.025
-0.0355
-0.0365
-0.031
-0.0235
-0.0245
-0.0245
-0.023
-0.0295
-0.0275
-0.026
-0.021
-0.019
-0.0175
-0.013
-0.0235
-0.0245
-0.0155
-0.0155
-0.0225
-0.0255
-0.026
-0.0285
-0.0305
-0.029
-0.0285
-0.031
-0.029
-0.0245
-0.021
-0.0215
-0.028
-0.027
-0.0175
-0.019
-0.016
-0.0175
-0.023
-0.02
-0.0205
-0.023
-0.026
-0.024
-0.02
-0.0225
-0.023
-0.017
-0.0205
-0.023
-0.017
-0.02
-0.023
-0.022
-0.022
-0.024
-0.025
-0.0215
-0.026
-0.026
-0.026
-0.0195
-0.0095
-0.0205
-0.0255
-0.03
-0.0245
-0.017
-0.0315
-0.032
-0.0295
-0.032
-0.029
-0.0305
-0.0305
-0.0295
-0.024
-0.019
-0.019
-0.0195
-0.022
-0.022
-0.023
-0.0235
-0.023
-0.02
-0.0185
-0.02
-0.0175
-0.0175
-0.021
-0.0175
-0.013
-0.0145
-0.016
-0.0185
-0.0115
-0.0105
-0.0225
-0.031
-0.0335
-0.032
-0.03
-0.0205
-0.011
-0.016
-0.017
-0.0225
-0.027
-0.016
-0.0185
-0.029
-0.0325
-0.031
-0.0255
-0.025
-0.023
-0.019
-0.0155
-0.0125
-0.017
-0.0215
-0.023
-0.0205
-0.025
-0.0295
-0.026
-0.0275
-0.0345
-0.0305
-0.0225
-0.024
-0.0255
-0.027
-0.0225
-0.018
-0.0215
-0.0185
-0.024
-0.028
-0.024
-0.03
-0.0255
-0.0275
-0.0315
-0.029
-0.0215
-0.0175
-0.0255
-0.024
-0.0235
-0.023
-0.021
-0.022
-0.0275
-0.0235
-0.018
-0.0225
-0.019
-0.0215
-0.026
-0.0215
-0.0225
-0.026
-0.023
-0.0205
-0.02
-0.0235
-0.0275
-0.019
-0.0165
-0.021
-0.022
-0.019
-0.0195
-0.024
-0.017
-0.014
-0.0115
-0.013
-0.0165
-0.0175
-0.02
-0.0195
-0.0205
-0.0215
-0.022
-0.013
-0.0095
-0.0115
-0.008
-0.009
-0.0105
-0.0055
-0.0025
-0.0025
0.0015
0.001
0.0045
0.003
0.0025
0.009
0.008
0.008
0.004
0.0005
0.0
0.0015
0.0055
0.014
0.0185
0.0185
0.0225
0.0285
0.0335
0.032
0.031
0.025
0.0265
0.033
0.0285
0.0375
0.0515
0.0565
0.0585
0.053
0.0515
0.048
0.047
0.054
0.052
0.049
0.0495
0.058
0.067
0.062
0.058
0.0635
0.065
0.0605
0.0555
0.0535
0.0575
0.0555
0.0525
0.0555
0.0555
0.059
0.062
0.065
0.0685
0.0665
0.065
0.0645
0.067
0.067
0.0625
0.063
0.069
0.0735
0.0715
0.0685
0.073
0.079
0.078
0.0755
0.073
0.072
0.068
0.0675
0.0655
0.056
0.056
0.0625
0.0645
0.0615
0.061
0.055
0.048
0.0405
0.034
0.0315
0.0305
0.029
0.023
0.018
0.0125
0.004
-0.001
0.003
0.003
0.0005
-0.009
-0.021
-0.023
-0.025
-0.0265
-0.03
-0.029
-0.024
-0.021
-0.0145
-0.02
-0.022
-0.0245
-0.031
-0.021
-0.0095
-0.013
-0.0235
-0.0245
-0.0265
-0.026
-0.0175
-0.0155
-0.015
-0.014
-0.015
-0.015
-0.016
-0.0205
-0.021
-0.018
-0.018
-0.0195
-0.0165
-0.024
-0.035
-0.0325
-0.031
-0.027
-0.0245
-0.027
-0.021
-0.0225
-0.024
-0.0195
-0.02
-0.021
-0.0205
-0.023
-0.0235
-0.0195
-0.016
-0.014
-0.016
-0.015
-0.0165
-0.0165
-0.0115
-0.0105
-0.012
-0.0125
-0.008
-0.0115
-0.0115
-0.0145
-0.0155
-0.0025
-0.0055
-0.0115
-0.0045
-0.006
-0.016
-0.0245
-0.026
-0.026
-0.032
-0.0285
-0.0255
-0.0335
-0.043
-0.0365
-0.0315
-0.025
-0.008
-0.0005
0.0225
0.057
0.091
0.1255
0.1565
0.2005
0.2435
0.287
0.34
0.387
0.43
0.4695
0.505
0.5465
0.5645
0.578
0.5995
0.585
0.554
0.5285
0.5085
0.4845
0.4755
0.482
0.4625
0.4225
0.3925
0.3675
0.3145
0.265
0.226
0.1675
0.1155
0.073
0.035
0.0115
-0.011
-0.037
-0.056
-0.0705
-0.0755
-0.0685
-0.061
-0.056
-0.0495
-0.039
-0.0365
-0.0395
-0.0355
-0.025
-0.0215
-0.0195
-0.017
-0.021
-0.017
-0.013
-0.0145
-0.024
-0.0355
-0.0355
-0.033
-0.0315
-0.0305
-0.0265
-0.0235
-0.0265
-0.0225
-0.016
-0.02
-0.026
-0.0275
-0.02
-0.0125
-0.0185
-0.023
-0.021
-0.0185
-0.02
-0.0275
-0.026
-0.0215
-0.029
-0.0265
-0.025
-0.0245
-0.021
-0.0285
-0.0275
-0.024
-0.0255
-0.0215
-0.0205
-0.024
-0.0205
-0.0165
-0.018
-0.022
-0.0265
-0.028
-0.0215
-0.0165
-0.02
-0.02
-0.019
-0.0285
-0.0295
-0.023
-0.023
-0.017
-0.015
-0.015
-0.0155
-0.013
-0.015
-0.023
-0.0255
-0.022
-0.0195
-0.0125
-0.015
-0.016
-0.0085
-0.015
-0.014
-0.0195
-0.014
-0.0115
-0.0225
-0.0175
-0.021
-0.019
-0.0185
-0.0175
-0.0135
-0.0145
-0.01
-0.0115
-0.019
-0.0175
-0.011
-0.017
-0.015
-0.014
-0.018
-0.0125
-0.017
-0.0125
-0.009
-0.0095
-0.0085
-0.0165
-0.013
-0.0145
-0.0195
-0.013
-0.014
-0.02
-0.024
-0.021
-0.014
-0.011
-0.0145
-0.0175
-0.0115
-0.0125
-0.013
-0.01
-0.0135
-0.0115
-0.0125
-0.017
-0.0165
-0.0135
-0.006
-0.0035
-0.0045
-0.005
-0.0085
-0.007
-0.0025
-0.0035
-0.0085
-0.0125
-0.006
-0.0065
-0.012
-0.014
-0.016
-0.012
-0.0055
-0.005
-0.009
-0.0055
-0.0035
-0.004
-0.013
-0.0225
-0.0175
-0.0105
-0.0045
-0.0045
-0.009
-0.013
-0.0095
-0.007
-0.0075
-0.002
0.003
0.0
-0.0075
-0.017
-0.0245
-0.019
-0.0135
-0.0145
-0.0205
-0.026
-0.016
-0.0185
-0.021
-0.014
-0.0185
-0.0145
-0.0085
-0.0065
-0.0065
-0.0075
-0.007
-0.0035
-0.002
-0.0065
-0.0075
-0.0075
-0.008
-0.0095
-0.005
-0.004
-0.01
-0.0085
-0.006
-0.0065
-0.0125
-0.0145
-0.0125
-0.019
-0.014
-0.0055
0.002
-0.004
-0.013
-0.0085
-0.0055
-0.004
-0.01
-0.01
-0.0095
-0.011
-0.0075
-0.0035
-0.004
-0.001
-0.001
-0.007
-0.004
-0.004
-0.0045
-0.002
-0.0035
-0.007
-0.007
-0.0025
-0.001
0.001
0.0035
0.0005
-0.002
0.002
0.0015
-0.007
-0.0055
-0.0085
-0.0105
-0.004
-0.008
-0.0115
-0.0105
-0.01
-0.0125
-0.016
-0.014
-0.0145
-0.0085
-0.0125
-0.011
0.0
-0.003
-0.0045
-0.001
0.0035
-0.001
-0.005
-0.008
-0.005
-0.0005
-0.0015
0.0025
-0.005
-0.009
-0.004
-0.008
-0.014
-0.0175
-0.0125
-0.0085
-0.014
-0.015
-0.0135
-0.0105
-0.0045
-0.005
-0.002
-0.0015
-0.0035
-0.005
-0.007
-0.01
-0.014
-0.015
-0.008
-0.0015
-0.0075
-0.011
-0.0105
-0.0115
-0.01
-0.0015
0.0
-0.002
-0.0005
0.003
0.0065
-0.001
-0.0035
0.002
-0.001
-0.0075
-0.005
0.002
-0.001
-0.0045
-0.002
0.002
0.0065
0.002
-0.0105
-0.0145
-0.0055
-0.003
-0.0025
-0.001
-0.0025
0.0
0.002
0.0075
0.0045
0.004
0.011
0.0065
0.006
0.0055
0.0015
-0.001
-0.001
0.002
0.0075
0.0105
0.0065
0.0055
0.0005
0.0035
0.01
0.0115
0.0115
0.0105
0.0045
0.0085
0.013
-0.0055
-0.0065
-0.0015
-0.0035
0.001
0.0005
0.0045
0.007
0.0045
0.0035
0.0005
0.0025
0.0015
0.002
0.002
-0.0015
-0.001
-0.002
0.001
0.0005
-0.0015
0.002
0.0065
0.0035
0.0025
0.006
0.0015
-0.0035
-0.004
-0.0015
-0.0035
-0.002
0.0
-0.002
0.001
0.0015
-0.0005
0.0005
0.0
0.0
0.006
0.008
0.0085
0.0035
0.0
0.005
0.005
0.0055
0.0035
0.0045
0.0015
0.002
0.0065
0.0
-0.0005
0.0055
0.009
0.009
0.002
0.001
0.004
0.0135
0.0245
0.012
0.0065
0.0095
0.01
0.01
-0.003
-0.007
0.0065
0.015
0.011
0.0045
0.006
0.0105
0.003
-0.0015
-0.002
-0.0065
-0.007
-0.0095
-0.005
0.0
0.002
0.001
-0.0025
-0.007
-0.0055
0.0015
-0.0005
-0.004
-0.0035
-0.0045
-0.0065
-0.001
-0.0035
-0.0015
0.0
-0.006
-0.001
-0.0045
-0.0075
-0.0065
-0.006
-0.0055
-0.0085
-0.011
-0.0095
0.0
-0.001
-0.007
-0.0115
-0.014
-0.0155
-0.0135
-0.0075
-0.0065
-0.007
-0.0105
-0.011
-0.011
-0.01
-0.0125
-0.017
-0.0145
-0.0165
-0.018
-0.0155
-0.018
-0.0195
-0.015
-0.0125
-0.0145
-0.0175
-0.015
-0.0135
-0.015
-0.0105
-0.0035
-0.004
-0.0075
-0.0145
-0.0235
-0.0235
-0.0275
-0.025
-0.014
-0.0155
-0.019
-0.019
-0.022
-0.02
-0.0155
-0.01
-0.015
-0.0195
-0.008
-0.0135
-0.016
-0.0095
-0.0175
-0.0215
-0.0245
-0.029
-0.0195
-0.014
-0.009
-0.0065
-0.0145
-0.018
-0.0165
-0.022
-0.0245
-0.0215
-0.021
-0.015
-0.0215
-0.029
-0.025
-0.024
-0.0245
-0.03
-0.0275
-0.0215
-0.015
-0.012
-0.0175
-0.017
-0.0155
-0.0165
-0.0145
-0.0155
-0.015
-0.0175
-0.0215
-0.0235
-0.024
-0.0155
-0.0145
-0.015
-0.015
-0.0165
-0.0145
-0.0165
-0.0195
-0.019
-0.019
-0.024
-0.023
-0.0235
-0.0235
-0.0185
-0.023
-0.0235
-0.0205
-0.0205
-0.021
-0.021
-0.022
-0.026
-0.0205
-0.0205
-0.0225
-0.0125
-0.0135
-0.0165
-0.019
-0.023
-0.018
-0.02
-0.021
-0.0155
-0.017
-0.0235
-0.0225
-0.021
-0.019
-0.017
-0.0185
-0.0145
-0.0175
-0.0205
-0.0205
-0.0195
-0.018
-0.0155
-0.013
-0.017
-0.018
-0.019
-0.014
-0.007
-0.0095
-0.01
-0.014
-0.0145
-0.015
-0.0205
-0.0195
-0.017
-0.015
-0.0115
-0.011
-0.01
-0.008
-0.005
-0.003
-0.0105
-0.0155
-0.01
-0.011
-0.0155
-0.02
-0.0215
-0.018
-0.013
-0.004
-0.0075
-0.017
-0.0235
-0.021
-0.0155
-0.0125
-0.0115
-0.009
-0.005
-0.006
-0.011
-0.009
-0.003
-0.008
-0.0095
-0.007
-0.0035
-0.0015
0.006
0.004
-0.0135
-0.0105
-0.008
-0.0125
-0.011
0.0
0.0035
-0.004
-0.0035
-0.008
-0.0025
-0.0045
-0.0135
-0.0075
-0.01
-0.011
-0.011
-0.008
-0.01
-0.014
-0.0105
-0.0105
-0.0085
-0.01
-0.0065
-0.0055
-0.008
-0.0085
-0.0095
-0.0085
-0.0065
0.0
-0.003
-0.005
-0.003
-0.0035
-0.004
-0.0115
-0.0145
-0.0105
-0.011
-0.014
-0.0145
-0.014
-0.016
-0.016
-0.0075
-0.0025
-0.003
-0.0055
-0.004
0.003
0.006
0.008
0.0075
0.0015
-0.007
-0.01
-0.012
-0.0075
0.0015
-0.004
-0.0075
-0.004
-0.001
-0.005
-0.005
-0.002
-0.0065
-0.0065
-0.0095
-0.0055
-0.0005
-0.003
0.002
0.0085
0.003
-0.0075
-0.007
-0.005
-0.004
-0.004
0.003
0.0015
-0.0045
-0.003
-0.0045
-0.001
-0.0015
0.001
0.0005
0.001
-0.004
-0.0135
-0.0135
-0.0055
0.004
-0.007
-0.012
-0.005
-0.0035
-0.0045
-0.002
-0.001
-0.0035
-0.012
-0.0195
-0.017
-0.015
-0.0085
-0.012
-0.0155
-0.0125
-0.015
-0.014
-0.0175
-0.0175
-0.0155
-0.018
-0.01
-0.0075
-0.008
-0.0045
-0.005
-0.0085
-0.011
-0.0035
0.003
0.002
-0.0045
-0.0015
0.001
-0.0055
-0.008
-0.0065
-0.003
-0.0065
-0.006
-0.0065
-0.004
0.0015
-0.0075
-0.0085
-0.003
-0.001
-0.002
-0.004
-0.006
-0.0045
-0.003
-0.0015
0.003
0.001
-0.001
-0.005
-0.0045
-0.0055
-0.0145
-0.013
-0.0115
-0.013
-0.008
-0.004
-0.0085
-0.012
-0.0085
-0.015
-0.012
-0.006
-0.011
-0.01
-0.01
-0.0075
-0.0095
-0.0105
-0.0055
-0.005
-0.013
-0.0125
-0.006
-0.0095
-0.007
-0.0045
-0.011
-0.0145
-0.0085
-0.01
-0.01
-0.011
-0.009
-0.004
-0.0085
-0.004
-0.0025
-0.002
-0.005
-0.0125
-0.009
-0.0145
-0.0145
-0.0165
-0.0175
-0.011
-0.0135
-0.0125
-0.0105
-0.0075
-0.006
-0.008
-0.0185
-0.0195
-0.0135
-0.018
-0.016
-0.014
-0.0125
-0.013
-0.02
-0.0265
-0.027
-0.0225
-0.0185
-0.0165
-0.015
-0.013
-0.007
-0.0115
-0.022
-0.016
-0.0095
-0.006
-0.0045
-0.013
-0.01
-0.016
-0.028
-0.022
-0.0225
-0.027
-0.0225
-0.0215
-0.02
-0.021
-0.021
-0.0115
-0.01
-0.018
-0.0235
-0.0295
-0.029
-0.023
-0.022
-0.0215
-0.016
-0.011
-0.016
-0.0165
-0.013
-0.0075
-0.0035
-0.0035
-0.0065
-0.0105
-0.002
-0.0005
-0.0045
0.0035
0.0065
0.0
0.0005
0.0095
0.0055
-0.0005
0.0
0.007
0.009
-0.0145
-0.014
-0.0095
-0.0145
0.005
0.0045
0.0075
0.0125
0.0085
0.011
0.0065
0.011
0.017
0.0205
0.0175
0.0165
0.02
0.018
0.0235
0.029
0.0275
0.0305
0.0305
0.032
0.047
0.0475
0.047
0.047
0.043
0.0465
0.0455
0.047
0.048
0.0495
0.0465
0.0455
0.0515
0.057
0.0575
0.0625
0.062
0.0565
0.059
0.0585
0.054
0.0535
0.0715
0.064
0.042
0.047
0.053
0.0525
0.0515
0.056
0.0595
0.0605
0.0585
0.0565
0.0585
0.056
0.062
0.0695
0.065
0.063
0.0645
0.0645
0.0645
0.0675
0.064
0.061
0.0565
0.053
0.053
0.051
0.0555
0.0585
0.0575
0.0575
0.0575
0.0435
0.032
0.0375
0.0315
0.03
0.0345
0.0245
0.014
0.0035
-0.0005
0.004
0.006
0.004
-0.0075
-0.015
-0.0125
-0.011
-0.024
-0.0265
-0.021
-0.018
-0.0055
-0.0175
-0.023
-0.0205
-0.024
-0.026
-0.0245
-0.0215
-0.0285
-0.029
-0.0225
-0.0185
-0.0235
-0.0275
-0.0275
-0.0255
-0.0285
-0.0375
-0.032
-0.022
-0.0205
-0.019
-0.023
-0.0295
-0.0265
-0.0225
-0.0275
-0.0315
-0.031
-0.022
-0.0215
-0.0235
-0.022
-0.026
-0.0235
-0.0255
-0.0245
-0.0265
-0.03
-0.0295
-0.022
-0.0255
-0.03
-0.023
-0.0275
-0.0265
-0.0265
-0.0265
-0.0225
-0.022
-0.0195
-0.014
-0.0135
-0.024
-0.0225
-0.0205
-0.0275
-0.022
-0.025
-0.029
-0.02
-0.0185
-0.009
0.005
-0.004
-0.025
-0.0425
-0.0465
-0.0395
-0.042
-0.042
-0.044
-0.06
-0.068
-0.0635
-0.0605
-0.047
-0.034
-0.0255
0.0005
0.0315
0.0735
0.113
0.1465
0.1885
0.2295
0.273
0.32
0.366
0.414
0.4475
0.4925
0.531
0.5275
0.546
0.569
0.5515
0.5205
0.5005
0.489
0.4695
0.4545
0.456
0.443
0.402
0.37
0.3535
0.3065
0.249
0.2105
0.157
0.105
0.0685
0.0305
0.007
-0.0055
-0.0365
-0.079
-0.101
-0.0985
-0.0955
-0.0865
-0.073
-0.068
-0.0625
-0.0665
-0.07
-0.0625
-0.0535
-0.055
-0.0465
-0.029
-0.0385
-0.0505
-0.0405
-0.032
-0.0365
-0.0385
-0.038
-0.041
-0.0445
-0.038
-0.0275
-0.0335
-0.04
-0.043
-0.045
-0.0425
-0.0445
-0.0355
-0.0275
-0.036
-0.0445
-0.046
-0.046
-0.042
-0.028
-0.0325
-0.0375
-0.037
-0.043
-0.046
-0.0395
-0.031
-0.031
-0.034
-0.032
-0.0285
-0.0315
-0.0305
-0.027
-0.0295
-0.042
-0.0385
-0.031
-0.036
-0.029
-0.0225
-0.0245
-0.0325
-0.0355
-0.0285
-0.0305
-0.0315
-0.0275
-0.0305
-0.031
-0.0315
-0.0285
-0.029
-0.032
-0.03
-0.0315
-0.031
-0.031
-0.0315
-0.0315
-0.0315
-0.028
-0.0285
-0.027
-0.022
-0.0265
-0.0285
-0.025
-0.0225
-0.027
-0.029
-0.0275
-0.0325
-0.024
-0.025
-0.0285
-0.024
-0.025
-0.0255
-0.0285
-0.0215
-0.0205
-0.0245
-0.021
-0.0225
-0.0235
-0.028
-0.034
-0.0355
-0.04
-0.033
-0.023
-0.0245
-0.029
-0.0295
-0.021
-0.0205
-0.025
-0.026
-0.0275
-0.024
-0.0225
-0.0165
-0.0115
-0.0175
-0.023
-0.0275
-0.0285
-0.0245
-0.0245
-0.027
-0.018
-0.0105
-0.0175
-0.0145
-0.0165
-0.0185
-0.0145
-0.017
-0.016
-0.021
-0.0235
-0.022
-0.0215
-0.0205
-0.024
-0.03
-0.0225
-0.017
-0.028
-0.0305
-0.021
-0.021
-0.024
-0.026
-0.0225
-0.0205
-0.0245
-0.0215
-0.0245
-0.0295
-0.025
-0.0305
-0.0375
-0.03
-0.0255
-0.029
-0.0345
-0.0235
-0.0125
-0.0245
-0.03
-0.0225
-0.0185
-0.015
-0.014
-0.0175
-0.0165
-0.021
-0.0155
-0.0135
-0.024
-0.0235
-0.025
-0.0285
-0.0215
-0.023
-0.028
-0.023
-0.026
-0.03
-0.0235
-0.0225
-0.0275
-0.0265
-0.023
-0.024
-0.03
-0.028
-0.023
-0.021
-0.015
-0.01
-0.0105
-0.0105
-0.017
-0.0175
-0.0155
-0.0155
-0.019
-0.016
-0.005
-0.01
-0.008
-0.0065
-0.01
-0.02
-0.0295
-0.0265
-0.023
-0.0185
-0.015
-0.0135
-0.0105
-0.0125
-0.0185
-0.0195
-0.0165
-0.015
-0.0215
-0.028
-0.027
-0.0205
-0.0235
-0.0235
-0.0195
-0.022
-0.0115
-0.005
-0.0135
-0.0175
-0.0135
-0.0155
-0.024
-0.0215
-0.0135
-0.012
-0.0175
-0.027
-0.0365
-0.034
-0.0245
-0.0215
-0.023
-0.0215
-0.0175
-0.023
-0.027
-0.0335
-0.031
-0.0265
-0.0275
-0.022
-0.022
-0.025
-0.0215
-0.025
-0.0275
-0.0265
-0.0285
-0.033
-0.0325
-0.0255
-0.028
-0.0265
-0.025
-0.0265
-0.026
-0.025
-0.0165
-0.0125
-0.012
-0.022
-0.0315
-0.034
-0.0325
-0.029
-0.0335
-0.029
-0.028
-0.0225
-0.0135
-0.027
-0.0305
-0.0275
-0.032
-0.023
-0.018
-0.0245
-0.0195
-0.0155
-0.024
-0.0225
-0.019
-0.013
-0.011
-0.0225
-0.022
-0.019
-0.0185
-0.017
-0.0195
-0.0125
-0.0115
-0.0185
-0.0245
-0.024
-0.0145
-0.0115
-0.0095
-0.013
-0.017
-0.0125
-0.0085
-0.01
-0.015
-0.0145
-0.019
-0.0205
-0.0175
-0.0215
-0.0195
-0.0155
-0.013
-0.012
-0.0165
-0.0185
-0.0145
-0.0135
-0.0195
-0.02
-0.0205
-0.0185
-0.01
-0.0145
-0.017
-0.0135
-0.0185
-0.02
-0.015
-0.017
-0.0185
-0.021
-0.028
-0.0275
-0.0245
-0.0235
-0.024
-0.032
-0.033
-0.0305
-0.027
-0.023
-0.032
-0.033
-0.029
-0.0275
-0.027
-0.025
-0.0205
-0.025
-0.0235
-0.016
-0.014
-0.0125
-0.02
-0.028
-0.025
-0.023
-0.015
-0.0105
-0.0215
-0.0205
-0.006
-0.006
-0.0185
-0.02
-0.018
-0.018
-0.029
-0.0275
-0.0205
-0.0295
-0.025
-0.0295
-0.0285
-0.024
-0.0235
-0.0145
-0.0165
-0.0195
-0.023
-0.028
-0.022
-0.0185
-0.0205
-0.021
-0.0235
-0.02
-0.015
-0.02
-0.0255
-0.023
-0.0215
-0.019
-0.0195
-0.027
-0.0185
-0.0065
-0.0075
-0.0195
-0.03
-0.027
-0.0215
-0.012
-0.0125
-0.02
-0.0145
-0.012
-0.0095
-0.0055
-0.0015
0.0045
-0.0025
-0.0055
0.0015
0.002
0.0005
-0.002
-0.0105
-0.0235
-0.025
-0.0175
-0.007
-0.0085
-0.01
-0.005
-0.01
-0.0115
-0.0165
-0.0115
-0.007
-0.0055
0.001
-0.0025
-0.001
-0.0015
-0.01
-0.012
-0.0155
-0.0185
-0.014
-0.008
-0.004
-0.009
-0.0145
-0.0105
-0.0095
-0.0155
-0.0235
-0.032
-0.0275
-0.0165
-0.0205
-0.0195
-0.0185
-0.0225
-0.02
-0.0225
-0.027
-0.022
-0.018
-0.0225
-0.0215
-0.0235
-0.0275
-0.0215
-0.022
-0.0255
-0.028
-0.024
-0.018
-0.021
-0.019
-0.0145
-0.0165
-0.0145
-0.019
-0.0275
-0.023
-0.0235
-0.03
-0.034
-0.031
-0.027
-0.0235
-0.0215
-0.025
-0.016
-0.017
-0.03
-0.0315
-0.0215
-0.0225
-0.0395
-0.0455
-0.043
-0.034
-0.031
-0.027
-0.0285
-0.04
-0.0345
-0.0355
-0.039
-0.038
-0.0315
-0.025
-0.031
-0.031
-0.0305
-0.036
-0.0325
-0.0285
-0.03
-0.028
-0.028
-0.028
-0.0295
-0.0285
-0.028
-0.0305
-0.0285
-0.027
-0.027
-0.031
-0.0345
-0.0355
-0.0345
-0.038
-0.0385
-0.0355
-0.0365
-0.04
-0.0425
-0.036
-0.0335
-0.0315
-0.035
-0.036
-0.0285
-0.028
-0.034
-0.041
-0.042
-0.0385
-0.0385
-0.04
-0.041
-0.0305
-0.0215
-0.029
-0.0305
-0.0275
-0.019
-0.0225
-0.0275
-0.0195
-0.03
-0.0345
-0.0325
-0.0315
-0.0265
-0.031
-0.034
-0.034
-0.03
-0.026
-0.028
-0.0285
-0.018
-0.0185
-0.0305
-0.0275
-0.026
-0.028
-0.0285
-0.0305
-0.03
-0.0295
-0.0265
-0.0185
-0.009
-0.021
-0.0345
-0.0295
-0.028
-0.0245
-0.0285
-0.0285
-0.019
-0.0315
-0.032
-0.0235
-0.021
-0.0175
-0.02
-0.019
-0.018
-0.019
-0.0205
-0.028
-0.029
-0.0245
-0.0245
-0.017
-0.02
-0.0285
-0.024
-0.025
-0.0355
-0.036
-0.03
-0.0305
-0.0325
-0.04
-0.0325
-0.024
-0.0325
-0.0345
-0.0345
-0.0345
-0.038
-0.0425
-0.0355
-0.035
-0.037
-0.03
-0.022
-0.022
-0.0305
-0.0285
-0.029
-0.022
-0.014
-0.018
-0.02
-0.021
-0.0225
-0.0285
-0.023
-0.0145
-0.0095
-0.016
-0.022
-0.0105
-0.0175
-0.0305
-0.0325
-0.0275
-0.017
-0.021
-0.022
-0.0195
-0.024
-0.0185
-0.0215
-0.0325
-0.0355
-0.0325
-0.0285
-0.035
-0.0405
-0.034
-0.034
-0.0355
-0.031
-0.035
-0.041
-0.0355
-0.033
-0.037
-0.036
-0.0335
-0.0285
-0.022
-0.028
-0.032
-0.031
-0.0335
-0.037
-0.031
-0.027
-0.034
-0.0345
-0.03
-0.026
-0.029
-0.0285
-0.03
-0.0345
-0.034
-0.0305
-0.0325
-0.0375
-0.037
-0.0355
-0.0325
-0.03
-0.03
-0.032
-0.0325
-0.0305
-0.034
-0.037
-0.027
-0.0245
-0.034
-0.034
-0.0285
-0.0325
-0.0395
-0.0395
-0.042
-0.0435
-0.034
-0.038
-0.0415
-0.0335
-0.028
-0.034
-0.0455
-0.033
-0.037
-0.0425
-0.037
-0.0445
-0.044
-0.038
-0.034
-0.0395
-0.0395
-0.0345
-0.0385
-0.0355
-0.0305
-0.0335
-0.0395
-0.043
-0.035
-0.0315
-0.0295
-0.0275
-0.024
-0.0305
-0.042
-0.03
-0.0265
-0.0295
-0.0335
-0.0325
-0.0325
-0.03
-0.0255
-0.026
-0.021
-0.0305
-0.0335
-0.0255
-0.018
-0.0225
-0.0265
-0.025
-0.0305
-0.0345
-0.0335
-0.031
-0.031
-0.027
-0.032
-0.0345
-0.033
-0.035
-0.0395
-0.042
-0.0385
-0.039
-0.0415
-0.043
-0.038
-0.039
-0.04
-0.0335
-0.0335
-0.0385
-0.0385
-0.0345
-0.037
-0.0385
-0.0375
-0.034
-0.033
-0.0355
-0.037
-0.038
-0.0345
-0.0285
-0.03
-0.033
-0.038
-0.034
-0.023
-0.032
-0.039
-0.041
-0.0435
-0.0375
-0.0385
-0.037
-0.04
-0.0435
-0.0385
-0.04
-0.0325
-0.0285
-0.03
-0.027
-0.0375
-0.039
-0.0315
-0.031
-0.0305
-0.0315
-0.0315
-0.031
-0.0335
-0.0345
-0.035
-0.033
-0.031
-0.0315
-0.025
-0.0295
-0.037
-0.036
-0.041
-0.043
-0.0425
-0.043
-0.0395
-0.0405
-0.039
-0.0415
-0.0445
-0.041
-0.037
-0.0335
-0.0365
-0.034
-0.035
-0.0365
-0.0325
-0.0325
-0.035
-0.0375
-0.0315
-0.028
-0.031
-0.0305
-0.0385
-0.044
-0.0425
-0.0445
-0.0415
-0.039
-0.036
-0.0335
-0.0315
-0.0285
-0.0285
-0.0255
-0.0205
-0.0245
-0.0255
-0.022
-0.0245
-0.025
-0.041
-0.054
-0.043
-0.0315
-0.031
-0.0385
-0.0425
-0.0345
-0.0305
-0.0255
-0.025
-0.036
-0.037
-0.044
-0.0395
-0.037
-0.0345
-0.0255
-0.0355
-0.034
-0.031
-0.029
-0.0295
-0.0305
-0.0235
-0.0335
-0.032
-0.026
-0.0305
-0.024
-0.03
-0.028
-0.019
-0.028
-0.028
-0.0295
-0.0295
-0.0295
-0.04
-0.045
-0.027
-0.018
-0.025
-0.019
-0.026
-0.0205
-0.0145
-0.0195
-0.0145
-0.013
-0.005
-0.0065
-0.007
-0.0085
-0.006
0.004
-0.002
0.0005
0.006
0.0075
0.011
0.013
0.015
0.0155
0.0185
0.0125
0.0105
0.021
0.0265
0.0285
0.0335
0.0385
0.0355
0.031
0.034
0.035
0.0295
0.032
0.034
0.0245
0.023
0.0225
0.02
0.024
0.0195
0.0195
0.0275
0.027
0.031
0.0305
0.032
0.037
0.0295
0.0255
0.029
0.031
0.0335
0.041
0.038
0.0405
0.0475
0.0415
0.036
0.026
0.0205
0.027
0.027
0.0265
0.0255
0.026
0.0225
0.0155
0.012
0.006
0.0015
-0.0085
-0.007
-0.0045
-0.004
-0.008
-0.012
-0.013
-0.0215
-0.0255
-0.0405
-0.044
-0.039
-0.0425
-0.0555
-0.0625
-0.0625
-0.064
-0.055
-0.0585
-0.0615
-0.0625
-0.0665
-0.0675
-0.0685
-0.0685
-0.0675
-0.059
-0.0565
-0.065
-0.0725
-0.072
-0.067
-0.067
-0.0595
-0.055
-0.0555
-0.051
-0.0525
-0.0515
-0.047
-0.052
-0.059
-0.054
-0.0545
-0.0435
-0.039
-0.0505
-0.046
-0.0435
-0.044
-0.0435
-0.045
-0.0505
-0.048
-0.0435
-0.0415
-0.038
-0.0365
-0.0365
-0.037
-0.0415
-0.0515
-0.05
-0.0455
-0.0395
-0.037
-0.041
-0.0375
-0.0435
-0.0515
-0.047
-0.05
-0.053
-0.0475
-0.0485
-0.047
-0.0455
-0.046
-0.0395
-0.031
-0.0275
-0.0265
-0.0305
-0.0305
-0.0375
-0.0555
-0.051
-0.057
-0.062
-0.0595
-0.071
-0.08
-0.092
-0.0835
-0.0745
-0.072
-0.0635
-0.0525
-0.023
0.016
0.051
0.084
0.122
0.1625
0.197
0.231
0.2685
0.316
0.361
0.4005
0.444
0.474
0.4875
0.5025
0.52
0.5085
0.4775
0.452
0.4395
0.428
0.4085
0.401
0.381
0.3445
0.315
0.295
0.262
0.2175
0.1785
0.1215
0.0715
0.0355
-0.0045
-0.0275
-0.042
-0.0675
-0.0965
-0.1155
-0.118
-0.11
-0.1015
-0.0895
-0.082
-0.083
-0.0855
-0.082
-0.082
-0.0795
-0.0755
-0.075
-0.0645
-0.0615
-0.0615
-0.0525
-0.0475
-0.057
-0.0705
-0.066
-0.058
-0.0565
-0.0565
-0.0635
-0.061
-0.064
-0.069
-0.059
-0.0525
-0.054
-0.0555
-0.0575
-0.0505
-0.0505
-0.059
-0.06
-0.064
-0.062
-0.0525
-0.054
-0.062
-0.0575
-0.058
-0.052
-0.051
-0.057
-0.0575
-0.0595
-0.0555
-0.0545
-0.054
-0.054
-0.052
-0.0485
-0.0445
-0.0495
-0.0535
-0.049
-0.0545
-0.0565
-0.0445
-0.044
-0.046
-0.0475
-0.0555
-0.0565
-0.0545
-0.0515
-0.051
-0.0445
-0.0445
-0.05
-0.0415
-0.0425
-0.0465
-0.0455
-0.054
-0.0525
-0.053
-0.0535
-0.045
-0.0535
-0.0445
-0.039
-0.045
-0.044
-0.0535
-0.0555
-0.0545
-0.0485
-0.0515
-0.0625
-0.054
-0.044
-0.044
-0.047
-0.046
-0.051
-0.0535
-0.0615
-0.053
-0.042
-0.056
-0.057
-0.061
-0.0595
-0.056
-0.0555
-0.058
-0.061
-0.053
-0.0515
-0.047
-0.0485
-0.0475
-0.0425
-0.049
-0.055
-0.059
-0.0595
-0.0485
-0.0425
-0.0555
-0.06
-0.056
-0.0495
-0.0465
-0.0565
-0.0585
-0.0585
-0.0555
-0.049
-0.0475
-0.054
-0.054
-0.0445
-0.048
-0.047
-0.0535
-0.0565
-0.0515
-0.0445
-0.0465
-0.054
-0.053
-0.057
-0.051
-0.0585
-0.058
-0.051
-0.0595
-0.052
-0.0485
-0.0565
-0.0545
-0.0495
-0.051
-0.0555
-0.0575
-0.0575
-0.0565
-0.053
-0.053
-0.0515
-0.0485
-0.042
-0.051
-0.061
-0.0515
-0.053
-0.057
-0.056
-0.0505
-0.0515
-0.056
-0.06
-0.058
-0.051
-0.0615
-0.065
-0.0615
-0.0625
-0.058
-0.055
-0.0535
-0.0505
-0.0545
-0.0585
-0.0575
-0.061
-0.058
-0.0485
-0.043
-0.0415
-0.0475
-0.055
-0.046
-0.0395
-0.05
-0.055
-0.0495
-0.046
-0.0615
-0.0635
-0.065
-0.0745
-0.0625
-0.059
-0.056
-0.0565
-0.0605
-0.0595
-0.0605
-0.0575
-0.0545
-0.0515
-0.0585
-0.062
-0.058
-0.0615
-0.055
-0.0535
-0.061
-0.0655
-0.066
-0.0535
-0.0555
-0.063
-0.0655
-0.0605
-0.061
-0.0705
-0.0625
-0.0545
-0.056
-0.0565
-0.0585
-0.0595
-0.0565
-0.057
-0.0595
-0.062
-0.0595
-0.0565
-0.0595
-0.058
-0.052
-0.0565
-0.057
-0.053
-0.053
-0.0555
-0.0555
-0.055
-0.055
-0.056
-0.0595
-0.055
-0.053
-0.055
-0.0575
-0.055
-0.053
-0.0465
-0.0515
-0.062
-0.0565
-0.0585
-0.066
-0.0575
-0.0485
-0.0475
-0.0465
-0.047
-0.0445
-0.05
-0.0505
-0.0515
-0.06
-0.064
-0.062
-0.0535
-0.048
-0.0535
-0.06
-0.056
-0.058
-0.055
-0.0525
-0.059
-0.053
-0.0485
-0.056
-0.0525
-0.042
-0.038
-0.0445
-0.053
-0.0525
-0.05
-0.05
-0.05
-0.0515
-0.047
-0.0385
-0.0455
-0.0515
-0.048
-0.0465
-0.045
-0.0465
-0.0455
-0.04
-0.042
-0.0365
-0.03
-0.041
-0.0465
-0.046
-0.043
-0.0365
-0.0445
-0.0555
-0.0515
-0.0465
-0.043
-0.038
-0.036
-0.042
-0.0435
-0.0395
-0.0385
-0.0375
-0.032
-0.031
-0.0335
-0.032
-0.039
-0.0345
-0.0305
-0.0315
-0.034
-0.0445
-0.0335
-0.0225
-0.0325
-0.0365
-0.0375
-0.0395
-0.036
-0.034
-0.0325
-0.0345
-0.0385
-0.037
-0.031
-0.0305
-0.0375
-0.0405
-0.036
-0.0335
-0.03
-0.028
-0.026
-0.03
-0.0385
-0.0375
-0.0335
-0.031
-0.0385
-0.0415
-0.033
-0.0345
-0.0385
-0.028
-0.0265
-0.031
-0.0205
-0.0285
-0.0345
-0.022
-0.029
-0.037
-0.032
-0.032
-0.0325
-0.033
-0.0325
-0.0285
-0.0375
-0.0385
-0.0325
-0.035
-0.035
-0.0385
-0.0345
-0.0315
-0.035
-0.03
-0.031
-0.036
-0.035
-0.032
-0.0255
-0.031
-0.0445
-0.0455
-0.0395
-0.0385
-0.04
-0.034
-0.032
-0.035
-0.036
-0.043
-0.044
-0.0355
-0.0385
-0.0455
-0.0415
-0.036
-0.037
-0.038
-0.0375
-0.0445
-0.0405
-0.0375
-0.042
-0.035
-0.039
-0.0535
-0.0545
-0.052
-0.0515
-0.051
-0.0525
-0.0525
-0.049
-0.0445
-0.052
-0.0535
-0.055
-0.057
-0.06
-0.0625
-0.0545
-0.0605
-0.0605
-0.043
-0.0435
-0.065
-0.063
-0.058
-0.061
-0.046
-0.052
-0.06
-0.064
-0.0715
-0.066
-0.062
-0.0565
-0.0525
-0.049
-0.0505
-0.054
-0.048
-0.0575
-0.0625
-0.057
-0.055
-0.0565
-0.0615
-0.0605
-0.064
-0.062
-0.058
-0.063
-0.06
-0.058
-0.0645
-0.0665
-0.055
-0.058
-0.0725
-0.0655
-0.0645
-0.0645
-0.0515
-0.0515
-0.059
-0.0675
-0.0585
-0.057
-0.059
-0.05
-0.059
-0.059
-0.055
-0.0555
-0.0605
-0.0635
-0.0595
-0.0585
-0.058
-0.061
-0.062
-0.059
-0.0595
-0.0505
-0.0475
-0.052
-0.054
-0.059
-0.0575
-0.069
-0.0675
-0.0615
-0.0675
-0.0625
-0.0595
-0.063
-0.07
-0.0685
-0.0665
-0.0645
-0.062
-0.0665
-0.071
-0.0675
-0.061
-0.0685
-0.079
-0.0705
-0.067
-0.0715
-0.0655
-0.065
-0.064
-0.062
-0.061
-0.058
-0.0625
-0.065
-0.064
-0.0655
-0.072
-0.07
-0.068
-0.0675
-0.054
-0.0565
-0.0605
-0.054
-0.058
-0.063
-0.0645
-0.06
-0.0585
-0.0595
-0.057
-0.0605
-0.056
-0.0555
-0.0615
-0.061
-0.066
-0.063
-0.059
-0.06
-0.0545
-0.057
-0.0655
-0.0595
-0.0555
-0.0575
-0.053
-0.0555
-0.053
-0.054
-0.053
-0.049
-0.047
-0.051
-0.0525
-0.0565
-0.068
-0.051
-0.0495
-0.056
-0.053
-0.0635
-0.0625
-0.0535
-0.0525
-0.057
-0.0555
-0.0535
-0.0465
-0.045
-0.049
-0.0465
-0.0585
-0.0735
-0.0705
-0.062
-0.06
-0.062
-0.0615
-0.0555
-0.0565
-0.055
-0.0505
-0.058
-0.0575
-0.051
-0.0485
-0.062
-0.0695
-0.063
-0.0655
-0.0605
-0.0585
-0.06
-0.0515
-0.047
-0.0505
-0.049
-0.045
-0.0415
-0.0365
-0.0335
-0.048
-0.074
-0.0665
-0.058
-0.0595
-0.062
-0.0645
-0.061
-0.064
-0.0555
-0.055
-0.0625
-0.055
-0.0555
-0.0545
-0.0415
-0.051
-0.0565
-0.0605
-0.064
-0.0545
-0.056
-0.053
-0.0515
-0.0595
-0.0615
-0.065
-0.066
-0.058
-0.0525
-0.0485
-0.0445
-0.0465
-0.0495
-0.053
-0.0685
-0.07
-0.062
-0.0605
-0.0645
-0.066
-0.06
-0.0625
-0.0575
-0.058
-0.066
-0.063
-0.0595
-0.0585
-0.0585
-0.055
-0.048
-0.0475
-0.0545
-0.0565
-0.052
-0.0525
-0.0545
-0.0495
-0.045
-0.0565
-0.0565
-0.0435
-0.0595
-0.067
-0.0665
-0.064
-0.0535
-0.065
-0.0685
-0.0625
-0.0655
-0.0655
-0.056
-0.0655
-0.07
-0.052
-0.054
-0.0635
-0.068
-0.0665
-0.0555
-0.0605
-0.0675
-0.0615
-0.062
-0.065
-0.066
-0.0675
-0.057
-0.0545
-0.069
-0.0675
-0.0595
-0.058
-0.065
-0.064
-0.061
-0.0645
-0.066
-0.0685
-0.0655
-0.069
-0.0705
-0.0715
-0.076
-0.076
-0.0725
-0.0605
-0.058
-0.058
-0.0595
-0.0595
-0.0495
-0.056
-0.061
-0.064
-0.074
-0.0705
-0.071
-0.081
-0.086
-0.077
-0.066
-0.063
-0.0605
-0.066
-0.0525
-0.054
-0.0705
-0.067
-0.0635
-0.058
-0.0635
-0.0665
-0.0605
-0.06
-0.0665
-0.0685
-0.0665
-0.0705
-0.065
-0.0565
-0.0495
-0.0575
-0.0565
-0.0515
-0.058
-0.051
-0.0545
-0.0605
-0.066
-0.0685
-0.0745
-0.0835
-0.078
-0.0715
-0.0665
-0.0715
-0.072
-0.0695
-0.076
-0.07
-0.067
-0.072
-0.0665
-0.064
-0.0685
-0.0695
-0.071
-0.074
-0.0715
-0.0745
-0.07
-0.063
-0.059
-0.056
-0.058
-0.0645
-0.075
-0.0705
-0.066
-0.071
-0.071
-0.0655
-0.062
-0.068
-0.0715
-0.0705
-0.07
-0.0675
-0.067
-0.068
-0.0665
-0.066
-0.0645
-0.059
-0.064
-0.063
-0.065
-0.071
-0.0665
-0.0665
-0.0675
-0.068
-0.0705
-0.073
-0.074
-0.0705
-0.0745
-0.0655
-0.0575
-0.0645
-0.065
-0.0725
-0.07
-0.063
-0.067
-0.071
-0.0735
-0.0665
-0.062
-0.076
-0.076
-0.067
-0.066
-0.0665
-0.072
-0.068
-0.0655
-0.063
-0.0615
-0.0615
-0.0665
-0.066
-0.054
-0.0615
-0.0665
-0.0645
-0.0655
-0.0655
-0.0645
-0.0625
-0.0605
-0.065
-0.0595
-0.053
-0.071
-0.0665
-0.0545
-0.0545
-0.0525
-0.06
-0.067
-0.069
-0.0755
-0.077
-0.07
-0.063
-0.061
-0.0705
-0.07
-0.0565
-0.0545
-0.0585
-0.0565
-0.061
-0.0725
-0.075
-0.0635
-0.06
-0.063
-0.0645
-0.065
-0.06
-0.053
-0.056
-0.061
-0.0585
-0.0645
-0.065
-0.0645
-0.0605
-0.066
-0.072
-0.06
-0.0685
-0.067
-0.059
-0.06
-0.054
-0.055
-0.055
-0.051
-0.052
-0.0475
-0.0475
-0.056
-0.0545
-0.051
-0.056
-0.048
-0.0525
-0.074
-0.0675
-0.065
-0.065
-0.0605
-0.06
-0.062
-0.067
-0.06
-0.055
-0.057
-0.0565
-0.048
-0.049
-0.0495
-0.0465
-0.0425
-0.043
-0.053
-0.0425
-0.0355
-0.037
-0.037
-0.035
-0.0265
-0.0305
-0.0295
-0.03
-0.031
-0.012
-0.0135
-0.018
-0.0165
-0.0195
-0.0175
-0.0125
-0.0075
-0.011
0.0
0.007
-0.007
-0.003
0.0
-0.01
-0.004
0.0045
0.003
0.0025
-0.003
0.0015
-0.0025
-0.008
0.007
-0.005
-0.0045
0.013
0.0155
0.0125
0.0055
0.007
0.0045
0.02
0.0235
0.0045
0.006
0.006
0.007
0.01
0.0045
-0.0005
0.0025
-0.0005
-0.001
0.0065
-0.003
-0.0175
-0.0165
-0.008
-0.004
-0.0045
-0.0035
-0.01
-0.0185
-0.0215
-0.024
-0.0275
-0.037
-0.0405
-0.046
-0.054
-0.0485
-0.052
-0.057
-0.064
-0.07
-0.07
-0.074
-0.077
-0.078
-0.075
-0.075
-0.0785
-0.0795
-0.0825
-0.088
-0.0805
-0.072
-0.0815
-0.0855
-0.084
-0.086
-0.0875
-0.0845
-0.082
-0.0855
-0.0905
-0.0905
-0.0785
-0.069
-0.074
-0.088
-0.0815
-0.078
-0.0785
-0.0665
-0.0795
-0.0735
-0.071
-0.0745
-0.072
-0.0805
-0.0745
-0.077
-0.073
-0.067
-0.0725
-0.075
-0.078
-0.0825
-0.0805
-0.0695
-0.0705
-0.0775
-0.0755
-0.0725
-0.0755
-0.0765
-0.074
-0.0645
-0.064
-0.0705
-0.068
-0.0725
-0.0685
-0.067
-0.075
-0.075
-0.0695
-0.067
-0.068
-0.072
-0.0825
-0.0835
-0.0715
-0.0575
-0.06
-0.07
-0.075
-0.086
-0.099
-0.0995
-0.101
-0.102
-0.1045
-0.119
-0.1155
-0.115
-0.1145
-0.101
-0.085
-0.069
-0.05
-0.0205
0.0105
0.0515
0.0985
0.131
0.1575
0.197
0.251
0.3005
0.3375
0.374
0.416
0.4455
0.447
0.467
0.4855
0.469
0.437
0.413
0.3945
0.3615
0.351
0.3575
0.34
0.3065
0.283
0.258
0.2195
0.1905
0.1535
0.0915
0.0395
0.0045
-0.027
-0.048
-0.0615
-0.0885
-0.1135
-0.132
-0.1455
-0.137
-0.125
-0.1195
-0.1115
-0.1005
-0.106
-0.1155
-0.1095
-0.099
-0.088
-0.0845
-0.0875
-0.0855
-0.081
-0.0805
-0.0795
-0.0825
-0.0825
-0.0815
-0.0835
-0.087
-0.089
-0.085
-0.076
-0.076
-0.077
-0.08
-0.0865
-0.0795
-0.0855
-0.087
-0.074
-0.0735
-0.0755
-0.0755
-0.0835
-0.072
-0.0715
-0.075
-0.0655
-0.073
-0.074
-0.085
-0.085
-0.075
-0.07
-0.063
-0.0775
-0.088
-0.0835
-0.0925
-0.084
-0.076
-0.084
-0.0775
-0.0855
-0.0845
-0.087
-0.084
-0.0825
-0.095
-0.0855
-0.0835
-0.0805
-0.076
-0.0765
-0.0705
-0.0755
-0.0745
-0.0675
-0.069
-0.067
-0.0715
-0.0715
-0.0745
-0.0735
-0.064
-0.072
-0.065
-0.0615
-0.067
-0.0655
-0.071
-0.07
-0.069
-0.0665
-0.067
-0.0755
-0.0765
-0.0735
-0.07
-0.068
-0.064
-0.07
-0.0725
-0.0685
-0.076
-0.073
-0.063
-0.068
-0.0845
-0.079
-0.0705
-0.0715
-0.0685
-0.077
-0.078
-0.0785
-0.0825
-0.079
-0.0725
-0.066
-0.071
-0.0775
-0.079
-0.0715
-0.066
-0.0745
-0.0685
-0.075
-0.0785
-0.066
-0.079
-0.0755
-0.0735
-0.0825
-0.0765
-0.0695
-0.068
-0.073
-0.0765
-0.079
-0.0725
-0.072
-0.084
-0.078
-0.07
-0.075
-0.0745
-0.0705
-0.0685
-0.072
-0.072
-0.071
-0.0815
-0.081
-0.0695
-0.0765
-0.0825
-0.0785
-0.0785
-0.0735
-0.0775
-0.082
-0.077
-0.071
-0.0725
-0.0755
-0.0735
-0.0685
-0.071
-0.077
-0.077
-0.072
-0.066
-0.074
-0.074
-0.0665
-0.0635
-0.0585
-0.0675
-0.073
-0.056
-0.063
-0.0715
-0.0705
-0.0695
-0.0535
-0.0585
-0.062
-0.0585
-0.051
-0.0485
-0.057
-0.053
-0.0565
-0.059
-0.0605
-0.0625
-0.0605
-0.0605
-0.054
-0.055
-0.0575
-0.0575
-0.0655
-0.067
-0.0625
-0.061
-0.0635
-0.0655
-0.0625
-0.064
-0.0575
-0.058
-0.065
-0.063
-0.0635
-0.063
-0.0615
-0.061
-0.0595
-0.0605
-0.0645
-0.0655
-0.064
-0.0635
-0.065
-0.0655
-0.0655
-0.0675
-0.066
-0.062
-0.0615
-0.061
-0.06
-0.064
-0.0695
-0.067
-0.062
-0.064
-0.0575
-0.055
-0.0645
-0.067
-0.0725
-0.073
-0.07
-0.071
-0.0685
-0.064
-0.0585
-0.063
-0.0655
-0.0655
-0.066
-0.0685
-0.075
-0.0725
-0.068
-0.071
-0.0715
-0.0625
-0.0595
-0.061
-0.0615
-0.0685
-0.071
-0.0795
-0.0795
-0.069
-0.0725
-0.063
-0.0655
-0.0665
-0.058
-0.0605
-0.054
-0.055
-0.0545
-0.0615
-0.069
-0.069
-0.0675
-0.0635
-0.0685
-0.0565
-0.055
-0.066
-0.055
-0.0615
-0.0695
-0.0635
-0.066
-0.059
-0.0615
-0.0655
-0.0595
-0.06
-0.0595
-0.064
-0.0645
-0.0615
-0.063
-0.066
-0.062
-0.055
-0.061
-0.06
-0.0535
-0.055
-0.0505
-0.048
-0.0535
-0.059
-0.0545
-0.046
-0.045
-0.0555
-0.055
-0.0475
-0.0485
-0.052
-0.0535
-0.045
-0.0485
-0.0535
-0.053
-0.057
-0.051
-0.0485
-0.058
-0.0555
-0.0555
-0.0485
-0.0505
-0.0515
-0.0435
-0.0525
-0.0475
-0.0505
-0.0445
-0.0385
-0.0455
-0.046
-0.0475
-0.04
-0.0425
-0.0455
-0.0365
-0.0385
-0.039
-0.033
-0.039
-0.038
-0.0385
-0.0415
-0.04
-0.0415
-0.0395
-0.0495
-0.054
-0.055
-0.055
-0.053
-0.0495
-0.045
-0.049
-0.0445
-0.04
-0.038
-0.05
-0.054
-0.038
-0.0395
-0.0395
-0.0365
-0.0415
-0.0405
-0.043
-0.0465
-0.0405
-0.047
-0.0495
-0.047
-0.053
-0.0495
-0.0425
-0.0375
-0.037
-0.038
-0.048
-0.0475
-0.0495
-0.05
-0.0385
-0.042
-0.0425
-0.0455
-0.0475
-0.0465
-0.0495
-0.043
-0.044
-0.0545
-0.0495
-0.0515
-0.0445
-0.0415
-0.048
-0.047
-0.0545
-0.051
-0.0475
-0.046
-0.0455
-0.0425
-0.04
-0.0445
-0.045
-0.042
-0.045
-0.053
-0.049
-0.0475
-0.0465
-0.046
-0.0465
-0.04
-0.044
-0.044
-0.0425
-0.0435
-0.0405
-0.0395
-0.0435
-0.045
-0.047
-0.0505
-0.047
-0.0485
-0.046
-0.046
-0.048
-0.0375
-0.0405
-0.0385
-0.0325
-0.039
-0.0375
-0.041
-0.04
-0.037
-0.0355
-0.0365
-0.0415
-0.0365
-0.042
-0.0515
-0.051
-0.05
-0.053
-0.0585
-0.0575
-0.0515
-0.0495
-0.0465
-0.04
-0.0395
-0.0505
-0.0575
-0.0595
-0.0615
-0.058
-0.0495
-0.049
-0.052
-0.055
-0.054
-0.048
-0.0505
-0.052
-0.0545
-0.0545
-0.057
-0.055
-0.0525
-0.0565
-0.0555
-0.055
-0.058
-0.0625
-0.0595
-0.0585
-0.059
-0.055
-0.0565
-0.0565
-0.0555
-0.053
-0.054
-0.059
-0.066
-0.067
-0.0635
-0.063
-0.0625
-0.0725
-0.071
-0.0665
-0.0735
-0.068
-0.0615
-0.0615
-0.052
-0.055
-0.0545
-0.0505
-0.062
-0.0545
-0.054
-0.064
-0.067
-0.065
-0.057
-0.069
-0.076
-0.069
-0.0655
-0.061
-0.0655
-0.069
-0.0675
-0.069
-0.0665
-0.062
-0.066
-0.0645
-0.0605
-0.061
-0.061
-0.0585
-0.054
-0.054
-0.062
-0.0665
-0.057
-0.0645
-0.0735
-0.0765
-0.0825
-0.067
-0.061
-0.0695
-0.0725
-0.069
-0.0675
-0.063
-0.0595
-0.064
-0.062
-0.0615
-0.06
-0.062
-0.0695
-0.0705
-0.067
-0.0655
-0.0585
-0.0615
-0.073
-0.0665
-0.064
-0.065
-0.0685
-0.0675
-0.0635
-0.0695
-0.069
-0.062
-0.068
-0.0655
-0.057
-0.062
-0.062
-0.064
-0.0635
-0.0595
-0.056
-0.0605
-0.0675
-0.0655
-0.0605
-0.0605
-0.0615
-0.064
-0.0675
-0.0685
-0.0725
-0.0695
-0.0685
-0.0695
-0.0695
-0.0655
-0.0695
-0.069
-0.07
-0.077
-0.0685
-0.067
-0.062
-0.067
-0.0685
-0.065
-0.064
-0.061
-0.068
-0.0675
-0.063
-0.0575
-0.06
-0.058
-0.0545
-0.0535
-0.05
-0.06
-0.073
-0.0725
-0.069
-0.0785
-0.079
-0.071
-0.074
-0.0755
-0.069
-0.0705
-0.0735
-0.075
-0.0795
-0.085
-0.0835
-0.0765
-0.074
-0.0785
-0.0795
-0.0825
-0.0805
-0.0695
-0.072
-0.0685
-0.065
-0.0665
-0.074
-0.086
-0.0845
-0.0825
-0.082
-0.082
-0.0715
-0.063
-0.071
-0.0735
-0.073
-0.077
-0.081
-0.0765
-0.076
-0.08
-0.077
-0.079
-0.084
-0.0795
-0.0675
-0.069
-0.0725
-0.0655
-0.065
-0.066
-0.0675
-0.0695
-0.07
-0.069
-0.0715
-0.0735
-0.0755
-0.078
-0.0705
-0.0715
-0.068
-0.0625
-0.0725
-0.0735
-0.0675
-0.0665
-0.0695
-0.0715
-0.067
-0.0655
-0.068
-0.0625
-0.066
-0.07
-0.0625
-0.0635
-0.067
-0.066
-0.064
-0.068
-0.072
-0.069
-0.0685
-0.065
-0.0665
-0.0665
-0.0575
-0.06
-0.0655
-0.0615
-0.0585
-0.0555
-0.067
-0.079
-0.071
-0.064
-0.072
-0.0735
-0.071
-0.079
-0.083
-0.081
-0.0735
-0.0705
-0.0695
-0.07
-0.0725
-0.078
-0.0835
-0.0745
-0.0745
-0.0745
-0.066
-0.0685
-0.0705
-0.0725
-0.076
-0.0755
-0.073
-0.0725
-0.075
-0.0725
-0.0715
-0.0775
-0.0835
-0.081
-0.083
-0.08
-0.0755
-0.0725
-0.069
-0.069
-0.061
-0.0655
-0.0755
-0.0635
-0.0535
-0.064
-0.0745
-0.078
-0.0785
-0.072
-0.0635
-0.0615
-0.0565
-0.0575
-0.061
-0.0635
-0.059
-0.057
-0.066
-0.0585
-0.056
-0.057
-0.062
-0.066
-0.0625
-0.059
-0.0535
-0.055
-0.0555
-0.0565
-0.063
-0.0625
-0.046
-0.048
-0.0595
-0.064
-0.068
-0.0615
-0.062
-0.0585
-0.059
-0.0615
-0.062
-0.059
-0.0615
-0.0635
-0.0515
-0.0565
-0.059
-0.062
-0.065
-0.062
-0.06
-0.055
-0.057
-0.059
-0.0595
-0.0595
-0.06
-0.0615
-0.058
-0.0605
-0.066
-0.0665
-0.0605
-0.0555
-0.059
-0.067
-0.0725
-0.072
-0.0665
-0.057
-0.0635
-0.07
-0.066
-0.0665
-0.0645
-0.068
-0.069
-0.0675
-0.069
-0.0695
-0.072
-0.0675
-0.0595
-0.0615
-0.0695
-0.0675
-0.0655
-0.0635
-0.065
-0.0665
-0.061
-0.0655
-0.064
-0.062
-0.065
-0.0655
-0.067
-0.061
-0.0635
-0.0685
-0.0655
-0.0685
-0.0685
-0.064
-0.0615
-0.064
-0.0685
-0.073
-0.0735
-0.065
-0.0605
-0.065
-0.0735
-0.0735
-0.0675
-0.0715
-0.0735
-0.069
-0.0725
-0.073
-0.0695
-0.0715
-0.0745
-0.075
-0.075
-0.074
-0.072
-0.0665
-0.0615
-0.0715
-0.072
-0.0635
-0.065
-0.075
-0.0765
-0.074
-0.0735
-0.072
-0.0655
-0.061
-0.069
-0.07
-0.068
-0.0685
-0.07
-0.073
-0.066
-0.059
-0.0585
-0.057
-0.057
-0.0565
-0.063
-0.069
-0.0645
-0.0635
-0.0725
-0.077
-0.0705
-0.0665
-0.065
-0.0735
-0.0785
-0.075
-0.0695
-0.0695
-0.0715
-0.068
-0.069
-0.0675
-0.0665
-0.0625
-0.058
-0.064
-0.0665
-0.057
-0.06
-0.0635
-0.0595
-0.0585
-0.0525
-0.056
-0.058
-0.0595
-0.0605
-0.062
-0.0645
-0.0555
-0.052
-0.0565
-0.063
-0.0675
-0.06
-0.055
-0.061
-0.059
-0.0585
-0.0565
-0.051
-0.055
-0.055
-0.0585
-0.053
-0.0495
-0.051
-0.0445
-0.045
-0.0485
-0.048
-0.041
-0.0315
-0.027
-0.0335
-0.0415
-0.036
-0.0325
-0.0375
-0.031
-0.0335
-0.039
-0.0275
-0.0215
-0.0205
-0.0215
-0.017
-0.0155
-0.0165
-0.0145
-0.017
-0.016
-0.0105
0.0005
0.007
0.0005
-0.004
0.0
0.005
0.004
0.0005
0.0105
0.0085
-0.001
-0.0065
-0.0115
-0.0075
-0.015
-0.0125
-0.004
-0.007
-0.008
-0.0105
-0.007
0.0015
-0.001
0.0
-0.0015
-0.005
0.0075
0.005
-0.0035
-0.003
-0.007
-0.0075
-0.009
-0.011
-0.01
-0.013
-0.0175
-0.016
-0.0105
-0.013
-0.0155
-0.0105
-0.01
-0.0145
-0.0245
-0.0295
-0.0345
-0.0355
-0.0325
-0.0445
-0.052
-0.0485
-0.0575
-0.0705
-0.0725
-0.0725
-0.068
-0.0715
-0.08
-0.0745
-0.069
-0.074
-0.081
-0.084
-0.088
-0.09
-0.0855
-0.0855
-0.0875
-0.085
-0.086
-0.085
-0.079
-0.0815
-0.082
-0.084
-0.0885
-0.086
-0.0885
-0.0895
-0.089
-0.0865
-0.0855
-0.0835
-0.082
-0.086
-0.084
-0.081
-0.081
-0.0885
-0.0925
-0.0835
-0.0805
-0.0895
-0.094
-0.092
-0.0905
-0.086
-0.083
-0.089
-0.089
-0.081
-0.076
-0.0735
-0.0735
-0.074
-0.0765
-0.08
-0.077
-0.079
-0.0805
-0.081
-0.0815
-0.0855
-0.092
-0.0895
-0.087
-0.082
-0.076
-0.073
-0.0805
-0.0865
-0.0855
-0.076
-0.0705
-0.077
-0.082
-0.0805
-0.0725
-0.0775
-0.0865
-0.09
-0.089
-0.091
-0.0915
-0.095
-0.11
-0.117
-0.117
-0.1115
-0.1095
-0.1035
-0.095
-0.0725
-0.0375
-0.0055
0.0315
0.0655
0.1075
0.144
0.179
0.2245
0.2675
0.311
0.3515
0.3835
0.4165
0.441
0.453
0.473
0.479
0.461
0.436
0.412
0.3995
0.3855
0.3835
0.3865
0.3585
0.3215
0.288
0.254
0.215
0.169
0.129
0.0815
0.0405
0.005
-0.0255
-0.044
-0.065
-0.0945
-0.1205
-0.131
-0.1325
-0.126
-0.1255
-0.1245
-0.117
-0.114
-0.113
-0.111
-0.1105
-0.111
-0.104
-0.096
-0.0945
-0.0925
-0.093
-0.097
-0.0935
-0.093
-0.0975
-0.0985
-0.1
-0.1
-0.0975
-0.094
-0.0935
-0.0975
-0.0955
-0.09
-0.0885
-0.09
-0.092
-0.0905
-0.0985
-0.099
-0.0965
-0.106
-0.1055
-0.1005
-0.101
-0.0985
-0.096
-0.093
-0.0945
-0.1075
-0.1085
-0.0965
-0.095
-0.0935
-0.0945
-0.0965
-0.0965
-0.097
-0.093
-0.0935
-0.0965
-0.099
-0.096
-0.093
-0.0935
-0.093
-0.097
-0.0905
-0.087
-0.0955
-0.0935
-0.087
-0.0885
-0.096
-0.0975
-0.0925
-0.0985
-0.0945
-0.0825
-0.082
-0.0865
-0.089
-0.083
-0.0835
-0.08
-0.081
-0.0845
-0.086
-0.0895
-0.0855
-0.09
-0.091
-0.0835
-0.084
-0.09
-0.0925
-0.094
-0.0925
-0.0895
-0.09
-0.087
-0.0855
-0.0855
-0.0855
-0.0865
-0.0895
-0.0855
-0.0845
-0.097
-0.093
-0.0865
-0.0835
-0.087
-0.096
-0.09
-0.0885
-0.0875
-0.0845
-0.082
-0.081
-0.0915
-0.0955
-0.092
-0.09
-0.087
-0.0905
-0.0865
-0.084
-0.0845
-0.077
-0.0775
-0.0815
-0.089
-0.095
-0.09
-0.0835
-0.08
-0.088
-0.0925
-0.0925
-0.091
-0.0865
-0.088
-0.0835
-0.0825
-0.081
-0.083
-0.085
-0.0865
-0.089
-0.0825
-0.086
-0.087
-0.0825
-0.0805
-0.079
-0.0805
-0.0805
-0.0805
-0.079
-0.084
-0.09
-0.0845
-0.085
-0.089
-0.0885
-0.0845
-0.0825
-0.0825
-0.0775
-0.075
-0.073
-0.072
-0.0735
-0.0805
-0.081
-0.078
-0.08
-0.0755
-0.072
-0.073
-0.075
-0.0765
-0.0695
-0.0655
-0.0695
-0.0625
-0.056
-0.065
-0.0745
-0.085
-0.089
-0.0835
-0.086
-0.0885
-0.089
-0.089
-0.0855
-0.086
-0.087
-0.088
-0.087
-0.0865
-0.083
-0.0785
-0.083
-0.085
-0.081
-0.08
-0.079
-0.079
-0.0795
-0.0775
-0.0755
-0.0765
-0.076
-0.0735
-0.0785
-0.084
-0.0805
-0.074
-0.0785
-0.087
-0.0865
-0.0845
-0.0835
-0.0815
-0.0825
-0.0835
-0.087
-0.082
-0.072
-0.0795
-0.085
-0.0855
-0.082
-0.0785
-0.082
-0.0835
-0.0825
-0.079
-0.08
-0.0785
-0.079
-0.082
-0.0825
-0.084
-0.0805
-0.0815
-0.0905
-0.0945
-0.0905
-0.0855
-0.087
-0.085
-0.087
-0.0915
-0.09
-0.087
-0.0835
-0.085
-0.084
-0.081
-0.08
-0.0805
-0.0805
-0.082
-0.085
-0.0845
-0.082
-0.08
-0.078
-0.076
-0.081
-0.089
-0.0875
-0.0835
-0.0825
-0.0815
-0.082
-0.081
-0.082
-0.0815
-0.0785
-0.0795
-0.079
-0.08
-0.0765
-0.07
-0.0725
-0.076
-0.074
-0.072
-0.0685
-0.069
-0.0715
-0.069
-0.0685
-0.071
-0.073
-0.0715
-0.0665
-0.0665
-0.069
-0.072
-0.0755
-0.0725
-0.0705
-0.08
-0.0785
-0.071
-0.0695
-0.0655
-0.067
-0.068
-0.06
-0.06
-0.065
-0.0645
-0.063
-0.0595
-0.0585
-0.061
-0.065
-0.0715
-0.0675
-0.0625
-0.0615
-0.057
-0.057
-0.0615
-0.0595
-0.051
-0.0515
-0.0515
-0.0515
-0.0505
-0.0475
-0.053
-0.0575
-0.063
-0.0685
-0.0665
-0.061
-0.057
-0.0565
-0.059
-0.0625
-0.0605
-0.055
-0.0555
-0.0515
-0.052
-0.062
-0.062
-0.0585
-0.058
-0.06
-0.065
-0.0655
-0.065
-0.068
-0.0695
-0.0635
-0.062
-0.0685
-0.061
-0.058
-0.0605
-0.056
-0.0595
-0.069
-0.0685
-0.066
-0.0675
-0.0675
-0.068
-0.065
-0.067
-0.067
-0.0665
-0.0675
-0.0615
-0.069
-0.072
-0.0685
-0.065
-0.0685
-0.0795
-0.0765
-0.071
-0.0695
-0.0695
-0.069
-0.0735
-0.0815
-0.077
-0.0735
-0.071
-0.071
-0.0755
-0.0745
-0.07
-0.067
-0.068
-0.0655
-0.0665
-0.07
-0.0665
-0.0655
-0.0645
-0.0645
-0.0665
-0.0665
-0.0655
-0.0645
-0.069
-0.0635
-0.069
-0.082
-0.084
-0.086
-0.082
-0.075
-0.0735
-0.0735
-0.0715
-0.0695
-0.071
-0.0735
-0.076
-0.071
-0.0645
-0.0655
-0.071
-0.074
-0.0685
-0.074
-0.0715
-0.0655
-0.068
-0.065
-0.0685
-0.071
-0.0705
-0.07
-0.068
-0.07
-0.069
-0.0665
-0.065
-0.0605
-0.059
-0.0625
-0.067
-0.0655
-0.0605
-0.058
-0.062
-0.066
-0.0655
-0.065
-0.067
-0.0715
-0.0705
-0.0725
-0.0725
-0.071
-0.07
-0.0685
-0.0665
-0.0645
-0.0655
-0.067
-0.073
-0.083
-0.082
-0.0775
-0.0775
-0.079
-0.078
-0.074
-0.079
-0.0775
-0.076
-0.0815
-0.08
-0.083
-0.081
-0.079
-0.0825
-0.079
-0.0775
-0.079
-0.0795
-0.077
-0.08
-0.081
-0.0765
-0.079
-0.0815
-0.0855
-0.0825
-0.0785
-0.0835
-0.0845
-0.0815
-0.0805
-0.083
-0.0865
-0.086
-0.084
-0.085
-0.0855
-0.0825
-0.0835
-0.085
-0.0805
-0.08
-0.085
-0.0875
-0.087
-0.0875
-0.088
-0.0865
-0.0875
-0.085
-0.084
-0.09
-0.0865
-0.0815
-0.082
-0.0825
-0.0785
-0.076
-0.081
-0.091
-0.0975
-0.093
-0.0855
-0.0855
-0.0845
-0.082
-0.0845
-0.084
-0.08
-0.076
-0.077
-0.08
-0.079
-0.0795
-0.079
-0.079
-0.0775
-0.0825
-0.0825
-0.0765
-0.08
-0.081
-0.0755
-0.0735
-0.077
-0.0765
-0.0755
-0.0765
-0.0745
-0.0755
-0.085
-0.09
-0.0895
-0.0865
-0.0835
-0.086
-0.085
-0.079
-0.077
-0.0835
-0.093
-0.097
-0.092
-0.0895
-0.0885
-0.086
-0.0835
-0.0795
-0.0795
-0.081
-0.082
-0.078
-0.078
-0.0845
-0.0855
-0.083
-0.082
-0.0835
-0.079
-0.0785
-0.08
-0.0775
-0.0795
-0.0835
-0.086
-0.084
-0.0825
-0.081
-0.0755
-0.0725
-0.072
-0.073
-0.0755
-0.077
-0.0785
-0.0765
-0.0725
-0.075
-0.076
-0.0765
-0.072
-0.0695
-0.072
-0.0725
-0.075
-0.076
-0.0745
-0.07
-0.065
-0.066
-0.072
-0.0695
-0.0655
-0.0695
-0.0705
-0.0695
-0.071
-0.073
-0.0755
-0.0745
-0.0745
-0.0705
-0.0685
-0.0725
-0.0695
-0.071
-0.0715
-0.0655
-0.062
-0.07
-0.072
-0.0685
-0.071
-0.0715
-0.076
-0.076
-0.075
-0.076
-0.076
-0.074
-0.069
-0.067
-0.0645
-0.067
-0.068
-0.0715
-0.0705
-0.0675
-0.072
-0.0735
-0.078
-0.076
-0.0795
-0.0825
-0.0795
-0.083
-0.0735
-0.0695
-0.0795
-0.081
-0.079
-0.0825
-0.083
-0.083
-0.082
-0.0795
-0.078
-0.0795
-0.082
-0.0775
-0.0785
-0.076
-0.0715
-0.072
-0.07
-0.074
-0.0725
-0.073
-0.075
-0.07
-0.0665
-0.0615
-0.06
-0.071
-0.079
-0.0785
-0.074
-0.065
-0.063
-0.0675
-0.0685
-0.069
-0.068
-0.066
-0.0645
-0.065
-0.0685
-0.067
-0.0715
-0.071
-0.061
-0.061
-0.062
-0.0655
-0.065
-0.0595
-0.0595
-0.0655
-0.0675
-0.0685
-0.0715
-0.0655
-0.0635
-0.0655
-0.0645
-0.0595
-0.0595
-0.061
-0.058
-0.0615
-0.0695
-0.066
-0.061
-0.0645
-0.066
-0.062
-0.057
-0.0595
-0.062
-0.0625
-0.0625
-0.064
-0.064
-0.063
-0.0665
-0.064
-0.0645
-0.0655
-0.0615
-0.059
-0.0635
-0.0665
-0.0595
-0.057
-0.056
-0.058
-0.0625
-0.0645
-0.0675
-0.068
-0.066
-0.065
-0.0665
-0.0645
-0.068
-0.066
-0.062
-0.066
-0.062
-0.062
-0.067
-0.0645
-0.0635
-0.0655
-0.0645
-0.0645
-0.0675
-0.069
-0.066
-0.065
-0.067
-0.0655
-0.0655
-0.066
-0.0655
-0.0655
-0.066
-0.0685
-0.0685
-0.066
-0.0655
-0.066
-0.0635
-0.062
-0.0615
-0.0655
-0.069
-0.06
-0.0575
-0.058
-0.056
-0.059
-0.058
-0.063
-0.067
-0.063
-0.061
-0.0585
-0.058
-0.0555
-0.0555
-0.059
-0.0615
-0.0685
-0.0715
-0.071
-0.072
-0.07
-0.072
-0.0715
-0.0645
-0.0645
-0.067
-0.0705
-0.075
-0.076
-0.0745
-0.07
-0.069
-0.071
-0.067
-0.063
-0.065
-0.0615
-0.066
-0.0785
-0.0825
-0.077
-0.0725
-0.0735
-0.072
-0.0715
-0.072
-0.074
-0.0745
-0.072
-0.068
-0.071
-0.0735
-0.0705
-0.073
-0.076
-0.0735
-0.068
-0.069
-0.065
-0.061
-0.0615
-0.0625
-0.0695
-0.069
-0.07
-0.0735
-0.0755
-0.069
-0.0615
-0.069
-0.068
-0.065
-0.0665
-0.065
-0.0705
-0.0685
-0.0645
-0.067
-0.0655
-0.0645
-0.0615
-0.0605
-0.0625
-0.0645
-0.0645
-0.0625
-0.064
-0.066
-0.0695
-0.071
-0.0695
-0.0675
-0.0665
-0.068
-0.0655
-0.067
-0.0685
-0.0645
-0.0635
-0.0645
-0.063
-0.0645
-0.066
-0.0645
-0.0635
-0.061
-0.062
-0.068
-0.0685
-0.0635
-0.065
-0.069
-0.0625
-0.06
-0.062
-0.06
-0.062
-0.064
-0.068
-0.073
-0.0705
-0.0695
-0.075
-0.07
-0.0645
-0.067
-0.0625
-0.061
-0.0615
-0.057
-0.057
-0.0585
-0.062
-0.064
-0.062
-0.0575
-0.0625
-0.071
-0.0685
-0.0635
-0.0595
-0.064
-0.069
-0.0655
-0.0605
-0.0585
-0.059
-0.0575
-0.056
-0.0555
-0.055
-0.0555
-0.055
-0.0555
-0.059
-0.055
-0.0495
-0.0495
-0.0495
-0.0495
-0.0485
-0.0535
-0.0615
-0.0625
-0.0595
-0.054
-0.0535
-0.0545
-0.0555
-0.054
-0.0505
-0.047
-0.045
-0.0475
-0.0485
-0.0495
-0.0515
-0.044
-0.037
-0.0365
-0.032
-0.029
-0.03
-0.026
-0.021
-0.0205
-0.0215
-0.0215
-0.0185
-0.014
-0.007
-0.003
0.001
0.0005
-0.004
-0.0035
-0.0025
-0.0045
-0.0015
0.0035
0.003
0.0025
0.0045
0.008
0.012
0.0155
0.016
0.017
0.019
0.017
0.0145
0.013
0.013
0.0105
0.011
0.01
0.0085
0.0115
0.0105
0.0105
0.0135
0.0115
0.007
0.007
0.007
0.01
0.012
0.0115
0.0125
0.0125
0.0115
0.015
0.0195
0.0165
0.0155
0.014
0.014
0.0125
0.0135
0.011
0.0065
0.009
0.0095
0.01
0.007
0.009
0.009
0.002
-0.0025
-0.005
-0.008
-0.013
-0.02
-0.025
-0.0285
-0.0335
-0.04
-0.051
-0.0575
-0.058
-0.062
-0.066
-0.0655
-0.0645
-0.063
-0.0705
-0.073
-0.078
-0.084
-0.0825
-0.082
-0.0835
-0.0855
-0.0825
-0.081
-0.077
-0.076
-0.0765
-0.0755
-0.0765
-0.0755
-0.075
-0.0785
-0.0815
-0.085
-0.0875
-0.0865
-0.0835
-0.0805
-0.079
-0.074
-0.072
-0.0725
-0.074
-0.075
-0.076
-0.082
-0.0865
-0.089
-0.0905
-0.0895
-0.09
-0.088
-0.086
-0.0865
-0.086
-0.087
-0.0865
-0.085
-0.0815
-0.0815
-0.082
-0.079
-0.0815
-0.0825
-0.0785
-0.077
-0.0765
-0.074
-0.077
-0.076
-0.07
-0.072
-0.0785
-0.08
-0.076
-0.0735
-0.0725
-0.0745
-0.075
-0.0765
-0.0735
-0.071
-0.077
-0.0815
-0.092
-0.0985
-0.099
-0.106
-0.1005
-0.101
-0.1125
-0.1165
-0.1155
-0.1065
-0.102
-0.0955
-0.08
-0.057
-0.0215
0.0125
0.0455
0.0825
0.1175
0.156
0.1975
0.245
0.297
0.347
0.3895
0.422
0.455
0.4815
0.504
0.539
0.5435
0.504
0.469
0.454
0.441
0.43
0.437
0.422
0.385
0.3455
0.321
0.293
0.2335
0.197
0.1595
0.111
0.064
0.018
-0.007
-0.0265
-0.0545
-0.0895
-0.115
-0.1205
-0.1145
-0.1095
-0.1045
-0.101
-0.1015
-0.109
-0.114
-0.103
-0.093
-0.094
-0.0965
-0.0935
-0.0915
-0.0865
-0.0845
-0.0895
-0.0885
-0.085
-0.0805
-0.08
-0.0835
-0.0855
-0.0895
-0.0925
-0.0885
-0.086
-0.0855
-0.084
-0.0915
-0.09
-0.085
-0.0835
-0.0795
-0.0795
-0.0795
-0.0825
-0.0825
-0.0825
-0.0815
-0.079
-0.0765
-0.0755
-0.076
-0.072
-0.0725
-0.0735
-0.0735
-0.075
-0.0705
-0.072
-0.075
-0.075
-0.0765
-0.0725
-0.0695
-0.0715
-0.072
-0.0725
-0.0735
-0.072
-0.0665
-0.0665
-0.0715
-0.0745
-0.076
-0.07
-0.0705
-0.072
-0.071
-0.07
-0.0695
-0.0725
-0.073
-0.0725
-0.0675
-0.065
-0.065
-0.0625
-0.0675
-0.0685
-0.07
-0.0735
-0.0655
-0.062
-0.063
-0.063
-0.0665
-0.065
-0.065
-0.063
-0.0615
-0.0645
-0.0635
-0.065
-0.067
-0.0615
-0.0605
-0.065
-0.067
-0.063
-0.061
-0.063
-0.065
-0.0645
-0.065
-0.069
-0.068
-0.065
-0.0665
-0.0685
-0.064
-0.059
-0.0585
-0.0585
-0.058
-0.057
-0.0605
-0.0615
-0.053
-0.055
-0.0655
-0.072
-0.073
-0.0705
-0.071
-0.066
-0.059
-0.0585
-0.059
-0.059
-0.064
-0.0635
-0.059
-0.0595
-0.0675
-0.082
-0.0805
-0.073
-0.0725
-0.0725
-0.074
-0.0735
-0.073
-0.07
-0.071
-0.07
-0.0655
-0.0645
-0.0655
-0.067
-0.0645
-0.0605
-0.0585
-0.0585
-0.059
-0.057
-0.0555
-0.055
-0.0575
-0.062
-0.0655
-0.0685
-0.064
-0.062
-0.0605
-0.0585
-0.0585
-0.057
-0.0565
-0.056
-0.0565
-0.0585
-0.0585
-0.056
-0.0555
-0.0545
-0.058
-0.0615
-0.059
-0.0615
-0.058
-0.056
-0.054
-0.0515
-0.0605
-0.058
-0.054
-0.056
-0.056
-0.054
-0.055
-0.057
-0.0545
-0.0575
-0.0565
-0.054
-0.053
-0.051
-0.055
-0.057
-0.056
-0.055
-0.057
-0.058
-0.0555
-0.0545
-0.053
-0.052
-0.0525
-0.058
-0.06
-0.055
-0.055
-0.0555
-0.055
-0.059
-0.061
-0.064
-0.065
-0.062
-0.063
-0.0615
-0.0575
-0.055
-0.0555
-0.061
-0.0615
-0.0585
-0.0585
-0.061
-0.062
-0.061
-0.062
-0.063
-0.0625
-0.0625
-0.0625
-0.067
-0.068
-0.0615
-0.061
-0.061
-0.059
-0.061
-0.061
-0.0615
-0.0625
-0.0645
-0.069
-0.067
-0.062
-0.06
-0.0595
-0.0635
-0.0655
-0.071
-0.08
-0.0765
-0.072
-0.0735
-0.071
-0.0735
-0.066
-0.059
-0.068
-0.0645
-0.0565
-0.0665
-0.0785
-0.0765
-0.071
-0.0665
-0.0615
-0.0635
-0.0655
-0.0595
-0.059
-0.062
-0.0585
-0.058
-0.0695
-0.0675
-0.056
-0.0555
-0.0555
-0.059
-0.06
-0.055
-0.058
-0.0605
-0.06
-0.0615
-0.056
-0.055
-0.056
-0.0505
-0.0515
-0.052
-0.0515
-0.0525
-0.0465
-0.045
-0.0475
-0.0495
-0.0515
-0.052
-0.052
-0.049
-0.045
-0.0295
-0.0255
-0.0355
-0.0355
-0.034
-0.0365
-0.039
-0.0385
-0.041
-0.038
-0.038
-0.04
-0.0415
-0.0395
-0.0355
-0.0375
-0.035
-0.037
-0.037
-0.0315
-0.0315
-0.035
-0.0325
-0.0315
-0.029
-0.0285
-0.0335
-0.0355
-0.0345
-0.029
-0.0295
-0.032
-0.03
-0.0295
-0.0315
-0.035
-0.0345
-0.0315
-0.0305
-0.031
-0.034
-0.034
-0.034
-0.0355
-0.033
-0.0295
-0.028
-0.032
-0.035
-0.035
-0.033
-0.031
-0.03
-0.024
-0.025
-0.0305
-0.027
-0.0265
-0.0285
-0.0295
-0.031
-0.0365
-0.04
-0.034
-0.0445
-0.0535
-0.0485
-0.0475
-0.0475
-0.048
-0.0455
-0.045
-0.045
-0.0455
-0.051
-0.0475
-0.0435
-0.044
-0.047
-0.048
-0.045
-0.044
-0.043
-0.041
-0.0405
-0.0395
-0.0365
-0.034
-0.036
-0.0395
-0.04
-0.0365
-0.04
-0.0445
-0.037
-0.035
-0.041
-0.0415
-0.0415
-0.042
-0.0405
-0.0395
-0.0445
-0.043
-0.038
-0.0415
-0.047
-0.0545
-0.053
-0.0465
-0.048
-0.045
-0.0435
-0.0455
-0.0475
-0.0515
-0.054
-0.052
-0.0445
-0.0425
-0.0455
-0.045
-0.047
-0.053
-0.0495
-0.0445
-0.048
-0.048
-0.051
-0.0545
-0.052
-0.05
-0.0465
-0.0455
-0.043
-0.0455
-0.047
-0.046
-0.0455
-0.0465
-0.05
-0.045
-0.0435
-0.045
-0.048
-0.052
-0.05
-0.0455
-0.0455
-0.0485
-0.0485
-0.0495
-0.0525
-0.055
-0.0555
-0.0555
-0.0555
-0.056
-0.059
-0.059
-0.058
-0.056
-0.058
-0.0605
-0.062
-0.0625
-0.0655
-0.0665
-0.0655
-0.06
-0.0585
-0.0635
-0.066
-0.07
-0.0705
-0.0695
-0.0725
-0.0695
-0.0645
-0.062
-0.06
-0.059
-0.0555
-0.058
-0.0685
-0.068
-0.0645
-0.063
-0.062
-0.0645
-0.071
-0.075
-0.0695
-0.063
-0.0615
-0.0655
-0.071
-0.0685
-0.066
-0.0715
-0.071
-0.066
-0.0625
-0.06
-0.064
-0.0665
-0.065
-0.065
-0.067
-0.065
-0.0685
-0.0735
-0.07
-0.0705
-0.075
-0.072
-0.067
-0.069
-0.072
-0.0665
-0.0605
-0.0625
-0.063
-0.062
-0.0615
-0.063
-0.063
-0.061
-0.06
-0.0565
-0.053
-0.0515
-0.0525
-0.052
-0.052
-0.0535
-0.055
-0.06
-0.0675
-0.069
-0.068
-0.0685
-0.064
-0.0585
-0.057
-0.0595
-0.0635
-0.0615
-0.061
-0.0655
-0.062
-0.0585
-0.052
-0.0475
-0.0575
-0.0625
-0.061
-0.058
-0.059
-0.0555
-0.0535
-0.056
-0.055
-0.0535
-0.0545
-0.057
-0.0535
-0.0515
-0.0515
-0.052
-0.0525
-0.0485
-0.05
-0.0545
-0.056
-0.0525
-0.051
-0.0535
-0.055
-0.0535
-0.0515
-0.052
-0.0545
-0.0595
-0.062
-0.0595
-0.0575
-0.0585
-0.059
-0.0565
-0.056
-0.056
-0.057
-0.0565
-0.0555
-0.059
-0.0575
-0.0555
-0.0535
-0.0495
-0.0545
-0.0555
-0.0525
-0.051
-0.048
-0.05
-0.05
-0.045
-0.046
-0.0525
-0.0545
-0.053
-0.0485
-0.059
-0.077
-0.074
-0.068
-0.0625
-0.063
-0.064
-0.06
-0.0625
-0.0595
-0.0595
-0.0625
-0.0645
-0.065
-0.0595
-0.0605
-0.062
-0.061
-0.0615
-0.063
-0.062
-0.0575
-0.0555
-0.051
-0.0515
-0.057
-0.0545
-0.0545
-0.055
-0.0495
-0.0485
-0.0555
-0.0575
-0.0555
-0.052
-0.052
-0.0505
-0.0495
-0.0515
-0.0485
-0.054
-0.0545
-0.053
-0.0535
-0.048
-0.0475
-0.0485
-0.054
-0.053
-0.043
-0.0475
-0.0545
-0.055
-0.0555
-0.055
-0.053
-0.0495
-0.046
-0.0485
-0.0525
-0.0515
-0.0505
-0.0505
-0.0515
-0.0525
-0.0485
-0.046
-0.0435
-0.045
-0.048
-0.0465
-0.0415
-0.043
-0.0455
-0.0425
-0.0425
-0.042
-0.049
-0.048
-0.0445
-0.044
-0.041
-0.044
-0.0415
-0.041
-0.0375
-0.0345
-0.034
-0.0315
-0.0355
-0.0385
-0.0405
-0.0485
-0.048
-0.0425
-0.044
-0.043
-0.039
-0.0345
-0.0315
-0.031
-0.033
-0.038
-0.0365
-0.0345
-0.035
-0.035
-0.0365
-0.0345
-0.031
-0.0315
-0.0315
-0.028
-0.0285
-0.029
-0.0245
-0.022
-0.0265
-0.027
-0.026
-0.0295
-0.0265
-0.0285
-0.032
-0.03
-0.028
-0.0245
-0.026
-0.0255
-0.0215
-0.0205
-0.0205
-0.0185
-0.017
-0.0265
-0.031
-0.0275
-0.029
-0.0305
-0.0305
-0.0305
-0.0285
-0.0255
-0.0245
-0.0235
-0.0215
-0.0255
-0.0245
-0.0255
-0.03
-0.027
-0.0235
-0.0195
-0.022
-0.025
-0.024
-0.0245
-0.021
-0.0225
-0.023
-0.022
-0.025
-0.024
-0.022
-0.02
-0.0215
-0.024
-0.02
-0.0165
-0.0165
-0.0165
-0.0185
-0.02
-0.016
-0.013
-0.017
-0.0235
-0.0225
-0.0165
-0.017
-0.019
-0.02
-0.0175
-0.018
-0.0155
-0.0135
-0.014
-0.011
-0.0125
-0.0105
-0.0065
-0.009
-0.0145
-0.021
-0.0255
-0.0215
-0.0145
-0.016
-0.019
-0.0155
-0.0155
-0.0195
-0.022
-0.016
-0.013
-0.0165
-0.0205
-0.0285
-0.0245
-0.0205
-0.021
-0.019
-0.021
-0.019
-0.0175
-0.0195
-0.021
-0.021
-0.0195
-0.016
-0.0225
-0.0245
-0.019
-0.0175
-0.0185
-0.0205
-0.0165
-0.015
-0.0115
-0.0135
-0.019
-0.0155
-0.0185
-0.024
-0.024
-0.02
-0.017
-0.021
-0.0255
-0.027
-0.029
-0.025
-0.0185
-0.027
-0.035
-0.0285
-0.0265
-0.0285
-0.028
-0.0275
-0.0265
-0.032
-0.034
-0.031
-0.0315
-0.0295
-0.028
-0.0275
-0.028
-0.0275
-0.0285
-0.0255
-0.0245
-0.0295
-0.0255
-0.024
-0.0245
-0.0245
-0.022
-0.0205
-0.025
-0.0225
-0.0205
-0.0245
-0.0215
-0.021
-0.021
-0.017
-0.012
-0.011
-0.014
-0.016
-0.0165
-0.0145
-0.0125
-0.0105
-0.007
-0.01
-0.012
-0.0115
-0.008
-0.007
-0.016
-0.0245
-0.0305
-0.029
-0.0285
-0.026
-0.0245
-0.0285
-0.0275
-0.0275
-0.028
-0.0275
-0.025
-0.0225
-0.024
-0.023
-0.02
-0.0235
-0.0225
-0.0185
-0.0225
-0.0265
-0.0275
-0.0265
-0.0245
-0.021
-0.026
-0.0315
-0.0265
-0.0245
-0.0245
-0.024
-0.026
-0.024
-0.018
-0.0165
-0.0275
-0.0325
-0.0285
-0.026
-0.0275
-0.029
-0.0265
-0.028
-0.0245
-0.0215
-0.0225
-0.0205
-0.0175
-0.0165
-0.019
-0.019
-0.0185
-0.025
-0.0305
-0.03
-0.028
-0.0275
-0.0275
-0.02
-0.018
-0.0235
-0.0245
-0.023
-0.021
-0.0165
-0.0115
-0.0165
-0.0235
-0.0245
-0.0245
-0.023
-0.0185
-0.0135
-0.0105
-0.005
0.0005
0.002
0.0025
0.003
0.0065
0.01
0.0115
0.013
0.0145
0.0175
0.023
0.0225
0.0225
0.029
0.028
0.028
0.032
0.034
0.039
0.042
0.0405
0.045
0.0475
0.05
0.055
0.0525
0.051
0.0455
0.04
0.042
0.045
0.0455
0.0445
0.0475
0.045
0.045
0.0475
0.045
0.046
0.047
0.053
0.0545
0.051
0.051
0.0475
0.0465
0.0485
0.0495
0.051
0.052
0.0485
0.044
0.049
0.0505
0.0495
0.0535
0.054
0.052
0.051
0.0525
0.0495
0.047
0.0475
0.0455
0.045
0.0495
0.0535
0.055
0.0555
0.0515
0.0425
0.0335
0.028
0.017
0.0145
0.0135
0.007
0.0
-0.01
-0.0115
-0.0115
-0.0145
-0.019
-0.0245
-0.0235
-0.0205
-0.018
-0.0215
-0.0235
-0.0255
-0.034
