ECG
0.8055
0.809
0.831
0.834
0.831
0.857
0.877
0.8755
0.8755
0.9075
0.8945
0.852
0.8475
0.833
0.826
0.836
0.8515
0.859
0.866
0.8715
0.868
0.8945
0.911
0.9055
0.8985
0.864
0.843
0.8525
0.862
0.873
0.879
0.882
0.884
0.8865
0.8865
0.886
0.882
0.857
0.848
0.8625
0.8625
0.859
0.8625
0.8435
0.827
0.82
0.7885
0.789
0.813
0.816
0.824
0.823
0.83
0.8235
0.818
0.8385
0.8355
0.8325
0.8095
0.802
0.8265
0.8155
0.7955
0.7755
0.7855
0.8055
0.797
0.792
0.768
0.7725
0.793
0.7745
0.7675
0.771
0.788
0.7875
0.768
0.7695
0.7815
0.795
0.7865
0.773
0.77
0.778
0.776
0.7665
0.769
0.777
0.7925
0.7955
0.783
0.778
0.7795
0.7865
0.7845
0.777
0.787
0.7945
0.773
0.764
0.7815
0.767
0.749
0.77
0.7905
0.791
0.772
0.7715
0.782
0.7825
0.7725
0.752
0.755
0.7655
0.7805
0.785
0.7735
0.7545
0.7315
0.7345
0.753
0.7705
0.793
0.7975
0.785
0.771
0.7545
0.7555
0.7585
0.75
0.745
0.759
0.781
0.7785
0.7645
0.767
0.766
0.754
0.744
0.727
0.697
0.679
0.6705
0.6545
0.6495
0.6645
0.6695
0.6855
0.714
0.7125
0.722
0.7315
0.744
0.7775
0.801
0.8315
0.8685
0.9065
0.957
1.0185
1.075
1.117
1.167
1.229
1.261
1.284
1.32
1.339
1.3495
1.347
1.3325
1.3225
1.2975
1.2635
1.2325
1.1925
1.156
1.1295
1.127
1.146
1.181
1.1845
1.1435
1.145
1.1565
1.152
1.141
1.134
1.1505
1.1425
1.104
1.0675
1.0475
1.035
1.019
1.001
0.986
0.988
0.996
0.9885
0.9885
0.977
0.953
0.934
0.9265
0.903
0.857
0.851
0.854
0.857
0.846
0.8245
0.8165
0.794
0.784
0.789
0.784
0.78
0.7865
0.7985
0.783
0.7585
0.7545
0.7475
0.7395
0.739
0.7405
0.738
0.7445
0.756
0.778
0.773
0.7555
0.756
0.735
0.734
0.75
0.7475
0.7535
0.746
0.7325
0.7255
0.733
0.7535
0.737
0.7295
0.7365
0.733
0.739
0.7465
0.7455
0.7445
0.7385
0.734
0.737
0.7445
0.756
0.755
0.752
0.7555
0.7535
0.7495
0.748
0.7335
0.732
0.7445
0.7445
0.7335
0.7265
0.7285
0.7315
0.7455
0.759
0.7595
0.738
0.7125
0.7175
0.735
0.7525
0.76
0.752
0.7565
0.7265
0.712
0.7315
0.7295
0.733
0.7275
0.7265
0.726
0.7265
0.734
0.726
0.7235
0.7385
0.733
0.7185
0.7115
0.7105
0.715
0.733
0.739
0.717
0.7185
0.729
0.731
0.728
0.7175
0.7005
0.7165
0.726
0.717
0.722
0.7035
0.696
0.694
0.681
0.677
0.6775
0.677
0.672
0.6695
0.677
0.692
0.702
0.7105
0.7185
0.712
0.7125
0.7235
0.7125
0.689
0.6765
0.674
0.677
0.6865
0.6935
0.6845
0.676
0.6815
0.6775
0.6795
0.684
0.664
0.6615
0.6575
0.6525
0.659
0.6525
0.6445
0.631
0.6265
0.619
0.62
0.615
0.6035
0.6095
0.602
0.5865
0.5865
0.5905
0.591
0.592
0.5915
0.5785
0.5475
0.552
0.5655
0.559
0.5605
0.548
0.5325
0.532
0.532
0.5145
0.5115
0.516
0.5165
0.5355
0.521
0.4925
0.492
0.5055
0.5115
0.495
0.497
0.4935
0.481
0.489
0.476
0.4615
0.463
0.4595
0.463
0.4545
0.4555
0.446
0.4365
0.4665
0.453
0.448
0.4635
0.4585
0.4635
0.461
0.462
0.4605
0.4595
0.4405
0.4315
0.4495
0.4525
0.4525
0.46
0.4635
0.4715
0.4825
0.48
0.475
0.4535
0.468
0.497
0.4845
0.4865
0.4945
0.4985
0.514
0.5365
0.543
0.533
0.5525
0.5565
0.535
0.543
0.546
0.5485
0.5515
0.556
0.5665
0.573
0.592
0.5975
0.5965
0.597
0.6045
0.615
0.617
0.6245
0.6315
0.646
0.665
0.672
0.672
0.677
0.683
0.691
0.6975
0.7025
0.707
0.694
0.6875
0.688
0.6985
0.7155
0.6985
0.6955
0.7005
0.6985
0.708
0.715
0.742
0.747
0.743
0.751
0.7415
0.739
0.7485
0.757
0.7545
0.745
0.7475
0.759
0.7705
0.7935
0.807
0.7995
0.791
0.764
0.771
0.794
0.774
0.768
0.7725
0.7705
0.772
0.7755
0.785
0.7895
0.795
0.8055
0.7965
0.7925
0.803
0.7915
0.7895
0.8035
0.802
0.794
0.7855
0.8025
0.8195
0.7965
0.796
0.804
0.7955
0.8005
0.7925
0.777
0.783
0.7975
0.808
0.8105
0.8045
0.8005
0.808
0.8185
0.819
0.8185
0.8295
0.833
0.8275
0.8295
0.8175
0.8145
0.813
0.795
0.796
0.8045
0.803
0.8105
0.8205
0.8095
0.794
0.792
0.806
0.8085
0.808
0.828
0.8445
0.8475
0.848
0.8395
0.813
0.7945
0.792
0.8045
0.813
0.811
0.812
0.8145
0.818
0.821
0.826
0.838
0.86
0.8625
0.8475
0.8435
0.8445
0.856
0.8535
0.837
0.8425
0.844
0.851
0.863
0.8765
0.8825
0.879
0.883
0.8705
0.8585
0.856
0.864
0.8695
0.8855
0.907
0.8965
0.894
0.8985
0.888
0.877
0.8755
0.8775
0.8775
0.871
0.865
0.8635
0.861
0.8575
0.849
0.8425
0.834
0.8285
0.8335
0.832
0.8285
0.8275
0.8305
0.8235
0.812
0.802
0.7955
0.795
0.7935
0.803
0.8055
0.81
0.8075
0.7945
0.7885
0.7875
0.786
0.784
0.787
0.7815
0.7765
0.7705
0.763
0.7665
0.7735
0.776
0.777
0.7725
0.7635
0.771
0.788
0.7785
0.7685
0.7725
0.7745
0.776
0.774
0.775
0.775
0.78
0.793
0.801
0.7925
0.7745
0.7595
0.7555
0.755
0.7575
0.7625
0.778
0.8025
0.8075
0.8005
0.7845
0.7725
0.7755
0.782
0.7875
0.7725
0.754
0.7605
0.77
0.774
0.7805
0.7665
0.756
0.7595
0.7645
0.7795
0.788
0.783
0.767
0.761
0.763
0.76
0.759
0.7575
0.7655
0.7835
0.783
0.7715
0.776
0.7865
0.785
0.7835
0.7775
0.7655
0.7675
0.784
0.7965
0.788
0.7795
0.775
0.76
0.7435
0.7285
0.712
0.692
0.6665
0.657
0.6725
0.685
0.6845
0.6865
0.6855
0.683
0.7085
0.736
0.754
0.7815
0.811
0.846
0.891
0.9435
0.9935
1.0455
1.112
1.1785
1.2355
1.289
1.337
1.3795
1.4245
1.453
1.4615
1.458
1.4385
1.412
1.377
1.348
1.311
1.2735
1.255
1.2325
1.213
1.222
1.2275
1.2
1.199
1.2235
1.233
1.233
1.2225
1.204
1.1985
1.1785
1.1465
1.1325
1.106
1.0805
1.0685
1.071
1.0835
1.082
1.0685
1.054
1.0465
1.032
1.0205
0.9945
0.938
0.914
0.9105
0.895
0.886
0.8745
0.8645
0.8545
0.8445
0.843
0.8345
0.8185
0.809
0.808
0.8015
0.7915
0.7885
0.777
0.7685
0.7775
0.7815
0.7845
0.785
0.778
0.777
0.7705
0.7755
0.786
0.791
0.786
0.7725
0.773
0.7745
0.774
0.7765
0.7695
0.753
0.753
0.7635
0.773
0.774
0.768
0.7725
0.77
0.7725
0.7795
0.779
0.7815
0.791
0.798
0.7815
0.7705
0.7755
0.779
0.783
0.7785
0.769
0.7655
0.7815
0.794
0.79
0.787
0.777
0.77
0.7755
0.7815
0.784
0.785
0.7875
0.786
0.7805
0.779
0.772
0.7705
0.777
0.7785
0.7855
0.777
0.7675
0.7735
0.782
0.788
0.7785
0.7745
0.7785
0.778
0.779
0.781
0.7815
0.784
0.7835
0.7745
0.767
0.769
0.7735
0.7775
0.78
0.7595
0.75
0.756
0.7575
0.7645
0.7645
0.7605
0.76
0.766
0.764
0.76
0.7745
0.7705
0.75
0.749
0.7365
0.7185
0.7255
0.74
0.7445
0.737
0.7335
0.729
0.7255
0.7335
0.735
0.7335
0.7325
0.7295
0.724
0.726
0.736
0.7305
0.72
0.7125
0.7115
0.714
0.703
0.699
0.7
0.6965
0.6935
0.701
0.705
0.6895
0.68
0.6665
0.661
0.6635
0.6575
0.6525
0.65
0.653
0.6525
0.646
0.639
0.623
0.612
0.6105
0.6105
0.604
0.5925
0.6015
0.5955
0.56
0.5515
0.568
0.5655
0.551
0.546
0.538
0.5285
0.5255
0.52
0.5225
0.5285
0.526
0.518
0.515
0.5185
0.511
0.5035
0.502
0.505
0.5025
0.4945
0.4865
0.4785
0.48
0.4855
0.491
0.4895
0.485
0.4795
0.4685
0.462
0.463
0.472
0.4725
0.466
0.469
0.469
0.463
0.459
0.4645
0.473
0.4755
0.474
0.473
0.469
0.461
0.4695
0.477
0.479
0.486
0.4895
0.5015
0.5125
0.5115
0.5125
0.516
0.5165
0.524
0.531
0.534
0.541
0.5445
0.555
0.569
0.575
0.5765
0.57
0.566
0.572
0.582
0.5905
0.595
0.6005
0.6105
0.621
0.634
0.644
0.638
0.639
0.6485
0.65
0.6535
0.6565
0.6685
0.6775
0.684
0.689
0.6745
0.6775
0.688
0.692
0.7105
0.731
0.719
0.721
0.7355
0.735
0.743
0.7415
0.7455
0.757
0.775
0.7735
0.765
0.7745
0.777
0.7765
0.7815
0.7865
0.797
0.804
0.791
0.7875
0.778
0.791
0.8195
0.799
0.772
0.7665
0.7645
0.766
0.7785
0.7895
0.7935
0.799
0.7965
0.7895
0.7935
0.7955
0.803
0.804
0.7905
0.794
0.8015
0.806
0.8045
0.8055
0.8145
0.812
0.8215
0.8345
0.8315
0.833
0.833
0.8285
0.8235
0.8155
0.818
0.8295
0.8285
0.8215
0.83
0.829
0.841
0.8525
0.833
0.836
0.832
0.8185
0.832
0.854
0.847
0.834
0.8405
0.847
0.8515
0.8485
0.842
0.832
0.824
0.815
0.82
0.844
0.851
0.8485
0.8455
0.8445
0.8495
0.853
0.849
0.8485
0.858
0.869
0.8685
0.8555
0.8465
0.843
0.841
0.8405
0.8445
0.839
0.838
0.8405
0.8365
0.844
0.8485
0.8455
0.85
0.876
0.888
0.892
0.899
0.8925
0.9005
0.9025
0.9005
0.903
0.9005
0.9065
0.9135
0.906
0.8955
0.91
0.9315
0.926
0.902
0.899
0.9105
0.9
0.894
0.892
0.901
0.9195
0.915
0.9115
0.9075
0.9085
0.9075
0.8945
0.8865
0.8835
0.8785
0.8735
0.8725
0.8705
0.872
0.8785
0.8885
0.8915
0.884
0.868
0.8545
0.858
0.8565
0.839
0.827
0.823
0.819
0.817
0.8185
0.82
0.821
0.8155
0.805
0.822
0.825
0.8
0.7975
0.79
0.7845
0.788
0.7855
0.7855
0.7885
0.797
0.797
0.792
0.792
0.797
0.8065
0.812
0.807
0.8
0.7925
0.7885
0.7875
0.7845
0.7835
0.781
0.7785
0.785
0.79
0.7885
0.7895
0.794
0.8
0.7965
0.794
0.795
0.791
0.786
0.7755
0.7735
0.7775
0.773
0.7765
0.785
0.7845
0.7905
0.792
0.7895
0.7915
0.7935
0.7945
0.788
0.7835
0.7745
0.7655
0.764
0.7635
0.76
0.763
0.7735
0.775
0.7745
0.782
0.7965
0.8
0.793
0.7865
0.775
0.771
0.7695
0.7665
0.7695
0.771
0.772
0.7725
0.773
0.781
0.785
0.777
0.7615
0.7385
0.717
0.705
0.698
0.679
0.665
0.66
0.668
0.686
0.687
0.692
0.699
0.7045
0.7235
0.75
0.7805
0.809
0.844
0.8855
0.9215
0.972
1.0485
1.12
1.1775
1.2455
1.314
1.3765
1.4005
1.424
1.4525
1.4505
1.475
1.466
1.425
1.405
1.3665
1.3225
1.2835
1.2495
1.2295
1.2285
1.2495
1.2735
1.269
1.2445
1.248
1.2665
1.277
1.269
1.2455
1.2385
1.222
1.182
1.1595
1.1395
1.1145
1.1005
1.0925
1.0865
1.0815
1.069
1.0445
1.0285
1.024
1.0085
0.9835
0.963
0.942
0.9175
0.9015
0.8875
0.878
0.8695
0.857
0.8455
0.8375
0.8235
0.8095
0.8075
0.8005
0.794
0.7855
0.7755
0.7715
0.7745
0.775
0.7745
0.784
0.7815
0.7795
0.783
0.7785
0.771
0.76
0.7495
0.746
0.7575
0.7645
0.7615
0.7625
0.757
0.745
0.744
0.744
0.7565
0.7695
0.753
0.749
0.7635
0.7655
0.7645
0.7665
0.76
0.755
0.753
0.751
0.748
0.7395
0.737
0.7415
0.7575
0.7665
0.7535
0.7495
0.753
0.747
0.7395
0.7405
0.743
0.7545
0.7715
0.761
0.761
0.7705
0.761
0.758
0.7545
0.7595
0.7615
0.7465
0.7425
0.7415
0.743
0.7515
0.7505
0.7495
0.7495
0.746
0.7545
0.7685
0.764
0.7405
0.7355
0.7465
0.7425
0.74
0.7395
0.7385
0.739
0.741
0.75
0.7555
0.747
0.7325
0.7145
0.714
0.732
0.731
0.7165
0.7115
0.7155
0.716
0.714
0.7125
0.7155
0.7215
0.7225
0.72
0.716
0.7145
0.711
0.706
0.708
0.7085
0.7035
0.7025
0.7085
0.7105
0.7115
0.7095
0.7115
0.71
0.7015
0.6985
0.695
0.697
0.6825
0.6675
0.6705
0.6715
0.668
0.672
0.6805
0.6745
0.666
0.6655
0.662
0.652
0.6435
0.6315
0.633
0.637
0.628
0.6245
0.621
0.621
0.6145
0.611
0.615
0.626
0.63
0.6155
0.605
0.5895
0.5805
0.574
0.5635
0.565
0.56
0.5495
0.5475
0.558
0.563
0.55
0.536
0.5195
0.5115
0.5115
0.508
0.509
0.505
0.495
0.492
0.489
0.4845
0.483
0.478
0.4775
0.473
0.467
0.4705
0.4695
0.467
0.4635
0.463
0.4635
0.4595
0.4535
0.446
0.4375
0.431
0.434
0.4395
0.4375
0.4375
0.446
0.446
0.4475
0.4505
0.454
0.4615
0.4585
0.464
0.469
0.467
0.4695
0.468
0.471
0.4695
0.4695
0.475
0.482
0.4825
0.4715
0.484
0.4915
0.4915
0.5095
0.5205
0.528
0.5325
0.5285
0.5285
0.546
0.5685
0.5715
0.567
0.573
0.5865
0.5905
0.593
0.6
0.609
0.6155
0.614
0.618
0.627
0.6285
0.6285
0.643
0.654
0.649
0.6485
0.656
0.659
0.668
0.679
0.6875
0.699
0.7045
0.7085
0.705
0.7
0.6995
0.7075
0.7225
0.7295
0.7365
0.7415
0.7345
0.7265
0.738
0.749
0.746
0.7575
0.7705
0.7635
0.7495
0.7555
0.768
0.7595
0.757
0.765
0.778
0.782
0.7765
0.7785
0.7835
0.783
0.779
0.786
0.7965
0.795
0.7935
0.808
0.7965
0.795
0.8045
0.8025
0.81
0.7885
0.751
0.735
0.7355
0.7505
0.778
0.7975
0.8005
0.797
0.802
0.7955
0.793
0.802
0.801
0.7955
0.8005
0.807
0.8095
0.815
0.811
0.8035
0.8025
0.802
0.795
0.797
0.807
0.8105
0.81
0.81
0.8065
0.8035
0.803
0.799
0.7935
0.7935
0.7955
0.794
0.807
0.821
0.814
0.8105
0.8105
0.807
0.8095
0.806
0.8025
0.7965
0.8095
0.8205
0.8045
0.8075
0.825
0.8345
0.8365
0.834
0.8165
0.8155
0.8345
0.8345
0.83
0.8375
0.852
0.87
0.8815
0.875
0.8685
0.888
0.889
0.875
0.882
0.8835
0.8905
0.898
0.8885
0.8885
0.9005
0.907
0.902
0.8955
0.888
0.877
0.8625
0.8635
0.872
0.8615
0.8635
0.8615
0.839
0.825
0.816
0.804
0.807
0.814
0.829
0.8375
0.8315
0.8285
0.8345
0.8375
0.8085
0.806
0.821
0.817
0.81
0.79
0.784
0.809
0.818
0.81
0.814
0.813
0.8155
0.824
0.825
0.833
0.827
0.803
0.7945
0.8055
0.817
0.8175
0.8185
0.822
0.8145
0.8065
0.809
0.813
0.8145
0.8065
0.8035
0.803
0.8105
0.8075
0.7925
0.817
0.827
0.8015
0.8055
0.804
0.7725
0.7665
0.7545
0.7295
0.723
0.7225
0.719
0.7195
0.7285
0.736
0.751
0.7785
0.7985
0.811
0.8255
0.841
0.869
0.907
0.943
0.9825
1.027
1.082
1.154
1.229
1.2875
1.325
1.363
1.3995
1.4345
1.4605
1.4775
1.4845
1.4625
1.4235
1.382
1.34
1.2905
1.26
1.234
1.2105
1.236
1.2585
1.261
1.2805
1.273
1.264
1.284
1.2805
1.2575
1.2245
1.2155
1.2215
1.2015
1.1775
1.1465
1.112
1.0885
1.069
1.067
1.0645
1.0495
1.032
1.036
1.0375
1.0135
0.997
0.974
0.951
0.9265
0.9055
0.889
0.869
0.861
0.8685
0.8715
0.8545
0.8365
0.831
0.8325
0.826
0.818
0.8065
0.796
0.7905
0.798
0.803
0.7955
0.791
0.7975
0.794
0.7805
0.7785
0.7715
0.774
0.786
0.794
0.798
0.802
0.7955
0.7875
0.779
0.7675
0.763
0.757
0.761
0.7515
0.7415
0.742
0.7555
0.786
0.7775
0.7635
0.764
0.758
0.778
0.785
0.7675
0.7655
0.7665
0.764
0.7615
0.769
0.769
0.781
0.795
0.7725
0.765
0.766
0.764
0.76
0.7465
0.76
0.7575
0.7365
0.7435
0.754
0.7545
0.7445
0.7355
0.736
0.7465
0.7505
0.743
0.754
0.771
0.7685
0.768
0.7585
0.7425
0.742
0.7385
0.728
0.7235
0.7355
0.739
0.7305
0.74
0.752
0.7535
0.7605
0.7635
0.755
0.7495
0.736
0.731
0.735
0.739
0.7505
0.751
0.7475
0.7515
0.738
0.7195
0.7195
0.7255
0.723
0.724
0.7365
0.733
0.726
0.7265
0.719
0.703
0.6875
0.682
0.6785
0.6835
0.6985
0.69
0.6835
0.712
0.725
0.7105
0.6955
0.6965
0.701
0.6945
0.6885
0.684
0.681
0.677
0.671
0.6655
0.6575
0.646
0.6455
0.6535
0.668
0.653
0.632
0.6265
0.622
0.6235
0.6165
0.617
0.6
0.589
0.59
0.5835
0.5715
0.558
0.5645
0.568
0.5535
0.542
0.5355
0.5205
0.512
0.5075
0.5075
0.505
0.4905
0.485
0.473
0.4845
0.495
0.4735
0.469
0.4725
0.4775
0.4735
0.4705
0.4665
0.453
0.4475
0.4365
0.44
0.447
0.437
0.4445
0.4585
0.463
0.4475
0.4225
0.434
0.436
0.4305
0.428
0.415
0.425
0.4335
0.4395
0.447
0.4355
0.4245
0.429
0.446
0.451
0.4575
0.4655
0.4605
0.4565
0.4585
0.461
0.4575
0.4685
0.4895
0.507
0.5185
0.5245
0.5365
0.5355
0.5265
0.5145
0.521
0.5265
0.5225
0.551
0.558
0.547
0.557
0.5675
0.5625
0.576
0.601
0.603
0.615
0.628
0.644
0.6405
0.634
0.6525
0.659
0.6615
0.6575
0.6695
0.6735
0.661
0.6685
0.6705
0.681
0.6865
0.68
0.6755
0.681
0.682
0.6885
0.6995
0.7005
0.7225
0.737
0.745
0.7425
0.739
0.749
0.7465
0.754
0.7605
0.7655
0.7735
0.781
0.787
0.7875
0.7915
0.77
0.7515
0.757
0.764
0.7675
0.7755
0.7845
0.769
0.7775
0.8005
0.79
0.7765
0.7705
0.793
0.7935
0.764
0.7545
0.7535
0.7755
0.7885
0.7705
0.7705
0.7755
0.7775
0.786
0.776
0.775
0.776
0.7765
0.7835
0.7875
0.7835
0.78
0.7945
0.7955
0.7945
0.7935
0.79
0.7905
0.7945
0.8025
0.7895
0.782
0.7995
0.8015
0.799
0.7975
0.799
0.806
0.792
0.7985
0.7955
0.7705
0.7505
0.754
0.777
0.7725
0.782
0.79
0.79
0.797
0.7945
0.785
0.788
0.802
0.8105
0.8115
0.7905
0.7815
0.7785
0.774
0.775
0.7585
0.747
0.7585
0.783
0.798
0.793
0.796
0.802
0.7995
0.792
0.7835
0.786
0.7815
0.7815
0.786
0.795
0.7905
0.7595
0.7635
0.77
0.772
0.786
0.798
0.7955
0.8065
0.829
0.796
0.7715
0.779
0.775
0.763
0.7605
0.772
0.799
0.8245
0.826
0.821
0.8055
0.8035
0.7965
0.786
0.7845
0.7695
0.773
0.7845
0.777
0.78
0.812
0.8235
0.8015
0.813
0.833
0.822
0.825
0.82
0.8195
0.815
0.81
0.8255
0.8205
0.8175
0.81
0.808
0.825
0.8395
0.8385
0.828
0.822
0.8175
0.816
0.809
0.8135
0.8345
0.8425
0.832
0.828
0.8205
0.825
0.841
0.833
0.8395
0.8475
0.856
0.8545
0.832
0.84
0.855
0.85
0.8495
0.856
0.867
0.8875
0.87
0.851
0.8545
0.85
0.8655
0.8595
0.8555
0.86
0.857
0.859
0.8545
0.8555
0.8605
0.87
0.878
0.877
0.8765
0.8805
0.882
0.89
0.8995
0.885
0.8575
0.852
0.856
0.8305
0.811
0.8135
0.821
0.845
0.845
0.824
0.821
0.8235
0.827
0.8185
0.8195
0.7955
0.767
0.783
0.785
0.775
0.766
0.779
0.79
0.783
0.782
0.781
0.7855
0.789
0.8
0.7775
0.761
0.772
0.7535
0.765
0.791
0.777
0.7555
0.778
0.8015
0.809
0.809
0.779
0.7805
0.791
0.774
0.7505
0.7445
0.7655
0.7655
0.764
0.7675
0.757
0.7525
0.7595
0.764
0.765
0.789
0.799
0.788
0.7805
0.776
0.772
0.7695
0.763
0.7605
0.77
0.7635
0.765
0.7695
0.773
0.776
0.758
0.7535
0.754
0.757
0.768
0.764
0.7595
0.7625
0.752
0.7385
0.747
0.745
0.7385
0.7535
0.7535
0.7505
0.7615
0.758
0.7445
0.743
0.7525
0.7655
0.774
0.762
0.7445
0.72
0.717
0.7245
0.7055
0.7025
0.685
0.662
0.6635
0.6815
0.683
0.698
0.734
0.7365
0.768
0.774
0.7945
0.8525
0.875
0.9195
0.9845
1.0675
1.103
1.12
1.1885
1.236
1.265
1.3255
1.3825
1.4035
1.412
1.4105
1.3975
1.3805
1.3435
1.2955
1.255
1.215
1.1865
1.1545
1.1325
1.135
1.135
1.1375
1.1325
1.1275
1.1395
1.1305
1.109
1.1155
1.1105
1.099
1.0835
1.0435
1.026
1.0215
1.011
0.9945
0.9845
0.99
0.9835
0.959
0.9605
0.9695
0.9645
0.967
0.949
0.928
0.9005
0.876
0.8555
0.831
0.8315
0.8365
0.834
0.81
0.798
0.7895
0.7775
0.7765
0.784
0.796
0.778
0.7675
0.764
0.7475
0.7495
0.7775
0.7905
0.7775
0.7645
0.741
0.7245
0.7285
0.7515
0.747
0.7345
0.7555
0.759
0.773
0.78
0.7725
0.768
0.745
0.739
0.7615
0.7825
0.762
0.7265
0.7045
0.7065
0.731
0.7605
0.751
0.7285
0.7425
0.752
0.7625
0.734
0.728
0.746
0.7225
0.7325
0.7435
0.7445
0.747
0.739
0.739
0.7295
0.72
0.73
0.7345
0.7335
0.7395
0.735
0.737
0.7415
0.741
0.762
0.7655
0.7505
0.7545
0.755
0.7415
0.729
0.723
0.7215
0.749
0.7555
0.7175
0.7175
0.7205
0.7
0.7
0.7125
0.7275
0.7375
0.729
0.7025
0.6985
0.7065
0.712
0.713
0.6995
0.7035
0.704
0.7035
0.713
0.7265
0.718
0.7065
0.7175
0.718
0.7235
0.722
0.71
0.703
0.6965
0.6885
0.6975
0.722
0.727
0.724
0.7355
0.7365
0.713
0.695
0.7115
0.724
0.71
0.696
0.6785
0.677
0.698
0.706
0.6975
0.6745
0.6665
0.6735
0.652
0.649
0.6705
0.6775
0.6755
0.6825
0.7035
0.699
0.6975
0.6885
0.6535
0.644
0.6435
0.671
0.693
0.6925
0.6675
0.6445
0.6485
0.612
0.604
0.616
0.599
0.581
0.577
0.577
0.5635
0.5515
0.543
0.5595
0.573
0.5765
0.576
0.5635
0.5575
0.5435
0.537
0.5385
0.5405
0.537
0.521
0.517
0.505
0.4905
0.4935
0.4925
0.4875
0.4875
0.4735
0.4645
0.458
0.4705
0.4855
0.467
0.4585
0.449
0.4545
0.4545
0.46
0.4665
0.4555
0.46
0.4525
0.465
0.4655
0.4655
0.48
0.455
0.4335
0.4345
0.4505
0.4625
0.457
0.4645
0.469
0.456
0.4415
0.4175
0.4035
0.4115
0.4345
0.4465
0.4495
0.469
0.4765
0.481
0.485
0.492
0.517
0.5165
0.4875
0.4825
0.4825
0.476
0.497
0.506
0.5215
0.524
0.5285
0.553
0.539
0.5415
0.5655
0.576
0.564
0.562
0.5675
0.578
0.6025
0.6165
0.616
0.5885
0.5885
0.604
0.591
0.5995
0.603
0.61
0.6345
0.67
0.697
0.6675
0.6675
0.678
0.6525
0.6585
0.691
0.6855
0.6785
0.7
0.695
0.7035
0.714
0.7
0.7
0.73
0.7415
0.7245
0.7305
0.733
0.726
0.7295
0.7255
0.7155
0.7355
0.7535
0.749
0.7605
0.776
0.766
0.7485
0.746
0.7735
0.795
0.799
0.8175
0.7995
0.7725
0.761
0.7515
0.7535
0.761
0.7715
0.7785
0.782
0.776
0.7665
0.7625
0.763
0.7685
0.7635
0.7605
0.765
0.754
0.768
0.7745
0.7355
0.721
0.7295
0.7405
0.7565
0.775
0.788
0.788
0.7745
0.7635
0.79
0.794
0.768
0.7585
0.77
0.779
0.7795
0.795
0.789
0.765
0.758
0.762
0.764
0.7655
0.7825
0.782
0.7535
0.7795
0.813
0.822
0.816
0.806
0.81
0.799
0.794
0.8005
0.8065
0.7935
0.7805
0.807
0.838
0.823
0.791
0.7625
0.761
0.77
0.768
0.781
0.7875
0.786
0.7865
0.7885
0.7885
0.8035
0.816
0.8165
0.8165
0.826
0.8295
0.8315
0.8425
0.8355
0.839
0.832
0.8165
0.819
0.8185
0.8145
0.814
0.821
0.8155
0.8125
0.82
0.8245
0.8355
0.841
0.845
0.842
0.818
0.8175
0.822
0.813
0.8335
0.855
0.859
0.84
0.8175
0.8295
0.8415
0.8335
0.8155
0.812
0.8175
0.803
0.7905
0.786
0.7875
0.8045
0.8125
0.8
0.802
0.802
0.77
0.756
0.775
0.785
0.7725
0.766
0.7665
0.763
0.7835
0.7795
0.7575
0.75
0.7525
0.7525
0.752
0.7675
0.745
0.733
0.751
0.757
0.7455
0.7395
0.741
0.7275
0.743
0.758
0.7475
0.729
0.738
0.7575
0.735
0.7325
0.7465
0.75
0.756
0.7565
0.7635
0.75
0.7365
0.7545
0.763
0.7405
0.7185
0.709
0.711
0.7255
0.742
0.7495
0.732
0.7115
0.717
0.7145
0.725
0.7455
0.7345
0.732
0.7315
0.7375
0.743
0.7315
0.738
0.741
0.734
0.74
0.7305
0.717
0.727
0.7465
0.759
0.7405
0.7165
0.7115
0.725
0.725
0.7205
0.722
0.739
0.7795
0.7565
0.721
0.7125
0.695
0.694
0.715
0.7335
0.7385
0.748
0.741
0.7275
0.7265
0.701
0.6715
0.6545
0.6345
0.623
0.6205
0.6285
0.6395
0.651
0.6585
0.6695
0.6805
0.6875
0.721
0.745
0.75
0.793
0.8315
0.8645
0.928
0.9855
1.0285
1.0645
1.1225
1.184
1.2225
1.2625
1.3165
1.3445
1.3375
1.3345
1.2995
1.258
1.2425
1.208
1.158
1.135
1.1045
1.083
1.097
1.1075
1.1155
1.115
1.098
1.079
1.09
1.079
1.0525
1.071
1.078
1.0545
1.0325
0.9875
0.956
0.966
0.9465
0.943
0.968
0.9505
0.95
0.952
0.948
0.9485
0.901
0.872
0.8625
0.8315
0.804
0.7885
0.7865
0.7895
0.7925
0.802
0.789
0.764
0.742
0.7285
0.7245
0.7235
0.7345
0.7375
0.7295
0.7295
0.7365
0.7355
0.7295
0.728
0.718
0.7095
0.7175
0.706
0.7065
0.711
0.71
0.706
0.702
0.712
0.71
0.7165
0.7155
0.7025
0.699
0.719
0.732
0.713
0.6975
0.6975
0.694
0.6855
0.692
0.7035
0.7025
0.7025
0.6965
0.7115
0.7275
0.701
0.679
0.667
0.678
0.695
0.692
0.686
0.68
0.6785
0.6865
0.706
0.71
0.7095
0.722
0.7225
0.701
0.692
0.708
0.725
0.7305
0.724
0.72
0.7175
0.7145
0.709
0.703
0.709
0.7175
0.7025
0.684
0.6995
0.705
0.6975
0.698
0.693
0.6935
0.696
0.687
0.6885
0.7085
0.7065
0.688
0.687
0.695
0.6895
0.684
0.697
0.702
0.7015
0.6995
0.698
0.7075
0.7125
0.707
0.6895
0.6805
0.6815
0.6845
0.6845
0.6775
0.68
0.6895
0.6865
0.668
0.6615
0.661
0.6565
0.654
0.651
0.663
0.6695
0.665
0.6705
0.6575
0.656
0.666
0.6525
0.6695
0.68
0.6645
0.664
0.658
0.6405
0.6255
0.6255
0.632
0.633
0.632
0.632
0.6365
0.636
0.614
0.607
0.6095
0.613
0.628
0.598
0.5745
0.586
0.5835
0.5795
0.5825
0.5755
0.5615
0.5435
0.5335
0.529
0.541
0.5465
0.5175
0.5165
0.515
0.5025
0.5065
0.517
0.512
0.4935
0.4875
0.4895
0.497
0.4935
0.4865
0.484
0.4755
0.4655
0.45
0.4535
0.463
0.4465
0.4445
0.446
0.437
0.438
0.4395
0.439
0.4335
0.43
0.4125
0.407
0.4215
0.4105
0.4105
0.4165
0.407
0.406
0.412
0.4185
0.42
0.424
0.4275
0.419
0.4065
0.3975
0.4025
0.4075
0.4195
0.435
0.4255
0.4125
0.412
0.4115
0.3935
0.3985
0.424
0.4425
0.451
0.4445
0.4465
0.476
0.49
0.486
0.4945
0.4925
0.489
0.505
0.5135
0.5035
0.5105
0.528
0.539
0.548
0.5555
0.5655
0.569
0.565
0.564
0.5815
0.5805
0.5715
0.5835
0.6015
0.616
0.616
0.626
0.6445
0.6685
0.668
0.6605
0.6625
0.6545
0.662
0.6745
0.6775
0.6755
0.677
0.6765
0.681
0.6835
0.683
0.694
0.7
0.7035
0.698
0.6955
0.7175
0.7285
0.7195
0.7125
0.7295
0.735
0.727
0.732
0.723
0.7265
0.7235
0.711
0.72
0.727
0.7415
0.747
0.738
0.738
0.736
0.737
0.7425
0.7515
0.7605
0.7505
0.75
0.756
0.7525
0.7535
0.7535
0.7535
0.758
0.767
0.753
0.7455
0.7605
0.761
0.7655
0.762
0.7645
0.781
0.7795
0.787
0.782
0.768
0.764
0.762
0.771
0.7645
0.765
0.7795
0.783
0.7835
0.779
0.776
0.781
0.7815
0.781
0.7895
0.7965
0.7925
0.781
0.7715
0.7745
0.784
0.7915
0.785
0.7695
0.7615
0.757
0.762
0.764
0.7805
0.806
0.7895
0.7795
0.802
0.812
0.8075
0.7995
0.7975
0.7995
0.8
0.799
0.7955
0.8005
0.806
0.7875
0.776
0.783
0.787
0.78
0.786
0.8015
0.8085
0.819
0.819
0.818
0.8235
0.8235
0.8185
0.8255
0.839
0.8335
0.834
0.8445
0.851
0.852
0.8365
0.8415
0.862
0.852
0.83
0.837
0.861
0.849
0.8475
0.859
0.8575
0.8495
0.8255
0.826
0.825
0.834
0.8595
0.8565
0.852
0.853
0.8445
0.8355
0.841
0.8435
0.8375
0.8355
0.83
0.8185
0.8095
0.81
0.8135
0.8125
0.813
0.8125
0.8065
0.8015
0.7885
0.779
0.775
0.7655
0.761
0.7605
0.764
0.7645
0.7645
0.761
0.748
0.7475
0.7545
0.7535
0.76
0.751
0.735
0.7445
0.752
0.749
0.7465
0.746
0.746
0.7545
0.762
0.764
0.7635
0.755
0.751
0.7455
0.7405
0.735
0.7365
0.744
0.7475
0.7455
0.7435
0.7505
0.745
0.75
0.7565
0.74
0.732
0.7315
0.7345
0.739
0.733
0.733
0.7325
0.728
0.7245
0.722
0.7305
0.7325
0.751
0.7705
0.7295
0.711
0.7245
0.719
0.73
0.7355
0.74
0.736
0.7255
0.7295
0.7225
0.7145
0.712
0.717
0.719
0.712
0.7105
0.7165
0.721
0.711
0.7315
0.753
0.728
0.721
0.7365
0.7315
0.7045
0.6985
0.7025
0.707
0.6965
0.678
0.67
0.6325
0.614
0.6195
0.626
0.64
0.64
0.647
0.6635
0.6755
0.684
0.7045
0.733
0.757
0.7875
0.8165
0.8545
0.895
0.9445
1.014
1.0795
1.14
1.1895
1.246
1.3055
1.3565
1.3855
1.389
1.398
1.3835
1.357
1.3255
1.2775
1.238
1.2085
1.195
1.166
1.137
1.133
1.1425
1.1555
1.15
1.147
1.157
1.165
1.158
1.1385
1.1255
1.108
1.079
1.0615
1.039
1.014
1.013
1.0135
1.019
1.0205
1.0065
0.9845
0.9535
0.9415
0.921
0.89
0.871
0.865
0.874
0.863
0.8325
0.8135
0.81
0.7965
0.7785
0.762
0.742
0.7285
0.7255
0.732
0.738
0.7405
0.7385
0.7365
0.738
0.7365
0.731
0.7165
0.709
0.7125
0.7105
0.7195
0.7125
0.6965
0.7055
0.711
0.7125
0.712
0.7055
0.7025
0.711
0.718
0.709
0.7035
0.7055
0.6985
0.7005
0.7
0.689
0.685
0.6885
0.695
0.691
0.6925
0.6915
0.6935
0.7005
0.698
0.6975
0.6975
0.7075
0.713
0.7155
0.7105
0.708
0.7135
0.7095
0.715
0.719
0.721
0.7195
0.715
0.702
0.6915
0.698
0.6975
0.698
0.715
0.7285
0.7035
0.6875
0.6965
0.69
0.6865
0.6975
0.7095
0.711
0.697
0.6965
0.7025
0.689
0.6795
0.6815
0.674
0.6735
0.6805
0.6785
0.6905
0.697
0.6795
0.667
0.6725
0.6775
0.679
0.68
0.6765
0.6835
0.6935
0.7
0.698
0.6945
0.6945
0.6765
0.663
0.679
0.686
0.666
0.6625
0.672
0.6725
0.671
0.665
0.6615
0.6575
0.654
0.6615
0.6585
0.6515
0.653
0.6505
0.649
0.6525
0.668
0.6555
0.6295
0.626
0.6215
0.6175
0.6105
0.615
0.6185
0.6095
0.6005
0.595
0.606
0.6095
0.595
0.5965
0.597
0.5885
0.5795
0.569
0.5705
0.5685
0.5715
0.575
0.563
0.5535
0.5475
0.5445
0.5395
0.532
0.5335
0.54
0.5285
0.512
0.51
0.511
0.512
0.5075
0.5095
0.505
0.491
0.485
0.483
0.4755
0.458
0.4355
0.425
0.4335
0.4405
0.4405
0.435
0.429
0.4245
0.433
0.439
0.4195
0.4
0.397
0.4055
0.4065
0.406
0.4065
0.3945
0.376
0.366
0.3715
0.3695
0.365
0.3675
0.3735
0.389
0.397
0.4045
0.401
0.3825
0.382
0.381
0.375
0.3795
0.3825
0.383
0.386
0.393
0.4035
0.4075
0.4045
0.4125
0.4175
0.406
0.3985
0.407
0.4165
0.438
0.4425
0.434
0.44
0.439
0.4485
0.4595
0.4565
0.4625
0.478
0.4845
0.4865
0.4945
0.5
0.5075
0.5275
0.533
0.527
0.5355
0.5445
0.549
0.553
0.5625
0.5635
0.5575
0.5765
0.5875
0.5845
0.59
0.582
0.588
0.6055
0.604
0.609
0.6145
0.6265
0.6485
0.648
0.644
0.6505
0.6595
0.6615
0.661
0.6655
0.6675
0.67
0.671
0.681
0.688
0.6855
0.688
0.686
0.6845
0.674
0.671
0.6795
0.684
0.6945
0.693
0.6955
0.7125
0.7215
0.7105
0.696
0.697
0.702
0.7075
0.7195
0.7235
0.7185
0.72
0.7175
0.719
0.7215
0.725
0.728
0.722
0.72
0.723
0.721
0.7225
0.7265
0.7215
0.721
0.723
0.719
0.7165
0.717
0.7185
0.7325
0.751
0.754
0.7445
0.741
0.7385
0.7225
0.722
0.722
0.725
0.738
0.7575
0.775
0.7675
0.773
0.7645
0.742
0.739
0.748
0.7625
0.7635
0.7505
0.7365
0.7395
0.743
0.738
0.7415
0.7465
0.751
0.7495
0.767
0.781
0.764
0.779
0.78
0.762
0.764
0.764
0.762
0.7745
0.7815
0.769
0.771
0.7705
0.7635
0.76
0.7555
0.758
0.755
0.7425
0.7405
0.748
0.7535
0.7615
0.7685
0.7695
0.7765
0.7845
0.787
0.7785
0.7735
0.78
0.7865
0.792
0.8025
0.813
0.8125
0.811
0.8005
0.7885
0.7925
0.796
0.792
0.79
0.7885
0.7965
0.815
0.818
0.813
0.8
0.797
0.8005
0.787
0.7985
0.8055
0.7975
0.8065
0.799
0.7915
0.7875
0.784
0.789
0.7835
0.777
0.7765
0.7745
0.768
0.759
0.752
0.749
0.746
0.748
0.749
0.749
0.746
0.7395
0.7345
0.729
0.7225
0.7105
0.715
0.7175
0.7085
0.714
0.7155
0.715
0.7125
0.704
0.697
0.693
0.685
0.6845
0.6995
0.703
0.706
0.7
0.7015
0.716
0.7045
0.697
0.704
0.706
0.701
0.699
0.709
0.718
0.716
0.714
0.7115
0.701
0.6965
0.699
0.6965
0.6965
0.689
0.6825
0.6905
0.692
0.6845
0.6865
0.697
0.704
0.7015
0.706
0.7065
0.693
0.691
0.69
0.6925
0.6925
0.688
0.682
0.6695
0.6575
0.652
0.6665
0.682
0.6955
0.705
0.6965
0.688
0.6875
0.688
0.687
0.679
0.6795
0.6905
0.692
0.6835
0.679
0.6795
0.6745
0.674
0.678
0.675
0.682
0.6755
0.6615
0.666
0.655
0.631
0.6175
0.6215
0.62
0.5895
0.565
0.547
0.547
0.5695
0.5965
0.612
0.606
0.6315
0.663
0.691
0.713
0.728
0.7625
0.792
0.836
0.9
0.9645
1.027
1.0885
1.1625
1.2255
1.2695
1.32
1.367
1.3855
1.3855
1.3875
1.3665
1.324
1.28
1.24
1.2085
1.18
1.1595
1.152
1.143
1.1445
1.156
1.151
1.147
1.1515
1.1685
1.176
1.1625
1.1535
1.1545
1.1295
1.082
1.055
1.0245
0.998
0.979
0.964
0.963
0.956
0.958
0.9465
0.9255
0.917
0.8845
0.8535
0.842
0.8315
0.819
0.8095
0.7995
0.782
0.7795
0.7715
0.745
0.731
0.7185
0.707
0.706
0.698
0.6955
0.6955
0.6845
0.682
0.684
0.6885
0.688
0.676
0.6725
0.673
0.672
0.671
0.6695
0.671
0.669
0.6665
0.6655
0.6635
0.6665
0.666
0.6645
0.665
0.6785
0.685
0.6585
0.665
0.684
0.6615
0.6485
0.6515
0.651
0.651
0.6585
0.6605
0.6505
0.647
0.6435
0.64
0.6405
0.6485
0.6475
0.6505
0.655
0.651
0.6615
0.671
0.6735
0.67
0.673
0.675
0.668
0.6605
0.6585
0.6575
0.649
0.6525
0.6545
0.6485
0.658
0.674
0.6755
0.674
0.6745
0.6705
0.6655
0.6765
0.6875
0.6735
0.6535
0.6405
0.634
0.637
0.652
0.6515
0.6345
0.6385
0.6495
0.65
0.6525
0.653
0.6485
0.6475
0.65
0.647
0.6445
0.6385
0.638
0.6445
0.642
0.645
0.6465
0.6445
0.6465
0.6555
0.6605
0.6575
0.645
0.6365
0.6465
0.6455
0.64
0.6375
0.637
0.6415
0.6335
0.626
0.636
0.626
0.615
0.62
0.618
0.622
0.6265
0.623
0.6105
0.601
0.596
0.593
0.589
0.5875
0.5965
0.6
0.596
0.5885
0.5845
0.577
0.57
0.565
0.556
0.5605
0.5615
0.5645
0.574
0.552
0.537
0.532
0.524
0.522
0.522
0.524
0.5235
0.527
0.5085
0.497
0.4935
0.484
0.479
0.46
0.4465
0.4405
0.4465
0.453
0.4515
0.451
0.443
0.4365
0.43
0.4195
0.4035
0.396
0.401
0.404
0.4025
0.39
0.382
0.3835
0.3825
0.3815
0.3865
0.3865
0.372
0.368
0.368
0.375
0.3775
0.3515
0.3445
0.359
0.367
0.3525
0.342
0.356
0.355
0.338
0.332
0.336
0.338
0.338
0.3475
0.3525
0.3535
0.363
0.367
0.3655
0.36
0.362
0.3685
0.372
0.382
0.3895
0.39
0.3905
0.395
0.398
0.4075
0.4175
0.4225
0.4275
0.4245
0.4305
0.439
0.4435
0.4475
0.4515
0.463
0.467
0.4785
0.5
0.513
0.5225
0.5275
0.5285
0.5335
0.539
0.5425
0.54
0.5405
0.56
0.5675
0.57
0.5825
0.581
0.5795
0.583
0.5885
0.5935
0.598
0.604
0.6115
0.616
0.615
0.613
0.619
0.624
0.6195
0.623
0.638
0.6535
0.658
0.658
0.6605
0.662
0.6645
0.661
0.6505
0.661
0.6565
0.6565
0.6875
0.693
0.6785
0.659
0.665
0.6755
0.69
0.7
0.7005
0.722
0.726
0.7265
0.7195
0.6955
0.7015
0.7125
0.707
0.7075
0.701
0.7025
0.7085
0.692
0.702
0.7135
0.715
0.717
0.691
0.6825
0.694
0.707
0.707
0.7035
0.7
0.6975
0.697
0.692
0.7
0.7105
0.7255
0.725
0.7335
0.7465
0.729
0.732
0.739
0.722
0.7165
0.7045
0.709
0.7295
0.721
0.724
0.728
0.7235
0.726
0.7195
0.7105
0.716
0.727
0.7315
0.739
0.7405
0.733
0.7295
0.7335
0.7465
0.761
0.748
0.732
0.74
0.7405
0.7365
0.7405
0.748
0.76
0.7615
0.752
0.7485
0.75
0.742
0.7425
0.753
0.7605
0.769
0.766
0.77
0.7605
0.759
0.7675
0.747
0.7445
0.748
0.7625
0.782
0.789
0.789
0.789
0.7995
0.7965
0.795
0.81
0.8135
0.813
0.8085
0.7925
0.789
0.79
0.798
0.808
0.8075
0.806
0.808
0.8055
0.803
0.7935
0.788
0.7975
0.7985
0.7935
0.79
0.793
0.7915
0.7905
0.7975
0.7885
0.7735
0.773
0.7695
0.765
0.7735
0.7705
0.7535
0.7475
0.7455
0.7375
0.734
0.732
0.7295
0.7295
0.723
0.7135
0.712
0.716
0.6985
0.69
0.6995
0.6975
0.7085
0.7095
0.704
0.705
0.702
0.6925
0.6665
0.664
0.6745
0.6935
0.7025
0.6885
0.687
0.691
0.7065
0.7135
0.7095
0.6985
0.692
0.699
0.6855
0.6835
0.6825
0.676
0.6805
0.6935
0.7115
0.7075
0.704
0.698
0.7015
0.702
0.6875
0.685
0.682
0.6805
0.6775
0.681
0.6855
0.6855
0.6865
0.6825
0.6785
0.672
0.67
0.671
0.669
0.6655
0.6705
0.6805
0.688
0.69
0.684
0.6855
0.6835
0.6785
0.682
0.6865
0.6925
0.6845
0.667
0.662
0.672
0.691
0.6855
0.6775
0.679
0.6665
0.663
0.6705
0.6725
0.675
0.677
0.6695
0.655
0.651
0.6585
0.657
0.6705
0.664
0.612
0.595
0.589
0.5625
0.5535
0.5625
0.5785
0.5885
0.607
0.6245
0.632
0.6415
0.6505
0.6785
0.702
0.7185
0.753
0.8
0.8555
0.9125
0.9745
1.0385
1.121
1.202
1.236
1.274
1.322
1.359
1.38
1.3865
1.3895
1.3735
1.344
1.2985
1.256
1.2215
1.1805
1.1565
1.1425
1.1395
1.149
1.1605
1.174
1.169
1.1675
1.1635
1.1585
1.1545
1.123
1.1075
1.0935
1.066
1.0505
1.0435
1.029
1.0195
0.9995
0.9655
0.9455
0.923
0.9025
0.889
0.8895
0.882
0.856
0.8355
0.8135
0.794
0.7785
0.7685
0.7485
0.725
0.731
0.722
0.7
0.6935
0.6825
0.684
0.694
0.6845
0.674
0.6695
0.6635
0.6635
0.662
0.6635
0.6705
0.661
0.6485
0.643
0.643
0.6485
0.644
0.6455
0.644
0.642
0.644
0.641
0.6425
0.6455
0.647
0.637
0.624
0.623
0.629
0.6255
0.6215
0.637
0.649
0.6495
0.6525
0.654
0.6625
0.671
0.66
0.6575
0.6585
0.638
0.6375
0.648
0.6455
0.6415
0.637
0.638
0.636
0.6325
0.6225
0.623
0.64
0.647
0.65
0.6555
0.657
0.6515
0.65
0.654
0.6565
0.648
0.644
0.642
0.6265
0.6195
0.612
0.601
0.595
0.595
0.6265
0.657
0.667
0.664
0.652
0.6405
0.651
0.6555
0.6275
0.625
0.6295
0.626
0.631
0.63
0.6245
0.628
0.639
0.65
0.649
0.64
0.627
0.619
0.6235
0.6185
0.6135
0.6115
0.615
0.6205
0.615
0.6165
0.6145
0.616
0.6245
0.615
0.612
0.621
0.6245
0.6155
0.6155
0.6245
0.6185
0.6115
0.602
0.6025
0.607
0.5925
0.5735
0.5755
0.59
0.593
0.5755
0.5695
0.5965
0.599
0.587
0.574
0.5665
0.5715
0.5715
0.5835
0.58
0.562
0.5435
0.547
0.5665
0.5425
0.5095
0.505
0.5005
0.513
0.5285
0.524
0.4985
0.472
0.469
0.464
0.4635
0.466
0.476
0.4895
0.4925
0.4935
0.461
0.452
0.455
0.414
0.408
0.4085
0.397
0.414
0.4195
0.3965
0.39
0.396
0.384
0.382
0.3935
0.392
0.37
0.368
0.378
0.3765
0.3815
0.3815
0.371
0.3595
0.34
0.322
0.32
0.329
0.341
0.339
0.3335
0.3385
0.341
0.3365
0.3375
0.3355
0.335
0.3345
0.333
0.346
0.357
0.3745
0.369
0.3505
0.3525
0.363
0.377
0.379
0.389
0.39
0.3845
0.399
0.4005
0.3855
0.39
0.4105
0.4105
0.4045
0.4275
0.439
0.437
0.452
0.449
0.4495
0.466
0.473
0.4685
0.474
0.474
0.4615
0.477
0.482
0.476
0.494
0.522
0.5355
0.5495
0.566
0.569
0.5625
0.5465
0.555
0.569
0.579
0.572
0.567
0.579
0.589
0.5955
0.5845
0.6005
0.6175
0.616
0.6215
0.6305
0.6275
0.6225
0.626
0.625
0.6425
0.665
0.6515
0.648
0.6645
0.664
0.6745
0.6735
0.6755
0.681
0.658
0.672
0.6945
0.6795
0.6795
0.69
0.6875
0.682
0.691
0.7115
0.709
0.695
0.6805
0.676
0.692
0.71
0.7075
0.6975
0.7145
0.708
0.6985
0.719
0.722
0.717
0.705
0.7025
0.701
0.6915
0.699
0.7225
0.7225
0.7
0.703
0.713
0.721
0.725
0.712
0.7205
0.722
0.71
0.7185
0.7175
0.716
0.7055
0.702
0.715
0.728
0.74
0.7475
0.754
0.7625
0.7725
0.7625
0.7485
0.751
0.7635
0.7475
0.7395
0.7625
0.7535
0.7305
0.731
0.7385
0.749
0.76
0.7595
0.7535
0.7615
0.78
0.7725
0.756
0.737
0.734
0.7545
0.762
0.7735
0.777
0.7745
0.776
0.7775
0.769
0.7585
0.756
0.741
0.7345
0.7305
0.732
0.755
0.7605
0.736
0.7365
0.766
0.7825
0.777
0.7835
0.8
0.7975
0.8
0.8055
0.802
0.8145
0.8205
0.822
0.8275
0.83
0.8485
0.8315
0.8095
0.802
0.8015
0.8305
0.8335
0.8075
0.805
0.805
0.778
0.7815
0.7895
0.777
0.7795
0.789
0.7915
0.7825
0.78
0.7825
0.781
0.782
0.786
0.7835
0.78
0.7845
0.7825
0.7815
0.7775
0.762
0.757
0.7605
0.7615
0.752
0.747
0.759
0.7445
0.7235
0.723
0.747
0.7515
0.736
0.737
0.7255
0.718
0.714
0.707
0.6935
0.687
0.7055
0.711
0.692
0.6935
0.7025
0.6995
0.6955
0.695
0.6955
0.694
0.689
0.6835
0.6795
0.6865
0.6885
0.6625
0.6575
0.676
0.697
0.7095
0.7015
0.706
0.7185
0.7225
0.724
0.7105
0.6855
0.691
0.707
0.676
0.6715
0.695
0.689
0.685
0.6805
0.6775
0.6805
0.68
0.6855
0.6845
0.682
0.688
0.684
0.678
0.677
0.673
0.6795
0.676
0.6695
0.683
0.6795
0.6805
0.6995
0.714
0.711
0.7025
0.69
0.677
0.6765
0.689
0.697
0.6765
0.6865
0.6945
0.671
0.672
0.6835
0.6875
0.698
0.7015
0.696
0.6855
0.673
0.655
0.644
0.652
0.6465
0.6255
0.6015
0.597
0.599
0.612
0.619
0.5945
0.602
0.603
0.608
0.6465
0.6755
0.6965
0.718
0.7385
0.7595
0.802
0.8775
0.9635
1.027
1.085
1.151
1.2085
1.253
1.2875
1.326
1.3485
1.3445
1.3365
1.3225
1.297
1.265
1.2125
1.1595
1.13
1.1085
1.1005
1.098
1.0845
1.0805
1.0685
1.045
1.0505
1.072
1.076
1.0475
1.0255
1.02
1.0275
1.025
0.9845
0.966
0.9555
0.9525
0.944
0.9225
0.933
0.929
0.928
0.92
0.9095
0.8905
0.82
0.7795
0.781
0.779
0.756
0.75
0.7465
0.7255
0.721
0.724
0.724
0.7025
0.6895
0.688
0.682
0.6915
0.6895
0.6905
0.7025
0.685
0.677
0.6655
0.647
0.648
0.6525
0.645
0.6385
0.6415
0.633
0.6345
0.634
0.647
0.661
0.6675
0.671
0.662
0.661
0.658
0.6515
0.6445
0.6295
0.665
0.6875
0.635
0.621
0.6295
0.6345
0.6385
0.6475
0.6575
0.651
0.6615
0.6645
0.667
0.6615
0.6325
0.634
0.637
0.6465
0.6675
0.659
0.6525
0.653
0.6555
0.655
0.668
0.67
0.6575
0.6515
0.643
0.661
0.673
0.67
0.6725
0.6515
0.6385
0.647
0.641
0.636
0.6395
0.6415
0.6285
0.631
0.65
0.6555
0.659
0.646
0.656
0.677
0.642
0.62
0.635
0.625
0.626
0.648
0.6435
0.652
0.661
0.64
0.6295
0.6375
0.6525
0.655
0.632
0.611
0.6135
0.6005
0.6015
0.6325
0.636
0.628
0.6335
0.6365
0.625
0.622
0.62
0.6145
0.626
0.6225
0.601
0.586
0.601
0.606
0.569
0.57
0.5915
0.5885
0.5825
0.587
0.596
0.5955
0.583
0.5595
0.561
0.5845
0.5955
0.5765
0.565
0.5695
0.5605
0.544
0.5275
0.5295
0.536
0.5435
0.5405
0.5105
0.5105
0.531
0.5315
0.5395
0.5485
0.5315
0.5035
0.4745
0.487
0.4965
0.472
0.47
0.4615
0.472
0.475
0.453
0.4625
0.459
0.442
0.4235
0.433
0.455
0.4435
0.441
0.414
0.3865
0.39
0.389
0.38
0.377
0.383
0.38
0.3735
0.361
0.361
0.3725
0.3765
0.3825
0.376
0.3545
0.34
0.349
0.3525
0.326
0.32
0.329
0.318
0.3265
0.3285
0.314
0.3255
0.336
0.35
0.3585
0.343
0.326
0.326
0.3225
0.327
0.3445
0.3455
0.351
0.364
0.3775
0.376
0.359
0.36
0.3705
0.3615
0.3495
0.337
0.3455
0.3805
0.3935
0.4225
0.417
0.3925
0.425
0.446
0.4335
0.4125
0.424
0.433
0.436
0.4465
0.4345
0.441
0.4575
0.476
0.492
0.5045
0.497
0.481
0.49
0.489
0.504
0.5415
0.543
0.5185
0.519
0.5295
0.546
0.5645
0.581
0.5965
0.592
0.616
0.6155
0.592
0.586
0.565
0.5745
0.602
0.6245
0.6375
0.6285
0.629
0.642
0.639
0.645
0.6495
0.6305
0.6265
0.6375
0.658
0.67
0.656
0.638
0.635
0.6225
0.605
0.616
0.6355
0.662
0.671
0.663
0.679
0.681
0.6725
0.672
0.673
0.6665
0.6675
0.6725
0.664
0.6555
0.6555
0.6795
0.677
0.6735
0.684
0.667
0.649
0.66
0.6725
0.678
0.6955
0.673
0.659
0.661
0.664
0.683
0.705
0.705
0.6825
0.6985
0.695
0.689
0.671
0.6425
0.668
0.6875
0.6855
0.6815
0.6955
0.7085
0.7035
0.692
0.6865
0.684
0.685
0.694
0.705
0.693
0.6685
0.6745
0.6725
0.683
0.71
0.697
0.683
0.695
0.7035
0.6975
0.696
0.7005
0.701
0.687
0.7115
0.732
0.7005
0.6895
0.703
0.704
0.6905
0.6805
0.6825
0.701
0.6995
0.681
0.6825
0.693
0.695
0.6965
0.6985
0.713
0.727
0.7205
0.723
0.738
0.7335
0.716
0.7185
0.731
0.7225
0.715
0.737
0.7365
0.7265
0.7365
0.742
0.751
0.752
0.7315
0.7305
0.733
0.7265
0.7445
0.7505
0.7505
0.7405
0.7365
0.7495
0.7325
0.725
0.7375
0.7335
0.727
0.721
0.7195
0.72
0.7105
0.708
0.7105
0.702
0.696
0.703
0.6825
0.6575
0.66
0.671
0.6845
0.688
0.6765
0.6495
0.6545
0.663
0.6575
0.676
0.669
0.669
0.666
0.646
0.642
0.6435
0.642
0.6435
0.647
0.641
0.648
0.661
0.6555
0.6505
0.663
0.6525
0.672
0.68
0.645
0.645
0.63
0.621
0.6295
0.6555
0.6805
0.6785
0.6625
0.638
0.6385
0.6435
0.6585
0.6725
0.6425
0.609
0.5955
0.598
0.6115
0.625
0.639
0.6615
0.658
0.654
0.6635
0.6345
0.615
0.612
0.6135
0.6145
0.619
0.637
0.6325
0.619
0.627
0.645
0.6375
0.6375
0.627
0.6165
0.619
0.627
0.6515
0.633
0.625
0.6275
0.6205
0.623
0.627
0.633
0.624
0.6195
0.6285
0.633
0.617
0.604
0.606
0.616
0.6365
0.6255
0.6085
0.6155
0.6185
0.6085
0.602
0.591
0.568
0.5585
0.534
0.5285
0.5295
0.525
0.526
0.523
0.537
0.5325
0.545
0.569
0.593
0.634
0.6625
0.691
0.73
0.774
0.8295
0.8925
0.945
0.993
1.0375
1.0685
1.106
1.1575
1.201
1.2205
1.2385
1.238
1.2015
1.1785
1.1425
1.0935
1.07
1.0435
1.005
0.9785
0.959
0.9505
0.9675
0.9725
0.975
0.9705
0.963
0.97
0.9675
0.9695
0.9765
0.95
0.913
0.8825
0.853
0.841
0.8365
0.843
0.8625
0.856
0.8375
0.832
0.8095
0.7845
0.751
0.727
0.717
0.6985
0.6845
0.6745
0.6695
0.663
0.6665
0.673
0.6635
0.6365
0.622
0.6275
0.638
0.617
0.589
0.5895
0.598
0.6185
0.6195
0.618
0.6085
0.586
0.59
0.6005
0.608
0.616
0.6115
0.6065
0.6145
0.5965
0.594
0.597
0.5805
0.583
0.5855
0.5945
0.5915
0.586
0.593
0.6045
0.596
0.5805
0.5935
0.5895
0.593
0.5985
0.5865
0.5905
0.605
0.6065
0.59
0.579
0.5905
0.589
0.578
0.59
0.585
0.585
0.5925
0.5835
0.576
0.576
0.572
0.562
0.568
0.574
0.5855
0.61
0.6075
0.606
0.601
0.572
0.5695
0.579
0.594
0.5935
0.597
0.601
0.574
0.5735
0.5705
0.5815
0.5995
0.612
0.6135
0.576
0.5565
0.5635
0.589
0.603
0.593
0.573
0.574
0.586
0.572
0.5715
0.579
0.5785
0.5895
0.591
0.5825
0.5835
0.579
0.57
0.572
0.5715
0.573
0.5715
0.5695
0.5785
0.5645
0.5675
0.5775
0.5635
0.56
0.5635
0.576
0.573
0.5485
0.529
0.5275
0.5505
0.573
0.5715
0.5565
0.544
0.56
0.5665
0.5435
0.538
0.538
0.534
0.543
0.5355
0.519
0.524
0.523
0.515
0.5105
0.502
0.4905
0.4895
0.5
0.498
0.4905
0.485
0.4835
0.4855
0.48
0.4695
0.465
0.46
0.4635
0.4785
0.4685
0.4535
0.4375
0.428
0.44
0.421
0.4115
0.421
0.4105
0.4
0.405
0.4085
0.397
0.391
0.383
0.384
0.386
0.385
0.3935
0.376
0.3805
0.3965
0.3815
0.355
0.3315
0.324
0.3025
0.29
0.2835
0.2765
0.2845
0.284
0.2785
0.281
0.284
0.2805
0.2745
0.283
0.2945
0.289
0.286
0.2905
0.2995
0.3005
0.3005
0.3055
0.2965
0.2945
0.2865
0.2725
0.2825
0.2915
0.291
0.2815
0.283
0.294
0.2985
0.298
0.301
0.3095
0.325
0.3345
0.3145
0.3065
0.316
0.327
0.3365
0.343
0.349
0.3485
0.347
0.3555
0.3775
0.3905
0.3955
0.4
0.4075
0.4035
0.4035
0.412
0.421
0.4375
0.447
0.4535
0.469
0.494
0.4905
0.479
0.476
0.4625
0.4705
0.4905
0.501
0.499
0.488
0.4825
0.496
0.5125
0.5225
0.5295
0.535
0.5485
0.557
0.5545
0.542
0.549
0.558
0.55
0.5535
0.556
0.5635
0.5795
0.603
0.6025
0.592
0.5905
0.5695
0.5815
0.591
0.5715
0.5945
0.607
0.598
0.6055
0.5955
0.6065
0.621
0.6245
0.624
0.6225
0.623
0.61
0.611
0.619
0.626
0.627
0.623
0.629
0.6325
0.622
0.612
0.6055
0.6085
0.6225
0.6375
0.624
0.6015
0.6075
0.619
0.6125
0.596
0.593
0.6005
0.6175
0.623
0.617
0.614
0.612
0.614
0.6195
0.622
0.6235
0.635
0.638
0.668
0.685
0.6675
0.6695
0.6595
0.651
0.6495
0.6545
0.648
0.632
0.6295
0.6305
0.6425
0.6505
0.6345
0.646
0.655
0.639
0.6475
0.6425
0.6405
0.644
0.646
0.6615
0.6685
0.6675
0.662
0.6575
0.655
0.654
0.6545
0.6575
0.667
0.672
0.6645
0.661
0.6545
0.6435
0.6535
0.6605
0.6695
0.685
0.6665
0.649
0.649
0.6545
0.6765
0.688
0.6855
0.6885
0.6835
0.687
0.7055
0.7085
0.7095
0.712
0.703
0.692
0.7015
0.7285
0.724
0.71
0.703
0.6955
0.697
0.6925
0.6935
0.6935
0.688
0.6945
0.6865
0.676
0.6875
0.6895
0.669
0.651
0.664
0.6735
0.6635
0.652
0.653
0.6645
0.663
0.66
0.659
0.6565
0.646
0.65
0.665
0.6505
0.641
0.6325
0.6205
0.615
0.6115
0.608
0.599
0.6055
0.605
0.602
0.604
0.602
0.5995
0.6095
0.6215
0.6135
0.6085
0.5995
0.5855
0.5825
0.5885
0.6055
0.62
0.61
0.5995
0.5945
0.6015
0.61
0.589
0.568
0.5705
0.583
0.588
0.6
0.595
0.5855
0.589
0.586
0.589
0.6005
0.606
0.601
0.6015
0.5965
0.5845
0.582
0.591
0.578
0.5665
0.5735
0.5675
0.564
0.5685
0.582
0.595
0.5935
0.5845
0.573
0.571
0.5765
0.576
0.572
0.571
0.572
0.572
0.566
0.569
0.566
0.5575
0.5645
0.561
0.564
0.5805
0.5885
0.5915
0.584
0.5815
0.583
0.5785
0.5845
0.588
0.5915
0.584
0.5715
0.555
0.5295
0.526
0.5195
0.508
0.4985
0.488
0.478
0.4745
0.477
0.4695
0.462
0.459
0.4725
0.4935
0.515
0.5435
0.574
0.599
0.613
0.63
0.6605
0.7055
0.7635
0.8385
0.904
0.9435
1.0025
1.0695
1.123
1.1705
1.2105
1.2375
1.24
1.2335
1.2215
1.1985
1.166
1.1245
1.0815
1.047
1.0225
0.992
0.9685
0.9635
0.9785
0.9955
0.9885
0.997
1.0095
1.0045
0.9985
0.9845
0.989
0.9835
0.939
0.904
0.8825
0.8555
0.8415
0.8335
0.8305
0.832
0.825
0.8165
0.8095
0.8
0.769
0.736
0.739
0.7335
0.6875
0.6705
0.6725
0.657
0.6515
0.632
0.609
0.6035
0.5975
0.5905
0.585
0.577
0.578
0.576
0.574
0.574
0.5655
0.569
0.571
0.5745
0.5635
0.545
0.562
0.574
0.558
0.5515
0.556
0.5495
0.545
0.5445
0.548
0.5445
0.5335
0.5405
0.554
0.5555
0.5545
0.5495
0.541
0.5425
0.548
0.548
0.5555
0.56
0.5515
0.544
0.5445
0.5505
0.56
0.563
0.546
0.5375
0.5345
0.5435
0.5435
0.517
0.5195
0.524
0.5295
0.5425
0.5375
0.5335
0.532
0.523
0.5235
0.5265
0.5265
0.533
0.5345
0.539
0.5435
0.5435
0.5535
0.566
0.5655
0.5585
0.5495
0.546
0.5435
0.538
0.533
0.5295
0.54
0.5495
0.554
0.5595
0.554
0.5445
0.541
0.5525
0.5545
0.5475
0.543
0.5335
0.544
0.5545
0.5485
0.5485
0.55
0.5405
0.5305
0.5355
0.5415
0.542
0.5395
0.5335
0.532
0.5225
0.53
0.5485
0.5375
0.5295
0.534
0.531
0.5215
0.5115
0.505
0.5095
0.512
0.5185
0.525
0.518
0.5085
0.494
0.493
0.5005
0.501
0.505
0.506
0.4975
0.4955
0.497
0.49
0.485
0.48
0.4815
0.474
0.465
0.4625
0.458
0.454
0.456
0.4565
0.4575
0.4605
0.4515
0.448
0.441
0.429
0.41
0.4015
0.402
0.385
0.379
0.3825
0.384
0.387
0.3805
0.3745
0.37
0.3595
0.3455
0.3295
0.3285
0.336
0.324
0.3135
0.316
0.3165
0.3025
0.302
0.3155
0.306
0.3005
0.291
0.286
0.2835
0.2795
0.2785
0.267
0.2605
0.2635
0.269
0.267
0.2645
0.2565
0.249
0.251
0.2415
0.227
0.235
0.2365
0.222
0.219
0.2205
0.2265
0.2285
0.224
0.2245
0.229
0.2265
0.2255
0.2425
0.2555
0.2595
0.2635
0.262
0.27
0.2745
0.2645
0.26
0.2535
0.2595
0.273
0.2795
0.2855
0.286
0.292
0.3
0.309
0.317
0.3095
0.31
0.322
0.3295
0.3475
0.355
0.3565
0.373
0.384
0.3755
0.3595
0.362
0.37
0.3845
0.3905
0.395
0.4095
0.413
0.4165
0.412
0.421
0.4395
0.446
0.4435
0.438
0.4455
0.4545
0.4715
0.48
0.4795
0.4815
0.4785
0.48
0.492
0.509
0.512
0.5205
0.5165
0.504
0.5215
0.5665
0.579
0.5615
0.571
0.552
0.543
0.557
0.551
0.55
0.5485
0.536
0.538
0.549
0.555
0.5785
0.581
0.571
0.5775
0.572
0.5755
0.5785
0.5685
0.567
0.571
0.5795
0.5845
0.59
0.5975
0.5995
0.603
0.6005
0.6025
0.5915
0.591
0.6055
0.609
0.5985
0.576
0.58
0.583
0.5895
0.596
0.5875
0.586
0.5845
0.586
0.5855
0.5905
0.5985
0.6165
0.621
0.613
0.6225
0.6265
0.6215
0.6185
0.619
0.6075
0.5965
0.5925
0.6
0.616
0.614
0.6145
0.621
0.6215
0.6235
0.6235
0.6215
0.618
0.607
0.603
0.613
0.625
0.6285
0.6245
0.6195
0.62
0.6285
0.631
0.629
0.6345
0.6305
0.622
0.6235
0.623
0.6225
0.628
0.634
0.636
0.637
0.6385
0.6335
0.6275
0.644
0.6625
0.647
0.6455
0.654
0.6525
0.6765
0.678
0.6485
0.6505
0.663
0.6735
0.6895
0.695
0.6855
0.6725
0.669
0.6745
0.6905
0.6915
0.6885
0.693
0.6805
0.6775
0.6995
0.7015
0.6835
0.6835
0.6835
0.687
0.695
0.705
0.7115
0.6965
0.7015
0.709
0.688
0.684
0.6795
0.6595
0.668
0.681
0.669
0.661
0.663
0.661
0.644
0.638
0.6365
0.638
0.646
0.6355
0.628
0.629
0.6255
0.6195
0.617
0.615
0.605
0.5975
0.6015
0.612
0.62
0.6165
0.6065
0.5935
0.5805
0.579
0.579
0.579
0.583
0.584
0.5885
0.5955
0.6095
0.6115
0.5925
0.5835
0.581
0.5795
0.5795
0.584
0.589
0.587
0.5845
0.5745
0.577
0.5835
0.582
0.583
0.571
0.569
0.5725
0.564
0.5665
0.5705
0.5805
0.5885
0.583
0.585
0.59
0.581
0.5655
0.5785
0.597
0.5945
0.588
0.579
0.571
0.571
0.589
0.6005
0.584
0.5805
0.574
0.5645
0.5775
0.5775
0.5755
0.582
0.583
0.5865
0.582
0.5795
0.5875
0.587
0.5735
0.5675
0.569
0.5655
0.5655
0.563
0.5595
0.5555
0.556
0.5595
0.567
0.577
0.571
0.557
0.541
0.5205
0.5135
0.5055
0.483
0.4715
0.4625
0.465
0.478
0.496
0.518
0.5205
0.527
0.551
0.586
0.597
0.621
0.6655
0.685
0.733
0.7935
0.86
0.924
0.9755
1.053
1.1045
1.1535
1.212
1.2415
1.259
1.267
1.2645
1.2395
1.214
1.1925
1.1665
1.1355
1.1035
1.0795
1.0465
1.0305
1.0395
1.057
1.0745
1.064
1.0585
1.0765
1.085
1.073
1.0535
1.0455
1.031
0.989
0.9525
0.929
0.9065
0.8935
0.8855
0.868
0.8525
0.8425
0.831
0.8205
0.8235
0.818
0.798
0.7845
0.763
0.7355
0.708
0.6835
0.664
0.6465
0.6425
0.636
0.626
0.6195
0.6085
0.6115
0.61
0.6055
0.597
0.5925
0.6035
0.5935
0.5855
0.581
0.5775
0.5765
0.573
0.5665
0.565
0.57
0.5645
0.5685
0.5725
0.5745
0.5775
0.578
0.577
0.564
0.559
0.5595
0.5655
0.5675
0.5765
0.584
0.561
0.549
0.551
0.558
0.5645
0.5575
0.555
0.5545
0.575
0.5895
0.573
0.5585
0.5475
0.5575
0.558
0.5375
0.533
0.5335
0.542
0.553
0.569
0.5735
0.555
0.553
0.565
0.5705
0.566
0.569
0.5855
0.573
0.5365
0.5355
0.542
0.5385
0.534
0.528
0.525
0.525
0.5375
0.5455
0.5435
0.5375
0.54
0.5465
0.5425
0.5465
0.5545
0.552
0.547
0.544
0.542
0.5395
0.5415
0.535
0.5365
0.551
0.553
0.5515
0.538
0.535
0.539
0.539
0.5445
0.5455
0.5475
0.551
0.5445
0.532
0.53
0.5325
0.5295
0.5335
0.5365
0.533
0.532
0.528
0.524
0.5155
0.5075
0.503
0.5025
0.507
0.5055
0.501
0.5
0.498
0.493
0.491
0.491
0.4905
0.481
0.4695
0.468
0.4675
0.4705
0.4725
0.4665
0.4595
0.4535
0.4505
0.4535
0.453
0.4485
0.447
0.441
0.434
0.4335
0.4345
0.4315
0.4205
0.413
0.406
0.3975
0.3935
0.4
0.403
0.3945
0.398
0.382
0.354
0.3425
0.333
0.347
0.3545
0.3365
0.3325
0.325
0.313
0.3065
0.3035
0.304
0.303
0.3
0.295
0.3015
0.304
0.2865
0.2715
0.265
0.2625
0.2585
0.252
0.25
0.252
0.247
0.24
0.234
0.231
0.234
0.2305
0.219
0.2135
0.2205
0.2265
0.236
0.2375
0.226
0.231
0.2375
0.243
0.243
0.236
0.2345
0.2305
0.233
0.2405
0.251
0.2565
0.255
0.2555
0.248
0.245
0.2635
0.269
0.2635
0.2695
0.2785
0.2835
0.289
0.3045
0.3075
0.3065
0.3035
0.3045
0.3195
0.3235
0.327
0.3325
0.339
0.3485
0.356
0.359
0.3475
0.344
0.3575
0.3715
0.39
0.412
0.433
0.4275
0.412
0.416
0.4225
0.4385
0.4535
0.4625
0.4645
0.461
0.4675
0.4615
0.466
0.4765
0.4755
0.4775
0.476
0.4785
0.4825
0.498
0.513
0.5105
0.51
0.516
0.518
0.512
0.5135
0.5195
0.5165
0.524
0.5505
0.552
0.545
0.5515
0.5435
0.538
0.5355
0.534
0.5455
0.5515
0.545
0.5405
0.5405
0.549
0.559
0.5655
0.5715
0.57
0.5625
0.5615
0.5675
0.5615
0.5575
0.5645
0.5735
0.5795
0.585
0.587
0.5865
0.5935
0.5855
0.581
0.578
0.572
0.5765
0.5765
0.578
0.5805
0.5805
0.5815
0.596
0.604
0.5985
0.5945
0.595
0.6005
0.5985
0.593
0.599
0.6045
0.602
0.6085
0.6155
0.617
0.619
0.613
0.598
0.593
0.5995
0.61
0.623
0.63
0.6345
0.636
0.6335
0.625
0.608
0.6045
0.609
0.6115
0.623
0.631
0.6265
0.6215
0.629
0.6285
0.6295
0.6315
0.625
0.627
0.6315
0.642
0.6475
0.6375
0.6355
0.635
0.63
0.63
0.626
0.6165
0.619
0.623
0.6225
0.643
0.671
0.701
0.6965
0.675
0.6825
0.683
0.6765
0.676
0.7015
0.714
0.696
0.683
0.6885
0.6965
0.6795
0.683
0.6975
0.6845
0.6745
0.682
0.692
0.692
0.6895
0.686
0.68
0.6725
0.6685
0.6765
0.6705
0.6635
0.6665
0.658
0.6575
0.6555
0.6435
0.638
0.6395
0.6415
0.642
0.6435
0.634
0.623
0.6155
0.6
0.589
0.5885
0.5895
0.581
0.569
0.569
0.5715
0.5745
0.5805
0.5775
0.57
0.57
0.57
0.565
0.5615
0.5605
0.56
0.5585
0.5515
0.5505
0.5525
0.543
0.5425
0.5485
0.547
0.547
0.5555
0.568
0.577
0.5715
0.554
0.551
0.548
0.5465
0.5545
0.555
0.547
0.5295
0.5305
0.546
0.548
0.5385
0.528
0.5315
0.537
0.535
0.538
0.5415
0.54
0.5385
0.539
0.5455
0.543
0.535
0.536
0.539
0.5395
0.535
0.528
0.5155
0.5125
0.5175
0.5235
0.536
0.549
0.548
0.5395
0.5355
0.5445
0.5305
0.5115
0.5245
0.531
0.531
0.5215
0.526
0.5415
0.5365
0.533
0.52
0.5145
0.5335
0.5585
0.5415
0.5095
0.518
0.5095
0.493
0.484
0.4775
0.4685
0.4495
0.4455
0.4415
0.4375
0.4335
0.4325
0.441
0.4575
0.47
0.479
0.494
0.505
0.522
0.5335
0.5545
0.6055
0.6685
0.719
0.757
0.8205
0.892
0.9515
1.017
1.0735
1.128
1.1895
1.2245
1.242
1.2595
1.2445
1.2105
1.1855
1.1515
1.1085
1.0615
1.029
1.013
0.9935
0.993
0.999
1.0055
1.0075
0.997
1.0135
1.0435
1.0425
1.005
0.979
0.9865
0.98
0.9365
0.905
0.885
0.855
0.835
0.816
0.8175
0.8145
0.782
0.761
0.7605
0.751
0.726
0.709
0.697
0.675
0.6475
0.627
0.6125
0.5995
0.5905
0.5825
0.5705
0.5645
0.5555
0.5435
0.5355
0.5285
0.5335
0.537
0.5305
0.5225
0.515
0.5105
0.508
0.5115
0.5045
0.491
0.4915
0.4975
0.507
0.499
0.497
0.5065
0.5015
0.4875
0.479
0.484
0.488
0.489
0.4805
0.479
0.4525
0.434
0.4555
0.475
0.487
0.474
0.4775
0.491
0.4975
0.491
0.474
0.482
0.491
0.493
0.488
0.475
0.4695
0.4735
0.4815
0.484
0.48
0.4765
0.485
0.4855
0.4845
0.484
0.4675
0.4585
0.4575
0.4675
0.4735
0.4685
0.4625
0.46
0.465
0.4645
0.4645
0.4715
0.4715
0.4685
0.469
0.4635
0.4535
0.443
0.444
0.4555
0.4635
0.4655
0.467
0.4715
0.471
0.4655
0.4625
0.467
0.4675
0.459
0.4605
0.462
0.4575
0.4575
0.459
0.4565
0.4435
0.431
0.428
0.4285
0.4285
0.4285
0.4385
0.4485
0.4545
0.4505
0.446
0.45
0.445
0.449
0.4615
0.445
0.421
0.4095
0.388
0.3915
0.4105
0.4035
0.402
0.4045
0.41
0.406
0.3875
0.381
0.384
0.3945
0.393
0.3865
0.3875
0.3755
0.3615
0.363
0.3735
0.379
0.372
0.36
0.3675
0.36
0.337
0.3295
0.324
0.336
0.3275
0.332
0.3425
0.324
0.312
0.2875
0.28
0.2835
0.286
0.2735
0.2415
0.2415
0.257
0.254
0.2525
0.2445
0.232
0.2275
0.2175
0.214
0.2155
0.217
0.2115
0.201
0.1895
0.197
0.202
0.1925
0.1805
0.1585
0.1645
0.1755
0.179
0.1685
0.1615
0.16
0.141
0.1355
0.125
0.121
0.1115
0.1
0.102
0.096
0.103
0.1035
0.1035
0.109
0.1035
0.0975
0.1005
0.107
0.1075
0.1055
0.1115
0.1195
0.114
0.119
0.127
0.1195
0.124
0.1535
0.159
0.141
0.1565
0.1605
0.1505
0.15
0.1485
0.175
0.1725
0.148
0.161
0.1825
0.1865
0.18
0.187
0.198
0.2115
0.222
0.218
0.229
0.2295
0.221
0.235
0.245
0.253
0.262
0.251
0.2375
0.2485
0.2545
0.253
0.2695
0.2945
0.2915
0.3005
0.3255
0.3185
0.3325
0.341
0.3375
0.3445
0.3455
0.3465
0.338
0.334
0.3335
0.3445
0.3535
0.3595
0.3795
0.3865
0.3835
0.3875
0.4025
0.405
0.404
0.401
0.3985
0.4015
0.397
0.3945
0.3865
0.417
0.4445
0.448
0.442
0.415
0.399
0.3965
0.411
0.4255
0.4355
0.4355
0.436
0.437
0.437
0.4195
0.3945
0.4065
0.4145
0.42
0.428
0.427
0.4295
0.431
0.427
0.435
0.4675
0.489
0.4595
0.4245
0.434
0.439
0.4285
0.424
0.4255
0.446
0.445
0.444
0.469
0.475
0.4655
0.4645
0.465
0.469
0.4745
0.483
0.4825
0.466
0.4655
0.4595
0.449
0.4485
0.449
0.4485
0.4425
0.446
0.45
0.4505
0.4535
0.4595
0.473
0.47
0.4675
0.456
0.4445
0.461
0.476
0.485
0.48
0.4685
0.4655
0.469
0.4755
0.494
0.494
0.478
0.4615
0.4595
0.489
0.5045
0.51
0.496
0.478
0.479
0.4665
0.4565
0.456
0.4655
0.4725
0.463
0.4655
0.48
0.4845
0.481
0.4835
0.4915
0.518
0.525
0.5085
0.5155
0.5235
0.5195
0.5155
0.5215
0.537
0.539
0.5215
0.4985
0.5045
0.52
0.53
0.549
0.552
0.5525
0.553
0.542
0.5315
0.5125
0.492
0.484
0.49
0.4795
0.473
0.4915
0.477
0.489
0.5255
0.5135
0.498
0.5055
0.521
0.505
0.485
0.485
0.4865
0.489
0.476
0.4635
0.4645
0.475
0.4875
0.4645
0.439
0.435
0.435
0.444
0.431
0.418
0.424
0.4235
0.4085
0.4005
0.3985
0.413
0.426
0.406
0.398
0.4
0.4135
0.4235
0.4165
0.4215
0.411
0.396
0.3895
0.391
0.3965
0.391
0.3985
0.4145
0.4365
0.4175
0.387
0.397
0.395
0.4075
0.408
0.4
0.4125
0.4155
0.405
0.407
0.4155
0.3875
0.3755
0.391
0.385
0.375
0.373
0.3775
0.375
0.372
0.377
0.3805
0.3715
0.3595
0.362
0.361
0.3825
0.3895
0.368
0.372
0.379
0.377
0.3655
0.3575
0.367
0.3645
0.353
0.365
0.364
0.3595
0.3695
0.3695
0.387
0.3825
0.3605
0.3665
0.365
0.3625
0.3535
0.3475
0.357
0.3605
0.3655
0.3695
0.378
0.3725
0.3545
0.3565
0.3455
0.3275
0.3275
0.32
0.3095
0.2955
0.2825
0.2745
0.251
0.2455
0.262
0.2715
0.2775
0.294
0.3155
0.339
0.364
0.384
0.4205
0.4385
0.475
0.5335
0.572
0.6535
0.7175
0.7645
0.8235
0.867
0.9315
0.977
1.0225
1.064
1.062
1.053
1.032
0.998
0.956
0.9095
0.882
0.8575
0.812
0.778
0.762
0.748
0.7565
0.782
0.7685
0.75
0.7645
0.755
0.742
0.734
0.7385
0.7345
0.6955
0.67
0.6495
0.6305
0.6155
0.616
0.608
0.603
0.623
0.609
0.5575
0.536
0.54
0.5365
0.5195
0.4955
0.482
0.454
0.4375
0.4215
0.394
0.388
0.371
0.363
0.372
0.374
0.3715
0.374
0.368
0.35
0.3525
0.3505
0.346
0.346
0.335
0.331
0.3345
0.345
0.3445
0.3385
0.3395
0.3425
0.3405
0.33
0.3235
0.3185
0.326
0.334
0.324
0.315
0.31
0.321
0.337
0.331
0.325
0.316
0.313
0.2995
0.3125
0.3505
0.329
0.3105
0.3105
0.3115
0.32
0.3195
0.305
0.2945
0.2975
0.297
0.2945
0.305
0.331
0.3445
0.3335
0.308
0.2985
0.306
0.3155
0.3205
0.324
0.3445
0.3415
0.3185
0.301
0.283
0.279
0.2865
0.3005
0.2875
0.2845
0.3015
0.307
0.3055
0.2905
0.2875
0.299
0.309
0.315
0.3075
0.3
0.301
0.2935
0.2895
0.272
0.271
0.318
0.3195
0.289
0.2765
0.278
0.283
0.2735
0.272
0.2735
0.2805
0.2885
0.29
0.2875
0.2955
0.2855
0.2565
0.2655
0.2745
0.267
0.26
0.26
0.2635
0.272
0.2665
0.26
0.255
0.242
0.2485
0.2535
0.25
0.234
0.2235
0.2255
0.23
0.25
0.2545
0.2395
0.2315
0.2375
0.258
0.2645
0.243
0.2215
0.208
0.1995
0.193
0.197
0.204
0.191
0.1765
0.176
0.182
0.1835
0.1815
0.18
0.203
0.204
0.161
0.1285
0.129
0.147
0.128
0.1165
0.1115
0.089
0.0935
0.0925
0.0935
0.0985
0.1015
0.094
0.0705
0.066
0.0625
0.064
0.063
0.0525
0.057
0.0575
0.047
0.05
0.038
0.0185
0.024
0.0305
0.023
0.0095
0.0125
0.009
-0.0045
-0.0025
-0.011
-0.033
-0.0345
-0.0385
-0.0395
-0.032
-0.0225
-0.029
-0.033
-0.0145
-0.018
-0.0315
-0.029
-0.0265
-0.032
-0.0255
-0.0225
-0.03
-0.018
-0.0115
-0.025
-0.026
-0.022
-0.0275
-0.045
-0.0355
-0.012
-0.017
-0.021
-0.0045
-0.009
-0.0195
0.006
0.003
-0.0075
0.006
0.0055
0.0065
0.0185
0.0225
0.022
0.037
0.058
0.062
0.061
0.075
0.0855
0.092
0.105
0.093
0.093
0.1165
0.0975
0.085
0.1005
0.1125
0.129
0.149
0.162
0.1625
0.174
0.163
0.1515
0.176
0.2
0.224
0.207
0.1945
0.204
0.199
0.22
0.225
0.2275
0.2295
0.2185
0.2185
0.215
0.2355
0.241
0.2425
0.2475
0.2195
0.241
0.2615
0.2495
0.2655
0.2575
0.2495
0.264
0.2645
0.269
0.2775
0.287
0.294
0.2905
0.2995
0.2985
0.2865
0.292
0.2995
0.3035
0.3045
0.301
0.2905
0.288
0.2905
0.2825
0.2915
0.302
0.2945
0.2815
0.2755
0.2935
0.319
0.3165
0.3065
0.2965
0.293
0.2925
0.301
0.318
0.294
0.2955
0.3135
0.296
0.2845
0.2885
0.297
0.2865
0.2895
0.2995
0.2915
0.307
0.3245
0.3165
0.318
0.3285
0.3235
0.319
0.329
0.327
0.312
0.312
0.299
0.305
0.3055
0.2945
0.333
0.337
0.33
0.358
0.3505
0.342
0.344
0.3305
0.318
0.305
0.3045
0.324
0.3455
0.3495
0.3445
0.3525
0.364
0.3425
0.323
0.3365
0.3305
0.3135
0.321
0.336
0.339
0.318
0.2905
0.286
0.3095
0.32
0.3245
0.354
0.3605
0.3415
0.3485
0.377
0.371
0.378
0.3865
0.3665
0.3805
0.38
0.367
0.366
0.3885
0.4025
0.382
0.386
0.394
0.3885
0.3965
0.405
0.395
0.371
0.352
0.3485
0.3445
0.356
0.3815
0.367
0.3705
0.3695
0.347
0.3765
0.3885
0.392
0.375
0.348
0.3565
0.353
0.3445
0.3355
0.3255
0.323
0.332
0.341
0.3405
0.3325
0.3345
0.339
0.3445
0.34
0.3065
0.291
0.302
0.302
0.2895
0.2945
0.297
0.2895
0.2985
0.31
0.3035
0.281
0.267
0.254
0.2655
0.281
0.268
0.2675
0.293
0.304
0.283
0.2685
0.2615
0.2635
0.269
0.263
0.2675
0.2725
0.2815
0.296
0.2865
0.2765
0.27
0.2585
0.261
0.2715
0.2915
0.2645
0.2325
0.254
0.255
0.2385
0.2445
0.262
0.2675
0.275
0.2755
0.2505
0.247
0.258
0.251
0.2505
0.267
0.288
0.291
0.281
0.274
0.2725
0.2795
0.2885
0.279
0.254
0.2435
0.2385
0.2395
0.2605
0.258
0.238
0.25
0.243
0.224
0.246
0.2755
0.286
0.2945
0.2935
0.2595
0.255
0.2495
0.235
0.253
0.254
0.2335
0.2145
0.223
0.2245
0.227
0.2345
0.2105
0.1825
0.1495
0.131
0.1215
0.1285
0.1555
0.1775
0.195
0.2
0.2205
0.2245
0.2485
0.302
0.3125
0.3385
0.3785
0.407
0.474
0.541
0.578
0.6385
0.7095
0.772
0.8235
0.841
0.853
0.859
0.8465
0.829
0.805
0.7765
0.725
0.663
0.6545
0.6475
0.5945
0.5755
0.578
0.594
0.5935
0.5755
0.587
0.5705
0.575
0.5835
0.5695
0.587
0.592
0.571
0.5405
0.5125
0.505
0.505
0.4975
0.4755
0.4785
0.4645
0.4235
0.422
0.4175
0.4
0.382
0.3575
0.333
0.328
0.3235
0.316
0.3045
0.302
0.317
0.289
0.266
0.2715
0.2745
0.279
0.285
0.279
0.2535
0.238
0.2395
0.23
0.2115
0.2295
0.248
0.239
0.238
0.2435
0.247
0.248
0.2485
0.244
0.251
0.252
0.233
0.226
0.2115
0.21
0.2165
0.232
0.2405
0.22
0.211
0.2175
0.233
0.2475
0.2295
0.2115
0.225
0.2185
0.2075
0.2095
0.2105
0.2215
0.213
0.1975
0.2245
0.246
0.251
0.2495
0.2335
0.226
0.221
0.212
0.201
0.199
0.212
0.21
0.2015
0.2145
0.2205
0.2175
0.222
0.2235
0.2265
0.2285
0.2155
0.2205
0.24
0.2535
0.253
0.256
0.2705
0.2475
0.238
0.2435
0.2165
0.202
0.2105
0.2055
0.202
0.222
0.2305
0.224
0.2235
0.232
0.2455
0.246
0.229
0.222
0.228
0.213
0.1935
0.2015
0.217
0.2195
0.2015
0.1965
0.195
0.1805
0.1685
0.156
0.181
0.1955
0.192
0.1975
0.192
0.1975
0.195
0.185
0.183
0.182
0.187
0.1965
0.1985
0.174
0.155
0.155
0.1525
0.144
0.1485
0.161
0.1605
0.1685
0.1775
0.1765
0.173
0.163
0.157
0.148
0.127
0.125
0.1395
0.1295
0.1135
0.106
0.095
0.0935
0.092
0.1045
0.118
0.103
0.0985
0.0975
0.078
0.069
0.08
0.0835
0.0815
0.086
0.0785
0.0525
0.0405
0.0345
0.0245
0.036
0.0285
0.013
0.0175
0.0135
0.011
0.018
0.0135
0.0035
0.0145
0.011
-0.005
0.005
-0.0115
-0.0295
-0.0355
-0.0565
-0.0525
-0.0475
-0.049
-0.0415
-0.0455
-0.053
-0.0555
-0.0565
-0.0455
-0.0525
-0.061
-0.08
-0.1025
-0.0995
-0.101
-0.086
-0.0725
-0.081
-0.093
-0.0915
-0.094
-0.089
-0.083
-0.086
-0.088
-0.086
-0.0745
-0.0695
-0.0455
-0.0365
-0.045
-0.0495
-0.04
-0.0365
-0.055
-0.0475
-0.0415
-0.03
-0.0225
-0.0395
-0.0305
-0.0075
-0.0055
-0.0035
0.0015
0.007
0.011
0.0125
0.0155
0.026
0.0385
0.033
0.031
0.0345
0.036
0.0295
0.0355
0.065
0.08
0.09
0.085
0.079
0.086
0.078
0.0815
0.107
0.1085
0.0965
0.1125
0.134
0.152
0.162
0.155
0.151
0.1615
0.1565
0.164
0.1915
0.1805
0.185
0.1865
0.1695
0.175
0.183
0.188
0.194
0.2075
0.2
0.186
0.187
0.1825
0.185
0.1995
0.209
0.23
0.234
0.2185
0.2125
0.2125
0.2165
0.22
0.2325
0.2245
0.22
0.225
0.223
0.2305
0.2285
0.2275
0.213
0.2025
0.223
0.235
0.243
0.244
0.241
0.24
0.237
0.232
0.237
0.2485
0.243
0.235
0.2185
0.234
0.2545
0.2295
0.228
0.235
0.239
0.24
0.2365
0.25
0.255
0.2445
0.241
0.2685
0.289
0.2615
0.222
0.2315
0.25
0.252
0.253
0.2385
0.2325
0.2355
0.24
0.237
0.229
0.234
0.2445
0.253
0.253
0.2385
0.236
0.242
0.248
0.255
0.2525
0.262
0.268
0.267
0.284
0.289
0.2765
0.259
0.246
0.2475
0.253
0.273
0.2685
0.2535
0.2635
0.2655
0.2655
0.2665
0.268
0.2735
0.2795
0.282
0.287
0.2915
0.285
0.286
0.294
0.293
0.2915
0.2935
0.292
0.2935
0.298
0.3035
0.3125
0.3175
0.314
0.3115
0.312
0.3075
0.31
0.319
0.316
0.3235
0.32
0.3075
0.315
0.3065
0.2975
0.3045
0.298
0.286
0.284
0.2715
0.256
0.27
0.296
0.2975
0.29
0.2835
0.271
0.271
0.2785
0.269
0.25
0.235
0.23
0.23
0.225
0.2205
0.2365
0.24
0.212
0.2195
0.243
0.2415
0.232
0.2205
0.216
0.2125
0.2105
0.2105
0.2015
0.19
0.1865
0.1855
0.1925
0.2035
0.2015
0.2105
0.21
0.2015
0.2055
0.2125
0.2235
0.2135
0.1975
0.1915
0.183
0.171
0.176
0.1925
0.2005
0.216
0.201
0.183
0.1945
0.1895
0.1915
0.191
0.1875
0.195
0.199
0.201
0.181
0.173
0.1905
0.19
0.1825
0.179
0.178
0.177
0.1705
0.1695
0.164
0.162
0.171
0.178
0.1835
0.184
0.1725
0.1635
0.168
0.179
0.1875
0.1785
0.181
0.1905
0.1765
0.178
0.183
0.1695
0.171
0.1805
0.1815
0.1765
0.181
0.1715
0.155
0.164
0.1755
0.1745
0.1545
0.138
0.1395
0.1195
0.0925
0.109
0.108
0.069
0.046
0.0545
0.059
0.064
0.0845
0.096
0.1245
0.136
0.1605
0.2085
0.224
0.2445
0.289
0.353
0.393
0.4435
0.5045
0.5355
0.6
0.659
0.7055
0.762
0.794
0.7995
0.7995
0.7985
0.7705
0.7535
0.7355
0.6715
0.626
0.599
0.5575
0.518
0.4975
0.514
0.5445
0.5575
0.5555
0.562
0.5695
0.563
0.5465
0.542
0.5505
0.5165
0.467
0.4475
0.4335
0.4235
0.41
0.4035
0.41
0.409
0.4095
0.4065
0.397
0.3685
0.3305
0.3135
0.297
0.274
0.269
0.2575
0.2275
0.2065
0.199
0.2005
0.1925
0.1755
0.1695
0.175
0.1765
0.1695
0.1635
0.155
0.148
0.142
0.1375
0.1415
0.144
0.137
0.132
0.13
0.143
0.1515
0.1355
0.13
0.1325
0.1385
0.135
0.123
0.126
0.114
0.1155
0.134
0.1385
0.132
0.122
0.116
0.122
0.1325
0.1275
0.1225
0.124
0.124
0.1125
0.114
0.123
0.1255
0.1285
0.1195
0.1065
0.105
0.125
0.143
0.146
0.144
0.1455
0.141
0.138
0.1285
0.11
0.113
0.122
0.1275
0.134
0.1265
0.127
0.1355
0.1355
0.135
0.141
0.1405
0.1415
0.147
0.124
0.1165
0.1235
0.1255
0.134
0.1295
0.1235
0.1165
0.1115
0.12
0.128
0.126
0.134
0.1375
0.116
0.1035
0.097
0.0955
0.1005
0.0935
0.104
0.1125
0.119
0.1235
0.1125
0.1195
0.12
0.091
0.0895
0.1125
0.1025
0.093
0.0925
0.0895
0.099
0.1045
0.1055
0.0985
0.085
0.083
0.08
0.0745
0.073
0.061
0.0545
0.061
0.0805
0.087
0.074
0.0795
0.092
0.0935
0.086
0.0815
0.0735
0.0665
0.0695
0.071
0.067
0.0505
0.047
0.051
0.0445
0.039
0.0375
0.035
0.028
0.02
0.0155
0.0155
0.013
0.0075
0.0045
-0.0065
-0.0195
-0.024
-0.034
-0.044
-0.038
-0.028
-0.028
-0.029
-0.033
-0.04
-0.06
-0.0735
-0.076
-0.0855
-0.0945
-0.1075
-0.105
-0.0955
-0.0945
-0.1065
-0.112
-0.107
-0.1105
-0.1125
-0.1215
-0.131
-0.131
-0.133
-0.139
-0.148
-0.1515
-0.1555
-0.1635
-0.1665
-0.162
-0.1605
-0.169
-0.1755
-0.18
-0.1655
-0.1725
-0.1845
-0.1795
-0.191
-0.1995
-0.19
-0.175
-0.186
-0.1955
-0.201
-0.2045
-0.2
-0.1995
-0.193
-0.183
-0.177
-0.1705
-0.162
-0.1605
-0.157
-0.1555
-0.1565
-0.1595
-0.1555
-0.136
-0.1255
-0.1465
-0.16
-0.154
-0.1375
-0.1185
-0.128
-0.1335
-0.1275
-0.1205
-0.1035
-0.102
-0.1045
-0.1025
-0.093
-0.0805
-0.082
-0.0655
-0.0545
-0.064
-0.054
-0.0285
-0.016
-0.0075
0.003
0.007
0.0095
0.0085
0.0105
0.0165
0.0175
0.021
0.03
0.0355
0.037
0.032
0.032
0.0355
0.04
0.0535
0.0665
0.0765
0.0815
0.079
0.0765
0.0765
0.0815
0.088
0.097
0.108
0.1085
0.109
0.11
0.11
0.116
0.1215
0.1305
0.147
0.139
0.1135
0.1245
0.141
0.138
0.135
0.129
0.1355
0.1415
0.146
0.134
0.1245
0.1335
0.122
0.1285
0.145
0.1545
0.1615
0.1715
0.1725
0.163
0.152
0.13
0.127
0.1275
0.131
0.1445
0.1525
0.156
0.1435
0.137
0.147
0.155
0.1555
0.1535
0.1595
0.171
0.181
0.1815
0.1715
0.164
0.165
0.17
0.1755
0.183
0.19
0.191
0.1865
0.186
0.198
0.193
0.17
0.1595
0.1635
0.1645
0.1645
0.1635
0.161
0.1625
0.173
0.176
0.159
0.1735
0.1845
0.172
0.1865
0.2015
0.2005
0.198
0.195
0.185
0.182
0.187
0.192
0.1995
0.205
0.199
0.1915
0.1875
0.1755
0.177
0.177
0.1745
0.188
0.205
0.2195
0.2165
0.2085
0.213
0.2175
0.2205
0.2305
0.229
0.233
0.2555
0.2455
0.2335
0.2325
0.229
0.2305
0.231
0.2375
0.24
0.2395
0.242
0.2515
0.253
0.2355
0.218
0.222
0.2325
0.2435
0.2515
0.2435
0.227
0.2145
0.219
0.225
0.2235
0.2215
0.2165
0.211
0.1955
0.1885
0.184
0.1855
0.1905
0.183
0.18
0.1845
0.175
0.1625
0.1535
0.146
0.1455
0.1345
0.133
0.13
0.1405
0.157
0.1355
0.118
0.1255
0.1275
0.113
0.1095
0.1095
0.117
0.1275
0.123
0.117
0.1095
0.1105
0.1165
0.1175
0.105
0.095
0.101
0.1025
0.1065
0.1115
0.1025
0.1045
0.108
0.1105
0.1145
0.121
0.135
0.1135
0.097
0.1005
0.109
0.1015
0.081
0.0895
0.0935
0.097
0.0945
0.088
0.09
0.089
0.0955
0.101
0.1025
0.096
0.089
0.106
0.1015
0.0755
0.0765
0.074
0.071
0.0745
0.0785
0.084
0.082
0.081
0.091
0.0975
0.098
0.106
0.0915
0.0795
0.0845
0.0825
0.081
0.081
0.0775
0.0675
0.0615
0.0615
0.0675
0.082
0.092
0.087
0.074
0.0645
0.054
0.044
0.0335
0.0175
0.0015
-0.004
-0.0145
-0.03
-0.046
-0.05
-0.027
-0.0095
-0.0075
-0.012
-0.0005
0.0235
0.05
0.078
0.0975
0.1275
0.1605
0.1955
0.246
0.309
0.381
0.4455
0.507
0.5645
0.5945
0.6375
0.704
0.74
0.7415
0.745
0.7405
0.7135
0.687
0.6515
0.618
0.5815
0.5445
0.514
0.496
0.503
0.52
0.5355
0.522
0.509
0.519
0.527
0.529
0.5195
0.518
0.5075
0.4665
0.4305
0.4135
0.398
0.3815
0.3665
0.359
0.3545
0.338
0.328
0.3225
0.314
0.311
0.285
0.2485
0.2285
0.217
0.183
0.155
0.1485
0.12
0.1115
0.114
0.1
0.08
0.071
0.0825
0.0775
0.067
0.066
0.0645
0.0615
0.0625
0.0615
0.055
0.047
0.0425
0.043
0.0375
0.0405
0.045
0.045
0.048
0.045
0.0425
0.04
0.038
0.04
0.045
0.0415
0.0365
0.032
0.031
0.0345
0.0305
0.0285
0.032
0.042
0.042
0.0335
0.0325
0.0315
0.026
0.023
0.0245
0.027
0.0345
0.0385
0.036
0.0295
0.0255
0.0165
0.0185
0.043
0.0515
0.0505
0.0335
0.008
0.0105
0.012
0.015
0.0235
0.0345
0.0395
0.0465
0.065
0.0525
0.045
0.035
0.0165
0.0145
0.0155
0.018
0.017
0.015
0.011
0.0235
0.0225
0.0125
0.019
0.0175
0.0215
0.032
0.028
0.0215
0.018
0.0075
0.0035
0.0045
0.0005
-0.0015
-0.009
0.008
0.0215
0.005
0.018
0.03
0.0225
0.0155
0.014
0.01
0.008
0.0125
0.015
0.0155
0.012
0.0065
-0.0015
-0.0035
-0.007
-0.013
-0.011
-0.004
-0.0015
-0.009
-0.014
-0.0175
-0.021
-0.0255
-0.03
-0.02
-0.0115
-0.0175
-0.0285
-0.0385
-0.043
-0.049
-0.0485
-0.0525
-0.058
-0.0555
-0.0565
-0.055
-0.0615
-0.067
-0.068
-0.0695
-0.0785
-0.089
-0.0885
-0.089
-0.0965
-0.102
-0.1075
-0.12
-0.1315
-0.141
-0.144
-0.146
-0.1465
-0.1405
-0.1425
-0.146
-0.154
-0.169
-0.1715
-0.171
-0.177
-0.1865
-0.196
-0.2005
-0.2135
-0.226
-0.2255
-0.231
-0.2385
-0.2395
-0.239
-0.2375
-0.2385
-0.2445
-0.2565
-0.26
-0.253
-0.2535
-0.2675
-0.2865
-0.2935
-0.289
-0.277
-0.274
-0.2855
-0.2855
-0.2945
-0.3025
-0.285
-0.283
-0.289
-0.293
-0.3015
-0.303
-0.297
-0.2835
-0.2945
-0.305
-0.2975
-0.3025
-0.3025
-0.295
-0.2905
-0.2915
-0.293
-0.289
-0.287
-0.286
-0.2785
-0.274
-0.2715
-0.266
-0.263
-0.257
-0.2515
-0.2445
-0.239
-0.241
-0.2375
-0.227
-0.2255
-0.23
-0.2275
-0.219
-0.2135
-0.209
-0.1975
-0.1865
-0.182
-0.176
-0.166
-0.1545
-0.1455
-0.1435
-0.1395
-0.132
-0.128
-0.1245
-0.1255
-0.1255
-0.12
-0.1125
-0.1045
-0.099
-0.0825
-0.0685
-0.0635
-0.0595
-0.067
-0.0675
-0.0595
-0.055
-0.048
-0.0335
-0.025
-0.0295
-0.0375
-0.045
-0.046
-0.04
-0.0245
-0.014
-0.0115
-0.0065
-0.01
-0.0135
-0.014
-0.0165
-0.0105
-0.0035
0.0035
0.0115
0.016
0.019
0.0185
0.017
0.011
0.012
0.021
0.0195
0.023
0.02
0.008
0.0175
0.029
0.0315
0.035
0.032
0.041
0.054
0.052
0.0435
0.0415
0.0405
0.0325
0.0395
0.0365
0.0305
0.0275
0.0205
0.0255
0.0265
0.025
0.0235
0.0285
0.0315
0.034
0.048
0.0525
0.04
0.035
0.0375
0.0445
0.0565
0.057
0.0605
0.064
0.059
0.056
0.058
0.0565
0.0505
0.041
0.0315
0.0535
0.0715
0.067
0.065
0.065
0.0675
0.0625
0.063
0.067
0.071
0.0695
0.0635
0.07
0.0715
0.0655
0.0685
0.0705
0.0655
0.0625
0.066
0.0695
0.0705
0.0715
0.0635
0.0565
0.0565
0.0585
0.065
0.0715
0.0775
0.077
0.076
0.0815
0.0845
0.085
0.086
0.0905
0.102
0.114
0.1165
0.1205
0.125
0.12
0.1225
0.121
0.115
0.11
0.1085
0.113
0.113
0.119
0.1115
0.1035
0.1085
0.1065
0.1125
0.118
0.1085
0.112
0.117
0.109
0.0965
0.077
0.071
0.0735
0.0935
0.106
0.088
0.081
0.0785
0.0745
0.071
0.0705
0.0685
0.0575
0.0565
0.0515
0.0365
0.034
0.0335
0.03
0.0275
0.0215
0.0185
0.0135
0.005
-0.0025
-0.011
-0.016
-0.0155
-0.01
-0.0145
-0.0215
-0.0135
-0.0125
-0.015
-0.015
-0.016
-0.0155
-0.015
-0.016
-0.0145
-0.011
-0.0185
-0.0275
-0.0285
-0.0305
-0.031
-0.0305
-0.029
-0.0275
-0.024
-0.0185
-0.0225
-0.0315
-0.0325
-0.028
-0.024
-0.0225
-0.021
-0.0215
-0.023
-0.0205
-0.0215
-0.0265
-0.0295
-0.029
-0.032
-0.0345
-0.033
-0.032
-0.035
-0.039
-0.0435
-0.05
-0.046
-0.0435
-0.042
-0.0305
-0.0335
-0.0435
-0.044
-0.0405
-0.044
-0.0475
-0.0465
-0.0545
-0.0585
-0.054
-0.0465
-0.0465
-0.067
-0.065
-0.0425
-0.036
-0.039
-0.0525
-0.0725
-0.072
-0.0575
-0.053
-0.063
-0.0755
-0.0715
-0.0635
-0.0545
-0.056
-0.075
-0.106
-0.131
-0.1405
-0.1545
-0.1515
-0.1445
-0.166
-0.173
-0.1555
-0.135
-0.105
-0.0865
-0.067
-0.0415
-0.0235
-0.0015
0.026
0.0725
0.128
0.172
0.2285
0.2995
0.3585
0.4215
0.48
0.5295
0.583
0.631
0.6605
0.662
0.663
0.6525
0.608
0.5625
0.5205
0.48
0.454
0.4385
0.421
0.4125
0.4245
0.4435
0.4525
0.443
0.449
0.476
0.4775
0.4615
0.445
0.4365
0.416
0.368
0.3315
0.308
0.2875
0.2615
0.229
0.2245
0.2225
0.2005
0.187
0.182
0.1785
0.1605
0.1325
0.109
0.089
0.0775
0.063
0.043
0.0135
-0.0055
-0.0035
-0.009
-0.0095
-0.025
-0.054
-0.0525
-0.049
-0.062
-0.078
-0.0785
-0.0715
-0.077
-0.088
-0.0905
-0.0775
-0.071
-0.086
-0.0915
-0.0795
-0.082
-0.09
-0.089
-0.0925
-0.091
-0.095
-0.1025
-0.105
-0.107
-0.105
-0.1095
-0.108
-0.103
-0.101
-0.094
-0.093
-0.091
-0.0895
-0.099
-0.108
-0.1155
-0.12
-0.117
-0.115
-0.1095
-0.105
-0.1035
-0.105
-0.103
-0.087
-0.1025
-0.128
-0.1315
-0.1255
-0.119
-0.118
-0.112
-0.1095
-0.1105
-0.1265
-0.141
-0.1325
-0.118
-0.1295
-0.14
-0.131
-0.1315
-0.1355
-0.1315
-0.1375
-0.1315
-0.1105
-0.128
-0.1455
-0.1455
-0.15
-0.144
-0.1325
-0.125
-0.136
-0.1445
-0.1475
-0.154
-0.1615
-0.153
-0.138
-0.1325
-0.138
-0.1465
-0.142
-0.1315
-0.116
-0.1295
-0.134
-0.1405
-0.17
-0.1745
-0.171
-0.1595
-0.1555
-0.1525
-0.142
-0.1475
-0.1535
-0.1645
-0.1745
-0.174
-0.177
-0.169
-0.1685
-0.178
-0.181
-0.175
-0.1715
-0.1765
-0.1875
-0.1975
-0.194
-0.1875
-0.1895
-0.21
-0.225
-0.2205
-0.2135
-0.2075
-0.1925
-0.1855
-0.194
-0.2035
-0.214
-0.218
-0.224
-0.231
-0.2365
-0.2435
-0.2485
-0.2495
-0.2505
-0.2525
-0.256
-0.2625
-0.2745
-0.287
-0.286
-0.2865
-0.295
-0.3005
-0.312
-0.3305
-0.341
-0.345
-0.341
-0.3405
-0.3515
-0.3565
-0.35
-0.3295
-0.3525
-0.3825
-0.3655
-0.3705
-0.37
-0.358
-0.366
-0.3755
-0.3915
-0.4065
-0.4195
-0.41
-0.413
-0.4455
-0.4465
-0.427
-0.4355
-0.4525
-0.4565
-0.466
-0.4695
-0.473
-0.4785
-0.48
-0.48
-0.4755
-0.469
-0.465
-0.464
-0.475
-0.487
-0.4895
-0.4885
-0.4895
-0.497
-0.494
-0.4975
-0.498
-0.483
-0.473
-0.48
-0.4835
-0.4755
-0.4855
-0.4835
-0.4635
-0.4575
-0.456
-0.46
-0.4615
-0.455
-0.4525
-0.445
-0.446
-0.4385
-0.439
-0.4595
-0.452
-0.449
-0.4515
-0.4275
-0.4
-0.394
-0.391
-0.3735
-0.3515
-0.349
-0.347
-0.3395
-0.355
-0.347
-0.335
-0.335
-0.327
-0.3175
-0.3145
-0.312
-0.303
-0.2995
-0.291
-0.282
-0.2705
-0.259
-0.2545
-0.2445
-0.2325
-0.2295
-0.214
-0.2105
-0.234
-0.235
-0.2235
-0.217
-0.2205
-0.22
-0.2165
-0.21
-0.1915
-0.199
-0.2015
-0.1865
-0.194
-0.1955
-0.1825
-0.1935
-0.208
-0.1995
-0.198
-0.193
-0.1805
-0.1875
-0.1745
-0.163
-0.18
-0.1725
-0.1565
-0.1595
-0.166
-0.1705
-0.1675
-0.158
-0.1545
-0.151
-0.149
-0.1635
-0.1815
-0.173
-0.162
-0.16
-0.143
-0.1475
-0.1655
-0.1605
-0.165
-0.1665
-0.161
-0.162
-0.1555
-0.146
-0.149
-0.156
-0.153
-0.156
-0.143
-0.13
-0.1465
-0.1545
-0.149
-0.141
-0.124
-0.121
-0.14
-0.152
-0.146
-0.131
-0.123
-0.132
-0.142
-0.1465
-0.151
-0.14
-0.1265
-0.1295
-0.1325
-0.1335
-0.127
-0.1235
-0.1375
-0.1295
-0.1315
-0.145
-0.144
-0.1355
-0.126
-0.1255
-0.1105
-0.1195
-0.131
-0.1235
-0.127
-0.137
-0.1415
-0.129
-0.119
-0.1125
-0.1105
-0.1055
-0.1065
-0.126
-0.1225
-0.117
-0.1265
-0.132
-0.1375
-0.138
-0.1205
-0.099
-0.0965
-0.0885
-0.074
-0.0625
-0.0635
-0.074
-0.056
-0.04
-0.034
-0.032
-0.0715
-0.09
-0.088
-0.095
-0.081
-0.0745
-0.086
-0.098
-0.102
-0.0935
-0.085
-0.0635
-0.0645
-0.1
-0.0985
-0.081
-0.0885
-0.1005
-0.0995
-0.104
-0.1075
-0.1075
-0.1115
-0.115
-0.1195
-0.127
-0.122
-0.1025
-0.116
-0.1415
-0.153
-0.1665
-0.1875
-0.1915
-0.194
-0.1945
-0.1825
-0.188
-0.182
-0.175
-0.1835
-0.1945
-0.1955
-0.1965
-0.2085
-0.221
-0.226
-0.2145
-0.203
-0.204
-0.2085
-0.208
-0.219
-0.225
-0.209
-0.193
-0.1915
-0.192
-0.1925
-0.2185
-0.227
-0.2195
-0.221
-0.221
-0.2285
-0.2305
-0.2215
-0.204
-0.1995
-0.2105
-0.22
-0.221
-0.2125
-0.207
-0.2155
-0.2295
-0.2225
-0.216
-0.229
-0.2215
-0.21
-0.2195
-0.233
-0.2265
-0.217
-0.243
-0.241
-0.208
-0.2215
-0.244
-0.2475
-0.2385
-0.228
-0.2275
-0.2285
-0.242
-0.2505
-0.235
-0.2245
-0.2325
-0.2135
-0.2085
-0.241
-0.251
-0.2495
-0.227
-0.2135
-0.2335
-0.237
-0.245
-0.254
-0.2585
-0.239
-0.2325
-0.2585
-0.2565
-0.254
-0.255
-0.2605
-0.27
-0.274
-0.284
-0.298
-0.3005
-0.3165
-0.352
-0.3555
-0.34
-0.332
-0.323
-0.307
-0.2975
-0.297
-0.2885
-0.262
-0.2395
-0.2215
-0.1905
-0.1515
-0.1045
-0.065
-0.0015
0.073
0.1095
0.1655
0.241
0.3
0.3655
0.4085
0.437
0.463
0.4605
0.4495
0.417
0.38
0.346
0.3015
0.277
0.2465
0.2085
0.1895
0.1835
0.1805
0.189
0.181
0.1615
0.1585
0.1495
0.1385
0.1235
0.123
0.141
0.138
0.107
0.098
0.0965
0.0565
0.031
0.024
0.008
-0.0065
-0.0185
-0.028
-0.04
-0.047
-0.067
-0.0895
-0.1005
-0.127
-0.1285
-0.129
-0.153
-0.161
-0.1685
-0.188
-0.206
-0.214
-0.225
-0.218
-0.224
-0.252
-0.243
-0.249
-0.265
-0.2485
-0.2335
-0.2585
-0.2655
-0.2495
-0.267
-0.2805
-0.2815
-0.2785
-0.285
-0.266
-0.2495
-0.262
-0.2555
-0.2635
-0.2835
-0.2895
-0.289
-0.2935
-0.29
-0.29
-0.286
-0.2835
-0.283
-0.2795
-0.288
-0.279
-0.267
-0.266
-0.2685
-0.275
-0.291
-0.2955
-0.289
-0.287
-0.291
-0.288
-0.2785
-0.277
-0.2685
-0.276
-0.2875
-0.283
-0.28
-0.282
-0.2655
-0.2445
-0.274
-0.2995
-0.292
-0.3015
-0.3015
-0.2885
-0.2775
-0.2675
-0.281
-0.288
-0.2765
-0.2795
-0.2835
-0.2825
-0.273
-0.2785
-0.295
-0.2805
-0.272
-0.2735
-0.2635
-0.271
-0.299
-0.2965
-0.2745
-0.267
-0.2555
-0.2575
-0.2585
-0.264
-0.292
-0.3005
-0.288
-0.28
-0.297
-0.3155
-0.3035
-0.312
-0.3055
-0.291
-0.3165
-0.319
-0.3055
-0.311
-0.3095
-0.291
-0.29
-0.284
-0.2895
-0.3035
-0.3035
-0.322
-0.323
-0.328
-0.336
-0.3245
-0.34
-0.3535
-0.349
-0.352
-0.3535
-0.359
-0.3695
-0.377
-0.371
-0.366
-0.36
-0.3445
-0.3545
-0.354
-0.352
-0.369
-0.3735
-0.3745
-0.372
-0.377
-0.3925
-0.382
-0.3845
-0.418
-0.4235
-0.413
-0.4125
-0.4215
-0.4215
-0.4305
-0.4385
-0.433
-0.441
-0.441
-0.4525
-0.4695
-0.4755
-0.4925
-0.4995
-0.496
-0.502
-0.5005
-0.502
-0.517
-0.513
-0.525
-0.5385
-0.532
-0.5345
-0.5445
-0.5505
-0.5435
-0.5525
-0.565
-0.5745
-0.5925
-0.59
-0.5825
-0.5915
-0.599
-0.588
-0.588
-0.6085
-0.588
-0.587
-0.5955
-0.5765
-0.583
-0.606
-0.6305
-0.6205
-0.6015
-0.592
-0.6035
-0.619
-0.6195
-0.628
-0.6325
-0.6245
-0.609
-0.584
-0.5645
-0.5735
-0.5775
-0.599
-0.62
-0.6265
-0.641
-0.6435
-0.6345
-0.61
-0.603
-0.593
-0.584
-0.5935
-0.595
-0.5925
-0.5815
-0.5585
-0.547
-0.546
-0.5345
-0.5375
-0.5505
-0.543
-0.527
-0.52
-0.5175
-0.518
-0.4985
-0.4875
-0.49
-0.4835
-0.483
-0.4715
-0.456
-0.4555
-0.4655
-0.4415
-0.439
-0.447
-0.419
-0.407
-0.412
-0.416
-0.3915
-0.4095
-0.426
-0.398
-0.3975
-0.385
-0.3935
-0.399
-0.389
-0.394
-0.3795
-0.3875
-0.385
-0.377
-0.373
-0.3565
-0.3505
-0.3335
-0.323
-0.325
-0.3345
-0.315
-0.302
-0.3025
-0.2915
-0.325
-0.334
-0.3255
-0.328
-0.3235
-0.316
-0.293
-0.287
-0.29
-0.2765
-0.269
-0.2695
-0.273
-0.286
-0.2975
-0.297
-0.275
-0.269
-0.2685
-0.2765
-0.3005
-0.2975
-0.2955
-0.2935
-0.2755
-0.271
-0.2545
-0.2455
-0.2765
-0.2935
-0.298
-0.2815
-0.272
-0.276
-0.2715
-0.2905
-0.2945
-0.282
-0.3005
-0.3015
-0.276
-0.295
-0.2945
-0.264
-0.262
-0.2635
-0.2575
-0.2365
-0.231
-0.2515
-0.2485
-0.249
-0.28
-0.2925
-0.2865
-0.2915
-0.2995
-0.3105
-0.2945
-0.2595
-0.2445
-0.2375
-0.2385
-0.238
-0.2395
-0.251
-0.244
-0.232
-0.2235
-0.2215
-0.2425
-0.2475
-0.24
-0.242
-0.2275
-0.23
-0.2685
-0.291
-0.298
-0.293
-0.267
-0.253
-0.2525
-0.25
-0.252
-0.2505
-0.2355
-0.22
-0.2195
-0.225
-0.229
-0.2375
-0.2385
-0.231
-0.2185
-0.1905
-0.208
-0.2265
-0.1975
-0.2145
-0.222
-0.206
-0.2005
-0.2045
-0.213
-0.218
-0.2305
-0.222
-0.2185
-0.2265
-0.2125
-0.206
-0.2245
-0.2365
-0.228
-0.2145
-0.213
-0.211
-0.2095
-0.202
-0.2155
-0.226
-0.192
-0.1935
-0.2335
-0.267
-0.271
-0.266
-0.2795
-0.2685
-0.243
-0.221
-0.2305
-0.2545
-0.256
-0.2595
-0.26
-0.2675
-0.28
-0.283
-0.294
-0.2985
-0.306
-0.3125
-0.3
-0.3095
-0.3045
-0.2885
-0.2885
-0.2915
-0.3075
-0.3205
-0.3195
-0.327
-0.339
-0.333
-0.31
-0.2915
-0.3185
-0.323
-0.3135
-0.3375
-0.328
-0.322
-0.324
-0.3215
-0.324
-0.298
-0.295
-0.32
-0.3445
-0.354
-0.3425
-0.339
-0.3435
-0.3325
-0.3125
-0.312
-0.317
-0.3065
-0.3205
-0.3335
-0.325
-0.3475
-0.3565
-0.3385
-0.3205
-0.328
-0.3305
-0.306
-0.315
-0.326
-0.3355
-0.348
-0.3395
-0.3335
-0.323
-0.32
-0.3295
-0.339
-0.355
-0.354
-0.3415
-0.342
-0.345
-0.3465
-0.3415
-0.3405
-0.352
-0.346
-0.3265
-0.324
-0.3285
-0.333
-0.3545
-0.3565
-0.3485
-0.3475
-0.3385
-0.3465
-0.3615
-0.3635
-0.3915
-0.4045
-0.3855
-0.4035
-0.4205
-0.44
-0.448
-0.4345
-0.4495
-0.4405
-0.4105
-0.4225
-0.4285
-0.3865
-0.3595
-0.3485
-0.3125
-0.278
-0.2345
-0.186
-0.1365
-0.072
-0.03
0.0265
0.091
0.1355
0.1835
0.2215
0.2435
0.241
0.249
0.243
0.214
0.216
0.185
0.151
0.106
0.053
0.032
0.004
-0.004
-0.021
-0.0105
-0.0015
-0.02
-0.033
-0.0565
-0.054
-0.0495
-0.0335
-0.0175
-0.048
-0.07
-0.0815
-0.095
-0.104
-0.1275
-0.1455
-0.1355
-0.1455
-0.1675
-0.1785
-0.1905
-0.199
-0.2415
-0.26
-0.258
-0.2755
-0.284
-0.298
-0.3045
-0.304
-0.3055
-0.31
-0.317
-0.324
-0.344
-0.3515
-0.3475
-0.349
-0.3575
-0.349
-0.344
-0.377
-0.396
-0.3865
-0.3745
-0.3765
-0.3745
-0.382
-0.382
-0.3825
-0.392
-0.3935
-0.4075
-0.3935
-0.3695
-0.371
-0.3885
-0.397
-0.3875
-0.3815
-0.3915
-0.3985
-0.3895
-0.393
-0.4035
-0.3935
-0.3915
-0.401
-0.3985
-0.3715
-0.358
-0.4015
-0.4185
-0.388
-0.3845
-0.385
-0.3775
-0.3755
-0.379
-0.3865
-0.3595
-0.353
-0.3865
-0.3955
-0.394
-0.3895
-0.3865
-0.402
-0.4085
-0.3965
-0.3785
-0.394
-0.436
-0.4385
-0.4105
-0.399
-0.3955
-0.3785
-0.3685
-0.357
-0.3745
-0.4
-0.3845
-0.3775
-0.3985
-0.423
-0.4335
-0.4315
-0.4135
-0.4075
-0.405
-0.4005
-0.4195
-0.427
-0.425
-0.421
-0.4205
-0.415
-0.3875
-0.397
-0.4165
-0.4045
-0.4035
-0.4165
-0.4095
-0.416
-0.435
-0.4165
-0.418
-0.421
-0.42
-0.4425
-0.447
-0.4485
-0.4465
-0.4455
-0.4405
-0.4145
-0.4025
-0.423
-0.4445
-0.455
-0.4555
-0.465
-0.4905
-0.4825
-0.4655
-0.4615
-0.455
-0.451
-0.4515
-0.4455
-0.457
-0.461
-0.4575
-0.4735
-0.469
-0.4735
-0.4855
-0.4915
-0.5025
-0.499
-0.4875
-0.494
-0.502
-0.504
-0.511
-0.4995
-0.4955
-0.5185
-0.533
-0.5385
-0.538
-0.541
-0.547
-0.5435
-0.548
-0.5515
-0.5525
-0.5645
-0.5815
-0.5655
-0.557
-0.5825
-0.5795
-0.5655
-0.5745
-0.593
-0.615
-0.634
-0.6225
-0.633
-0.64
-0.6235
-0.6245
-0.625
-0.635
-0.6465
-0.661
-0.669
-0.6715
-0.675
-0.6765
-0.6845
-0.6885
-0.6735
-0.672
-0.684
-0.683
-0.681
-0.695
-0.709
-0.704
-0.712
-0.7075
-0.6905
-0.692
-0.698
-0.7095
-0.7055
-0.6945
-0.7045
-0.7105
-0.707
-0.715
-0.719
-0.7305
-0.732
-0.7095
-0.701
-0.694
-0.7
-0.7055
-0.7065
-0.7195
-0.7135
-0.7005
-0.682
-0.645
-0.646
-0.6735
-0.674
-0.6675
-0.666
-0.6565
-0.6365
-0.619
-0.613
-0.6145
-0.622
-0.624
-0.615
-0.62
-0.6225
-0.6155
-0.612
-0.598
-0.584
-0.5885
-0.592
-0.5715
-0.557
-0.553
-0.546
-0.546
-0.5435
-0.5415
-0.535
-0.5425
-0.5285
-0.514
-0.5195
-0.4845
-0.473
-0.4845
-0.478
-0.476
-0.4685
-0.4565
-0.449
-0.4565
-0.4765
-0.487
-0.4845
-0.482
-0.47
-0.4445
-0.425
-0.41
-0.415
-0.4355
-0.439
-0.4355
-0.4315
-0.427
-0.4245
-0.4155
-0.4225
-0.432
-0.434
-0.425
-0.412
-0.423
-0.405
-0.3995
-0.4275
-0.4025
-0.383
-0.3815
-0.3815
-0.4045
-0.4035
-0.402
-0.4205
-0.4085
-0.383
-0.3795
-0.3795
-0.378
-0.383
-0.3835
-0.3875
-0.3935
-0.4015
-0.4095
-0.4
-0.3995
-0.395
-0.3865
-0.381
-0.37
-0.363
-0.3595
-0.376
-0.39
-0.3875
-0.3955
-0.396
-0.388
-0.4195
-0.423
-0.3875
-0.373
-0.354
-0.368
-0.384
-0.3855
-0.397
-0.39
-0.373
-0.369
-0.3925
-0.405
-0.39
-0.3815
-0.365
-0.3325
-0.3445
-0.37
-0.37
-0.3605
-0.3615
-0.386
-0.3915
-0.38
-0.3845
-0.4045
-0.4005
-0.379
-0.3705
-0.382
-0.379
-0.3615
-0.3665
-0.366
-0.3595
-0.3555
-0.3735
-0.384
-0.363
-0.3615
-0.3635
-0.3565
-0.35
-0.355
-0.3705
-0.365
-0.362
-0.353
-0.341
-0.339
-0.3455
-0.3485
-0.3365
-0.3415
-0.3465
-0.343
-0.3385
-0.3395
-0.3425
-0.343
-0.3535
-0.357
-0.3515
-0.357
-0.3545
-0.339
-0.342
-0.353
-0.353
-0.349
-0.3465
-0.359
-0.37
-0.369
-0.3565
-0.3555
-0.371
-0.3685
-0.3625
-0.366
-0.37
-0.354
-0.3645
-0.3835
-0.395
-0.422
-0.424
-0.4165
-0.411
-0.414
-0.406
-0.3985
-0.3995
-0.3985
-0.406
-0.4145
-0.4415
-0.46
-0.4555
-0.4515
-0.4475
-0.4535
-0.4585
-0.4405
-0.4305
-0.431
-0.4365
-0.4425
-0.43
-0.43
-0.442
-0.452
-0.455
-0.4475
-0.4515
-0.447
-0.4365
-0.441
-0.4465
-0.4475
-0.4425
-0.444
-0.4535
-0.4615
-0.4845
-0.4945
-0.471
-0.452
-0.45
-0.4475
-0.4405
-0.449
-0.4555
-0.456
-0.4705
-0.4605
-0.4505
-0.472
-0.4575
-0.4425
-0.452
-0.462
-0.468
-0.461
-0.465
-0.462
-0.4635
-0.471
-0.474
-0.454
-0.443
-0.463
-0.4675
-0.4645
-0.452
-0.4475
-0.451
-0.451
-0.4595
-0.4675
-0.4685
-0.4735
-0.48
-0.4795
-0.484
-0.4755
-0.4655
-0.4705
-0.472
-0.4645
-0.4595
-0.496
-0.537
-0.5355
-0.5275
-0.5355
-0.5465
-0.557
-0.556
-0.5405
-0.534
-0.5285
-0.5185
-0.4975
-0.47
-0.4535
-0.432
-0.406
-0.3815
-0.3495
-0.302
-0.255
-0.2005
-0.1335
-0.068
-0.003
0.039
0.0775
0.115
0.143
0.1485
0.142
0.1265
0.1035
0.0875
0.05
0.019
-0.004
-0.0225
-0.0465
-0.0815
-0.093
-0.0835
-0.074
-0.089
-0.092
-0.0845
-0.081
-0.084
-0.095
-0.09
-0.108
-0.1535
-0.191
-0.218
-0.2225
-0.2145
-0.231
-0.241
-0.226
-0.234
-0.238
-0.2445
-0.2485
-0.258
-0.293
-0.3095
-0.3305
-0.3515
-0.3655
-0.379
-0.387
-0.3805
-0.3865
-0.4155
-0.419
-0.4295
-0.441
-0.443
-0.44
-0.445
-0.4435
-0.423
-0.445
-0.4695
-0.447
-0.4405
-0.4725
-0.476
-0.469
-0.477
-0.4795
-0.4785
-0.48
-0.482
-0.484
-0.479
-0.461
-0.4685
-0.478
-0.475
-0.4795
-0.479
-0.478
-0.469
-0.4715
-0.4755
-0.4725
-0.467
-0.444
-0.448
-0.4635
-0.4495
-0.4485
-0.4755
-0.49
-0.4835
-0.489
-0.495
-0.497
-0.498
-0.4985
-0.504
-0.4975
-0.4825
-0.4685
-0.4675
-0.472
-0.4675
-0.4775
-0.4945
-0.492
-0.484
-0.4705
-0.4625
-0.475
-0.4825
-0.4865
-0.49
-0.499
-0.5075
-0.5055
-0.4985
-0.489
-0.488
-0.5015
-0.5115
-0.5095
-0.5205
-0.518
-0.5055
-0.51
-0.4995
-0.4865
-0.479
-0.464
-0.4705
-0.4895
-0.499
-0.5005
-0.4975
-0.509
-0.505
-0.4905
-0.497
-0.507
-0.5095
-0.514
-0.518
-0.509
-0.514
-0.523
-0.5185
-0.5215
-0.511
-0.504
-0.515
-0.512
-0.5035
-0.495
-0.5075
-0.529
-0.531
-0.5325
-0.528
-0.522
-0.5225
-0.5265
-0.5285
-0.5265
-0.5315
-0.539
-0.5415
-0.541
-0.5425
-0.532
-0.5175
-0.5215
-0.5265
-0.5445
-0.561
-0.566
-0.568
-0.5645
-0.5885
-0.6015
-0.5955
-0.6
-0.605
-0.6075
-0.6055
-0.6005
-0.5955
-0.6035
-0.616
-0.628
-0.649
-0.6655
-0.6575
-0.662
-0.6785
-0.674
-0.6725
-0.6665
-0.654
-0.655
-0.672
-0.6755
-0.675
-0.6885
-0.7
-0.703
-0.707
-0.7195
-0.729
-0.7365
-0.737
-0.74
-0.738
-0.736
-0.747
-0.749
-0.7615
-0.775
-0.7605
-0.7535
-0.7575
-0.76
-0.767
-0.7835
-0.793
-0.782
-0.7885
-0.805
-0.8165
-0.8115
-0.8005
-0.8075
-0.8165
-0.8105
-0.803
-0.804
-0.792
-0.792
-0.79
-0.7915
-0.809
-0.81
-0.8055
-0.794
-0.787
-0.782
-0.778
-0.7805
-0.7755
-0.783
-0.779
-0.772
-0.788
-0.785
-0.7745
-0.7745
-0.7755
-0.7645
-0.7585
-0.748
-0.7125
-0.713
-0.7365
-0.7275
-0.7265
-0.723
-0.713
-0.721
-0.7165
-0.7095
-0.7065
-0.7005
-0.69
-0.677
-0.657
-0.6395
-0.634
-0.632
-0.624
-0.6225
-0.626
-0.6205
-0.624
-0.6255
-0.616
-0.604
-0.5925
-0.592
-0.604
-0.5895
-0.57
-0.5615
-0.5555
-0.5595
-0.5475
-0.533
-0.5325
-0.532
-0.523
-0.5155
-0.5175
-0.5145
-0.5085
-0.5105
-0.508
-0.504
-0.505
-0.51
-0.517
-0.507
-0.491
-0.495
-0.504
-0.5005
-0.493
-0.487
-0.488
-0.4845
-0.4865
-0.4955
-0.4925
-0.488
-0.4905
-0.4875
-0.4755
-0.47
-0.4665
-0.461
-0.46
-0.4615
-0.46
-0.46
-0.4705
-0.47
-0.4625
-0.46
-0.4525
-0.453
-0.458
-0.457
-0.4525
-0.4415
-0.4595
-0.473
-0.4635
-0.4585
-0.4575
-0.4625
-0.452
-0.463
-0.4725
-0.464
-0.464
-0.449
-0.4325
-0.437
-0.442
-0.443
-0.4425
-0.4325
-0.4395
-0.4675
-0.4815
-0.4735
-0.455
-0.432
-0.4355
-0.4515
-0.437
-0.4395
-0.4465
-0.436
-0.4395
-0.441
-0.4355
-0.429
-0.421
-0.4155
-0.4195
-0.4265
-0.435
-0.438
-0.4305
-0.4265
-0.429
-0.4455
-0.457
-0.4545
-0.4585
-0.4625
-0.4555
-0.453
-0.4465
-0.4335
-0.4225
-0.4125
-0.41
-0.397
-0.3875
-0.4015
-0.419
-0.409
-0.384
-0.379
-0.3865
-0.391
-0.3925
-0.391
-0.396
-0.4
-0.394
-0.398
-0.397
-0.3855
-0.384
-0.389
-0.389
-0.3875
-0.393
-0.39
-0.3845
-0.3835
-0.3765
-0.3635
-0.371
-0.3875
-0.3885
-0.389
-0.3855
-0.388
-0.4035
-0.417
-0.419
-0.3895
-0.369
-0.404
-0.4345
-0.438
-0.4345
-0.4215
-0.418
-0.431
-0.438
-0.444
-0.4585
-0.455
-0.4555
-0.4615
-0.4645
-0.4745
-0.4775
-0.471
-0.47
-0.468
-0.457
-0.476
-0.4885
-0.48
-0.4765
-0.452
-0.4505
-0.4735
-0.486
-0.4875
-0.4815
-0.476
-0.4565
-0.4585
-0.478
-0.4745
-0.4715
-0.4755
-0.4795
-0.4875
-0.4955
-0.4885
-0.4735
-0.4805
-0.4915
-0.4875
-0.481
-0.487
-0.494
-0.4935
-0.5085
-0.5105
-0.5005
-0.4995
-0.492
-0.4965
-0.4925
-0.4885
-0.495
-0.4895
-0.488
-0.4845
-0.483
-0.499
-0.51
-0.503
-0.4925
-0.49
-0.493
-0.502
-0.512
-0.506
-0.503
-0.4785
-0.4695
-0.5055
-0.5195
-0.5225
-0.5165
-0.502
-0.5
-0.498
-0.4955
-0.4995
-0.5045
-0.5105
-0.521
-0.5175
-0.503
-0.494
-0.499
-0.5095
-0.512
-0.517
-0.5195
-0.5285
-0.5405
-0.5605
-0.573
-0.575
-0.607
-0.6255
-0.6235
-0.623
-0.6065
-0.6005
-0.6045
-0.58
-0.5475
-0.5225
-0.5025
-0.489
-0.4695
-0.4215
-0.3825
-0.347
-0.282
-0.224
-0.1655
-0.112
-0.05
0.012
0.072
0.131
0.163
0.179
0.1825
0.182
0.16
0.118
0.07
0.0275
-0.0065
-0.0345
-0.0615
-0.0915
-0.101
-0.0925
-0.0805
-0.081
-0.0855
-0.0835
-0.082
-0.085
-0.1005
-0.106
-0.0945
-0.1155
-0.163
-0.181
-0.2005
-0.2225
-0.231
-0.2395
-0.2335
-0.2395
-0.254
-0.2645
-0.2815
-0.28
-0.297
-0.3345
-0.3515
-0.3635
-0.3775
-0.3965
-0.418
-0.4395
-0.4485
-0.453
-0.467
-0.481
-0.4935
-0.4985
-0.5025
-0.4995
-0.493
-0.499
-0.51
-0.515
-0.516
-0.517
-0.516
-0.5255
-0.532
-0.5245
-0.509
-0.4965
-0.518
-0.535
-0.536
-0.541
-0.538
-0.5395
-0.5455
-0.5555
-0.55
-0.533
-0.5365
-0.546
-0.549
-0.547
-0.544
-0.5415
-0.541
-0.545
-0.541
-0.5365
-0.53
-0.5255
-0.53
-0.5375
-0.549
-0.559
-0.5485
-0.5405
-0.552
-0.547
-0.551
-0.567
-0.5655
-0.562
-0.5575
-0.5495
-0.548
-0.5475
-0.553
-0.5505
-0.539
-0.554
-0.564
-0.5585
-0.551
-0.544
-0.5455
-0.543
-0.54
-0.5475
-0.5425
-0.539
-0.5575
-0.5695
-0.5615
-0.554
-0.557
-0.5595
-0.563
-0.5615
-0.5515
-0.5545
-0.5635
-0.5615
-0.561
-0.5665
-0.565
-0.5615
-0.556
-0.5535
-0.5605
-0.565
-0.563
-0.5665
-0.5855
-0.588
-0.581
-0.581
-0.575
-0.5745
-0.579
-0.586
-0.599
-0.6045
-0.6045
-0.6065
-0.5955
-0.582
-0.5875
-0.5945
-0.589
-0.5895
-0.5895
-0.5885
-0.5995
-0.6015
-0.6005
-0.6035
-0.6015
-0.5925
-0.5915
-0.601
-0.5995
-0.595
-0.6045
-0.6155
-0.6215
-0.63
-0.6385
-0.648
-0.643
-0.6335
-0.635
-0.635
-0.6425
-0.6565
-0.666
-0.6675
-0.6725
-0.6755
-0.668
-0.671
-0.6745
-0.6815
-0.692
-0.6865
-0.6895
-0.7075
-0.715
-0.7115
-0.708
-0.7295
-0.742
-0.723
-0.7315
-0.75
-0.7625
-0.769
-0.769
-0.783
-0.7875
-0.789
-0.7895
-0.786
-0.784
-0.797
-0.8085
-0.8085
-0.815
-0.8045
-0.821
-0.8395
-0.8305
-0.833
-0.833
-0.833
-0.8445
-0.851
-0.848
-0.848
-0.843
-0.8455
-0.854
-0.855
-0.8525
-0.853
-0.854
-0.851
-0.85
-0.848
-0.852
-0.857
-0.8595
-0.863
-0.868
-0.881
-0.882
-0.878
-0.8755
-0.868
-0.8625
-0.8525
-0.852
-0.8545
-0.855
-0.8525
-0.84
-0.84
-0.8305
-0.8135
-0.8155
-0.815
-0.806
-0.7995
-0.798
-0.786
-0.77
-0.7685
-0.769
-0.7695
-0.766
-0.75
-0.741
-0.745
-0.7475
-0.7525
-0.7535
-0.738
-0.717
-0.704
-0.702
-0.698
-0.688
-0.682
-0.68
-0.678
-0.6685
-0.656
-0.6415
-0.635
-0.6355
-0.6305
-0.631
-0.6255
-0.6245
-0.619
-0.6065
-0.597
-0.5905
-0.5885
-0.5665
-0.566
-0.569
-0.55
-0.555
-0.555
-0.545
-0.553
-0.5555
-0.547
-0.556
-0.5655
-0.559
-0.5545
-0.5575
-0.5575
-0.5505
-0.5455
-0.54
-0.536
-0.5305
-0.526
-0.532
-0.5355
-0.529
-0.5245
-0.5275
-0.5275
-0.525
-0.51
-0.5025
-0.5145
-0.528
-0.5365
-0.5415
-0.534
-0.517
-0.5095
-0.495
-0.491
-0.4985
-0.5015
-0.495
-0.4845
-0.484
-0.497
-0.51
-0.5105
-0.5085
-0.5045
-0.4975
-0.486
-0.482
-0.4755
-0.4745
-0.478
-0.478
-0.488
-0.4785
-0.4705
-0.471
-0.471
-0.466
-0.461
-0.4895
-0.5035
-0.498
-0.4895
-0.4825
-0.4695
-0.4575
-0.456
-0.461
-0.474
-0.468
-0.4705
-0.4675
-0.467
-0.4775
-0.464
-0.452
-0.4535
-0.4485
-0.449
-0.4655
-0.4575
-0.4525
-0.4575
-0.4585
-0.4645
-0.4655
-0.471
-0.474
-0.4715
-0.47
-0.47
-0.47
-0.463
-0.455
-0.4535
-0.439
-0.42
-0.4195
-0.428
-0.433
-0.4345
-0.4335
-0.435
-0.433
-0.42
-0.3945
-0.389
-0.409
-0.413
-0.4175
-0.421
-0.4185
-0.416
-0.41
-0.4015
-0.3975
-0.403
-0.402
-0.406
-0.406
-0.4015
-0.4005
-0.3975
-0.4
-0.408
-0.4185
-0.4245
-0.4245
-0.428
-0.432
-0.432
-0.429
-0.4285
-0.438
-0.4545
-0.4655
-0.4645
-0.461
-0.4635
-0.463
-0.457
-0.464
-0.4765
-0.4895
-0.5005
-0.502
-0.5095
-0.518
-0.5235
-0.526
-0.532
-0.535
-0.5275
-0.5275
-0.523
-0.5335
-0.56
-0.5535
-0.54
-0.5325
-0.529
-0.537
-0.541
-0.547
-0.549
-0.555
-0.5585
-0.552
-0.551
-0.5495
-0.5495
-0.546
-0.544
-0.5495
-0.5545
-0.5575
-0.561
-0.565
-0.562
-0.5575
-0.549
-0.548
-0.553
-0.5575
-0.5505
-0.54
-0.5535
-0.5595
-0.5495
-0.5395
-0.538
-0.533
-0.5395
-0.5625
-0.574
-0.5795
-0.57
-0.564
-0.5665
-0.561
-0.5455
-0.548
-0.574
-0.577
-0.564
-0.545
-0.546
-0.5635
-0.578
-0.5925
-0.582
-0.568
-0.564
-0.569
-0.574
-0.574
-0.577
-0.572
-0.5615
-0.552
-0.5545
-0.5755
-0.591
-0.5935
-0.596
-0.5885
-0.5825
-0.5805
-0.575
-0.5895
-0.6175
-0.649
-0.6675
-0.6825
-0.699
-0.7035
-0.6965
-0.6845
-0.6835
-0.6695
-0.6575
-0.645
-0.6255
-0.604
-0.5825
-0.566
-0.535
-0.503
-0.4505
-0.3905
-0.3435
-0.277
-0.215
-0.154
-0.084
-0.0325
0.0355
0.082
0.1055
0.127
0.1315
0.1285
0.0835
0.041
0.015
-0.0195
-0.061
-0.091
-0.096
-0.111
-0.1235
-0.113
-0.0915
-0.0895
-0.0845
-0.061
-0.051
-0.0515
-0.0735
-0.0935
-0.1075
-0.1495
-0.1825
-0.1985
-0.2175
-0.2385
-0.262
-0.2695
-0.2795
-0.2965
-0.307
-0.324
-0.333
-0.3465
-0.377
-0.4015
-0.4295
-0.4555
-0.467
-0.4785
-0.4845
-0.4925
-0.5055
-0.5185
-0.528
-0.5275
-0.556
-0.5625
-0.5515
-0.563
-0.558
-0.562
-0.568
-0.5675
-0.566
-0.5725
-0.5895
-0.5925
-0.5965
-0.6055
-0.6075
-0.605
-0.598
-0.5905
-0.577
-0.583
-0.6055
-0.6015
-0.6
-0.615
-0.625
-0.626
-0.6255
-0.6235
-0.6155
-0.613
-0.6095
-0.6065
-0.6025
-0.598
-0.5995
-0.586
-0.5855
-0.605
-0.619
-0.625
-0.6165
-0.613
-0.609
-0.606
-0.6105
-0.614
-0.606
-0.591
-0.6005
-0.612
-0.6065
-0.585
-0.582
-0.6055
-0.6185
-0.6195
-0.613
-0.605
-0.6075
-0.629
-0.6335
-0.6235
-0.6105
-0.609
-0.6225
-0.624
-0.6265
-0.625
-0.624
-0.623
-0.619
-0.614
-0.6105
-0.605
-0.6035
-0.6165
-0.617
-0.619
-0.622
-0.6265
-0.6295
-0.62
-0.612
-0.612
-0.621
-0.6265
-0.6295
-0.6305
-0.6285
-0.6255
-0.628
-0.6335
-0.633
-0.6355
-0.6405
-0.653
-0.6605
-0.6515
-0.6435
-0.6455
-0.6485
-0.65
-0.6505
-0.6475
-0.645
-0.6475
-0.6475
-0.6445
-0.6535
-0.6595
-0.671
-0.688
-0.69
-0.684
-0.672
-0.668
-0.6705
-0.6745
-0.6645
-0.659
-0.6765
-0.685
-0.685
-0.6885
-0.6935
-0.6945
-0.6935
-0.693
-0.7
-0.7065
-0.7145
-0.7225
-0.729
-0.736
-0.7375
-0.745
-0.7555
-0.7565
-0.757
-0.765
-0.7755
-0.7795
-0.781
-0.788
-0.7915
-0.7925
-0.793
-0.8065
-0.8245
-0.828
-0.8325
-0.8325
-0.8315
-0.834
-0.8405
-0.845
-0.85
-0.86
-0.8655
-0.88
-0.8795
-0.8645
-0.881
-0.905
-0.8985
-0.8885
-0.894
-0.8975
-0.8925
-0.9035
-0.9145
-0.915
-0.9225
-0.9295
-0.931
-0.929
-0.9335
-0.9365
-0.9385
-0.9425
-0.9515
-0.966
-0.9595
-0.9495
-0.939
-0.938
-0.933
-0.915
-0.926
-0.9465
-0.955
-0.95
-0.9435
-0.946
-0.937
-0.924
-0.92
-0.9235
-0.927
-0.919
-0.915
-0.922
-0.9175
-0.905
-0.8995
-0.891
-0.8815
-0.88
-0.879
-0.881
-0.881
-0.873
-0.863
-0.857
-0.8525
-0.8515
-0.8505
-0.8435
-0.8295
-0.8205
-0.814
-0.808
-0.8045
-0.7955
-0.787
-0.775
-0.773
-0.7715
-0.756
-0.745
-0.744
-0.7405
-0.731
-0.727
-0.7225
-0.724
-0.728
-0.722
-0.704
-0.6945
-0.6915
-0.686
-0.6825
-0.679
-0.6775
-0.6675
-0.666
-0.66
-0.6425
-0.633
-0.6285
-0.638
-0.636
-0.637
-0.6345
-0.622
-0.621
-0.6245
-0.6235
-0.6165
-0.616
-0.626
-0.6315
-0.6205
-0.61
-0.593
-0.5875
-0.603
-0.601
-0.5915
-0.613
-0.6165
-0.6095
-0.6145
-0.5865
-0.59
-0.609
-0.5995
-0.585
-0.5795
-0.5965
-0.5935
-0.581
-0.5905
-0.5915
-0.5835
-0.5765
-0.573
-0.576
-0.5835
-0.5905
-0.5915
-0.5855
-0.583
-0.5835
-0.5905
-0.598
-0.5915
-0.597
-0.597
-0.579
-0.561
-0.545
-0.5515
-0.562
-0.561
-0.564
-0.5565
-0.5595
-0.574
-0.5715
-0.5615
-0.5615
-0.5595
-0.5465
-0.541
-0.5345
-0.537
-0.5555
-0.56
-0.5555
-0.555
-0.5525
-0.5485
-0.5435
-0.5405
-0.53
-0.5175
-0.512
-0.521
-0.5415
-0.542
-0.5355
-0.5385
-0.545
-0.549
-0.5585
-0.561
-0.5475
-0.538
-0.544
-0.537
-0.524
-0.5345
-0.5335
-0.5245
-0.5185
-0.5145
-0.514
-0.51
-0.511
-0.517
-0.51
-0.494
-0.497
-0.495
-0.491
-0.503
-0.4985
-0.482
-0.4765
-0.4885
-0.486
-0.482
-0.485
-0.481
-0.4635
-0.447
-0.4625
-0.4765
-0.478
-0.473
-0.481
-0.4905
-0.4705
-0.4605
-0.4725
-0.4755
-0.4675
-0.4715
-0.476
-0.4785
-0.491
-0.4795
-0.491
-0.5115
-0.5075
-0.5155
-0.5085
-0.498
-0.5055
-0.507
-0.505
-0.513
-0.523
-0.5305
-0.546
-0.56
-0.566
-0.569
-0.564
-0.564
-0.569
-0.5755
-0.571
-0.562
-0.571
-0.575
-0.581
-0.587
-0.589
-0.6015
-0.597
-0.585
-0.588
-0.5925
-0.592
-0.59
-0.5885
-0.593
-0.587
-0.5725
-0.571
-0.5765
-0.574
-0.569
-0.5725
-0.5835
-0.575
-0.577
-0.597
-0.5945
-0.5925
-0.5905
-0.5925
-0.5985
-0.587
-0.587
-0.5945
-0.5885
-0.587
-0.5875
-0.588
-0.596
-0.6
-0.5935
-0.6055
-0.592
-0.546
-0.561
-0.594
-0.596
-0.593
-0.5895
-0.5865
-0.5835
-0.5825
-0.5855
-0.59
-0.589
-0.589
-0.594
-0.5855
-0.576
-0.594
-0.6065
-0.601
-0.599
-0.6015
-0.603
-0.6035
-0.613
-0.613
-0.6035
-0.6105
-0.6145
-0.596
-0.588
-0.5925
-0.595
-0.5975
-0.5975
-0.5895
-0.6025
-0.6325
-0.6485
-0.6665
-0.681
-0.6925
-0.695
-0.6995
-0.708
-0.7035
-0.7075
-0.6925
-0.656
-0.6525
-0.6475
-0.6185
-0.5885
-0.552
-0.521
-0.49
-0.434
-0.375
-0.309
-0.232
-0.1665
-0.1165
-0.078
-0.0255
0.029
0.09
0.1275
0.119
0.1175
0.1175
0.076
0.011
-0.032
-0.057
-0.08
-0.116
-0.141
-0.157
-0.1545
-0.1385
-0.133
-0.1325
-0.1435
-0.134
-0.1365
-0.1555
-0.167
-0.1785
-0.182
-0.2135
-0.24
-0.244
-0.264
-0.288
-0.2935
-0.3135
-0.3495
-0.3625
-0.372
-0.3795
-0.386
-0.3925
-0.4075
-0.4295
-0.4505
-0.4835
-0.509
-0.5245
-0.548
-0.5655
-0.565
-0.5735
-0.5785
-0.5765
-0.5745
-0.573
-0.5875
-0.587
-0.596
-0.615
-0.621
-0.616
-0.6175
-0.629
-0.626
-0.618
-0.6175
-0.622
-0.617
-0.611
-0.6115
-0.605
-0.6245
-0.642
-0.629
-0.6335
-0.6465
-0.6625
-0.652
-0.6405
-0.651
-0.642
-0.632
-0.6305
-0.644
-0.654
-0.6515
-0.643
-0.631
-0.6245
-0.6255
-0.633
-0.641
-0.6535
-0.65
-0.6285
-0.622
-0.6385
-0.6475
-0.662
-0.661
-0.6445
-0.649
-0.6455
-0.644
-0.6445
-0.6465
-0.652
-0.644
-0.6505
-0.66
-0.6545
-0.648
-0.628
-0.62
-0.634
-0.652
-0.674
-0.6715
-0.662
-0.6685
-0.6695
-0.65
-0.614
-0.6265
-0.653
-0.6415
-0.649
-0.6595
-0.6455
-0.635
-0.6155
-0.602
-0.6175
-0.6175
-0.6405
-0.6755
-0.663
-0.6515
-0.6555
-0.667
-0.675
-0.677
-0.6715
-0.6545
-0.646
-0.648
-0.6595
-0.645
-0.624
-0.6305
-0.6405
-0.6635
-0.681
-0.681
-0.6755
-0.67
-0.6725
-0.678
-0.678
-0.658
-0.6645
-0.6755
-0.669
-0.6825
-0.683
-0.677
-0.6775
-0.6745
-0.669
-0.677
-0.6885
-0.693
-0.7015
-0.692
-0.6975
-0.7165
-0.719
-0.7205
-0.725
-0.7325
-0.7345
-0.7385
-0.7375
-0.7435
-0.7485
-0.7395
-0.739
-0.7265
-0.738
-0.7505
-0.748
-0.772
-0.77
-0.7775
-0.7985
-0.8045
-0.8135
-0.8135
-0.8225
-0.8305
-0.839
-0.835
-0.817
-0.8265
-0.8365
-0.848
-0.862
-0.858
-0.8595
-0.8585
-0.8535
-0.8605
-0.868
-0.8715
-0.882
-0.896
-0.9095
-0.908
-0.899
-0.914
-0.9225
-0.914
-0.913
-0.923
-0.9335
-0.942
-0.9415
-0.931
-0.9255
-0.926
-0.901
-0.8975
-0.9245
-0.9225
-0.9355
-0.9545
-0.9555
-0.96
-0.958
-0.9305
-0.931
-0.9495
-0.955
-0.97
-0.972
-0.962
-0.941
-0.9355
-0.959
-0.9585
-0.947
-0.9505
-0.9465
-0.947
-0.9365
-0.922
-0.921
-0.9065
-0.8925
-0.9
-0.906
-0.9005
-0.891
-0.89
-0.899
-0.8875
-0.872
-0.851
-0.829
-0.8445
-0.8435
-0.8365
-0.8415
-0.842
-0.8325
-0.802
-0.7765
-0.7685
-0.759
-0.7535
-0.7745
-0.775
-0.765
-0.765
-0.7475
-0.749
-0.75
-0.7355
-0.727
-0.717
-0.7125
-0.7065
-0.7075
-0.7095
-0.6915
-0.6765
-0.6645
-0.657
-0.659
-0.649
-0.646
-0.6585
-0.6615
-0.657
-0.6525
-0.6535
-0.6475
-0.653
-0.6485
-0.6425
-0.656
-0.647
-0.635
-0.621
-0.6045
-0.587
-0.5935
-0.6195
-0.6205
-0.633
-0.6275
-0.6215
-0.639
-0.635
-0.6275
-0.6225
-0.6275
-0.6215
-0.605
-0.6055
-0.6045
-0.607
-0.601
-0.5865
-0.5845
-0.602
-0.6085
-0.6
-0.6025
-0.603
-0.608
-0.6215
-0.618
-0.598
-0.603
-0.605
-0.6105
-0.6205
-0.602
-0.605
-0.6125
-0.6045
-0.5985
-0.5845
-0.5735
-0.5735
-0.5825
-0.592
-0.5745
-0.566
-0.569
-0.5675
-0.577
-0.579
-0.591
-0.6005
-0.6005
-0.5935
-0.583
-0.587
-0.595
-0.5845
-0.562
-0.566
-0.5675
-0.54
-0.5455
-0.5795
-0.5715
-0.558
-0.555
-0.544
-0.554
-0.562
-0.5565
-0.566
-0.5765
-0.5855
-0.5805
-0.564
-0.5805
-0.58
-0.549
-0.552
-0.569
-0.572
-0.562
-0.5565
-0.552
-0.533
-0.529
-0.531
-0.524
-0.528
-0.5195
-0.528
-0.545
-0.5335
-0.5125
-0.4965
-0.498
-0.4845
-0.493
-0.4965
-0.4905
-0.517
-0.524
-0.5235
-0.514
-0.5015
-0.497
-0.505
-0.52
-0.5105
-0.5
-0.5215
-0.5525
-0.5455
-0.54
-0.549
-0.5445
-0.5485
-0.5515
-0.537
-0.5315
-0.5435
-0.543
-0.538
-0.5455
-0.556
-0.5475
-0.547
-0.5855
-0.599
-0.5925
-0.606
-0.617
-0.612
-0.612
-0.622
-0.615
-0.5985
-0.6155
-0.6245
-0.6135
-0.608
-0.616
-0.6345
-0.61
-0.603
-0.6165
-0.6125
-0.6095
-0.602
-0.606
-0.6125
-0.619
-0.6215
-0.625
-0.623
-0.6215
-0.629
-0.616
-0.631
-0.6225
-0.601
-0.613
-0.605
-0.611
-0.6225
-0.6205
-0.621
-0.6275
-0.6395
-0.652
-0.646
-0.639
-0.652
-0.653
-0.652
-0.6445
-0.639
-0.624
-0.603
-0.639
-0.656
-0.642
-0.642
-0.6455
-0.65
-0.6575
-0.667
-0.6495
-0.6535
-0.6705
-0.6595
-0.6615
-0.6645
-0.655
-0.648
-0.642
-0.6365
-0.617
-0.6095
-0.6135
-0.623
-0.625
-0.6355
-0.668
-0.664
-0.6535
-0.655
-0.671
-0.67
-0.6545
-0.6475
-0.637
-0.633
-0.632
-0.6535
-0.6695
-0.6845
-0.699
-0.707
-0.7145
-0.714
-0.7375
-0.7345
-0.7335
-0.7505
-0.761
-0.7595
-0.73
-0.7375
-0.7285
-0.6915
-0.6675
-0.639
-0.601
-0.539
-0.5075
-0.4875
-0.4235
-0.3375
-0.2605
-0.206
-0.16
-0.109
-0.056
-0.014
0.0175
0.023
0.018
0.0
-0.047
-0.086
-0.1255
-0.1605
-0.1855
-0.2215
-0.2255
-0.2145
-0.248
-0.285
-0.28
-0.2735
-0.2855
-0.283
-0.276
-0.277
-0.298
-0.313
-0.2995
-0.3115
-0.3405
-0.364
-0.3835
-0.399
-0.399
-0.388
-0.3885
-0.4105
-0.415
-0.4305
-0.465
-0.458
-0.49
-0.537
-0.535
-0.531
-0.5555
-0.5745
-0.5845
-0.577
-0.563
-0.5785
-0.595
-0.6065
-0.635
-0.658
-0.651
-0.6525
-0.635
-0.6175
-0.6285
-0.6255
-0.6335
-0.652
-0.66
-0.661
-0.659
-0.6805
-0.688
-0.6665
-0.657
-0.683
-0.7075
-0.707
-0.703
-0.6915
-0.6845
-0.6705
-0.6585
-0.6575
-0.673
-0.6945
-0.692
-0.6905
-0.689
-0.6915
-0.6795
-0.6735
-0.6725
-0.665
-0.689
-0.686
-0.6725
-0.666
-0.6645
-0.6805
-0.693
-0.6785
-0.6665
-0.6775
-0.6785
-0.6805
-0.6785
-0.681
-0.6835
-0.6825
-0.6885
-0.696
-0.686
-0.6565
-0.6385
-0.6495
-0.66
-0.6605
-0.6675
-0.674
-0.676
-0.6605
-0.677
-0.692
-0.6845
-0.696
-0.6955
-0.6795
-0.6545
-0.663
-0.678
-0.6895
-0.6805
-0.654
-0.6615
-0.6525
-0.653
-0.6455
-0.6485
-0.6685
-0.664
-0.674
-0.6765
-0.673
-0.686
-0.6925
-0.6755
-0.6735
-0.6895
-0.679
-0.679
-0.686
-0.683
-0.6775
-0.6615
-0.667
-0.682
-0.6975
-0.704
-0.7055
-0.7095
-0.7035
-0.708
-0.698
-0.6815
-0.6765
-0.681
-0.6935
-0.696
-0.7195
-0.737
-0.725
-0.7115
-0.7235
-0.736
-0.7255
-0.716
-0.731
-0.7625
-0.753
-0.757
-0.764
-0.7345
-0.726
-0.717
-0.7115
-0.7415
-0.763
-0.7805
-0.7835
-0.764
-0.765
-0.7515
-0.763
-0.79
-0.776
-0.777
-0.8065
-0.8235
-0.817
-0.8115
-0.809
-0.814
-0.811
-0.804
-0.811
-0.8355
-0.831
-0.7945
-0.8275
-0.866
-0.866
-0.8815
-0.894
-0.8925
-0.88
-0.8825
-0.8925
-0.897
-0.896
-0.9065
-0.9235
-0.9235
-0.9215
-0.923
-0.916
-0.908
-0.9265
-0.9215
-0.895
-0.909
-0.9295
-0.931
-0.9625
-0.9835
-0.975
-0.973
-0.9705
-0.9825
-0.9805
-0.976
-0.971
-0.9765
-0.9985
-1.0005
-0.9935
-0.9785
-0.971
-0.9655
-0.9475
-0.954
-0.9705
-0.9715
-0.9865
-0.979
-0.962
-0.968
-0.9515
-0.9315
-0.9255
-0.928
-0.9125
-0.892
-0.8915
-0.897
-0.9035
-0.8785
-0.8635
-0.885
-0.8825
-0.8875
-0.9015
-0.894
-0.8795
-0.8655
-0.849
-0.8325
-0.827
-0.82
-0.8245
-0.842
-0.8345
-0.8285
-0.8215
-0.7965
-0.785
-0.768
-0.7675
-0.7695
-0.778
-0.796
-0.776
-0.761
-0.746
-0.7335
-0.7345
-0.7755
-0.795
-0.769
-0.744
-0.7165
-0.7165
-0.701
-0.711
-0.721
-0.7085
-0.717
-0.7055
-0.7095
-0.7265
-0.7335
-0.703
-0.661
-0.6675
-0.649
-0.655
-0.6825
-0.66
-0.647
-0.646
-0.649
-0.638
-0.615
-0.626
-0.635
-0.642
-0.6655
-0.6645
-0.66
-0.667
-0.6695
-0.664
-0.663
-0.6435
-0.616
-0.624
-0.6545
-0.6705
-0.646
-0.6185
-0.6205
-0.6275
-0.6255
-0.627
-0.6305
-0.6255
-0.626
-0.648
-0.664
-0.6485
-0.6505
-0.6585
-0.6505
-0.65
-0.6295
-0.623
-0.608
-0.588
-0.581
-0.578
-0.601
-0.604
-0.5885
-0.579
-0.586
-0.6075
-0.621
-0.6175
-0.596
-0.564
-0.5665
-0.579
-0.581
-0.586
-0.5775
-0.5815
-0.5905
-0.5935
-0.591
-0.571
-0.577
-0.5995
-0.6065
-0.616
-0.6235
-0.6085
-0.604
-0.618
-0.577
-0.5535
-0.5465
-0.5365
-0.571
-0.585
-0.592
-0.593
-0.588
-0.591
-0.596
-0.6045
-0.6015
-0.596
-0.5865
-0.5825
-0.571
-0.5385
-0.525
-0.5505
-0.576
-0.563
-0.559
-0.558
-0.561
-0.575
-0.556
-0.5295
-0.509
-0.5215
-0.548
-0.549
-0.5295
-0.5235
-0.5305
-0.5315
-0.523
-0.5225
-0.5315
-0.542
-0.5455
-0.5285
-0.5265
-0.528
-0.511
-0.494
-0.512
-0.545
-0.5485
-0.5545
-0.5645
-0.559
-0.5715
-0.5825
-0.582
-0.599
-0.602
-0.5905
-0.5875
-0.5855
-0.6045
-0.61
-0.5945
-0.5865
-0.573
-0.578
-0.5795
-0.594
-0.6225
-0.6285
-0.627
-0.614
-0.6235
-0.633
-0.6255
-0.632
-0.6295
-0.625
-0.6375
-0.6335
-0.6
-0.5825
-0.5995
-0.616
-0.621
-0.632
-0.6265
-0.618
-0.627
-0.627
-0.627
-0.6405
-0.634
-0.62
-0.6335
-0.6355
-0.6345
-0.6385
-0.634
-0.64
-0.6505
-0.6425
-0.6275
-0.6155
-0.614
-0.64
-0.649
-0.646
-0.641
-0.6555
-0.6635
-0.636
-0.6445
-0.645
-0.64
-0.635
-0.6365
-0.655
-0.6495
-0.639
-0.627
-0.6415
-0.656
-0.6485
-0.659
-0.6575
-0.628
-0.631
-0.657
-0.652
-0.6425
-0.6315
-0.6325
-0.6505
-0.6445
-0.6525
-0.6605
-0.642
-0.65
-0.6555
-0.655
-0.663
-0.6645
-0.6545
-0.6395
-0.655
-0.674
-0.6715
-0.665
-0.675
-0.691
-0.689
-0.6885
-0.711
-0.7365
-0.7395
-0.7585
-0.7645
-0.7475
-0.735
-0.7275
-0.7225
-0.698
-0.6665
-0.6285
-0.605
-0.593
-0.553
-0.4995
-0.454
-0.3965
-0.324
-0.273
-0.221
-0.1685
-0.135
-0.0865
-0.0675
-0.084
-0.066
-0.0435
-0.062
-0.093
-0.113
-0.152
-0.193
-0.2175
-0.254
-0.262
-0.2615
-0.2765
-0.2595
-0.253
-0.267
-0.2675
-0.2595
-0.2565
-0.2755
-0.3005
-0.2915
-0.3095
-0.36
-0.3635
-0.3735
-0.399
-0.4065
-0.412
-0.4125
-0.4065
-0.418
-0.4285
-0.4255
-0.425
-0.436
-0.48
-0.5095
-0.527
-0.558
-0.5715
-0.5655
-0.5705
-0.5825
-0.5815
-0.5925
-0.6005
-0.5885
-0.576
-0.5815
-0.611
-0.6315
-0.632
-0.619
-0.608
-0.6265
-0.645
-0.6535
-0.654
-0.6515
-0.648
-0.6425
-0.638
-0.6275
-0.627
-0.63
-0.64
-0.6395
-0.64
-0.654
-0.6525
-0.6465
-0.6545
-0.6635
-0.6645
-0.664
-0.661
-0.6665
-0.6675
-0.6635
-0.659
-0.653
-0.646
-0.6305
-0.621
-0.6295
-0.6425
-0.641
-0.647
-0.6515
-0.65
-0.658
-0.662
-0.659
-0.6465
-0.6335
-0.6325
-0.628
-0.622
-0.6355
-0.638
-0.631
-0.6325
-0.628
-0.6245
-0.633
-0.6405
-0.6495
-0.667
-0.672
-0.66
-0.648
-0.6405
-0.629
-0.631
-0.6445
-0.6505
-0.6625
-0.6625
-0.654
-0.6455
-0.637
-0.652
-0.6605
-0.6605
-0.663
-0.6605
-0.646
-0.6315
-0.638
-0.64
-0.6495
-0.651
-0.6455
-0.6565
-0.662
-0.6725
-0.6805
-0.68
-0.6765
-0.6715
-0.6715
-0.6735
-0.6745
-0.6665
-0.6585
-0.6655
-0.669
-0.6705
-0.6765
-0.6775
-0.682
-0.683
-0.6795
-0.674
-0.673
-0.673
-0.673
-0.673
-0.6755
-0.6775
-0.674
-0.6735
-0.675
-0.6745
-0.6775
-0.6845
-0.696
-0.705
-0.706
-0.709
-0.7105
-0.7055
-0.716
-0.7135
-0.7
-0.7105
-0.71
-0.7115
-0.7165
-0.722
-0.7475
-0.771
-0.7655
-0.7585
-0.7625
-0.767
-0.773
-0.7725
-0.7835
-0.8015
-0.7915
-0.7855
-0.8025
-0.811
-0.809
-0.7995
-0.8
-0.8095
-0.8195
-0.83
-0.8425
-0.856
-0.8615
-0.8535
-0.845
-0.8505
-0.859
-0.8615
-0.852
-0.857
-0.872
-0.875
-0.873
-0.878
-0.903
-0.909
-0.9055
-0.9145
-0.9
-0.8825
-0.8885
-0.904
-0.9185
-0.9225
-0.92
-0.917
-0.9105
-0.9095
-0.9135
-0.923
-0.914
-0.907
-0.928
-0.9405
-0.9435
-0.936
-0.938
-0.9445
-0.9295
-0.926
-0.933
-0.9345
-0.928
-0.9225
-0.919
-0.911
-0.909
-0.906
-0.8985
-0.8915
-0.8915
-0.887
-0.869
-0.8645
-0.851
-0.838
-0.872
-0.884
-0.8695
-0.8605
-0.856
-0.862
-0.84
-0.818
-0.8055
-0.791
-0.789
-0.7855
-0.777
-0.8035
-0.809
-0.777
-0.785
-0.7775
-0.757
-0.7525
-0.748
-0.7635
-0.761
-0.738
-0.7325
-0.714
-0.6965
-0.694
-0.6885
-0.685
-0.6685
-0.668
-0.691
-0.702
-0.704
-0.705
-0.6895
-0.678
-0.6735
-0.661
-0.658
-0.6665
-0.6605
-0.6425
-0.65
-0.6565
-0.6455
-0.6355
-0.639
-0.6325
-0.6135
-0.614
-0.6185
-0.6215
-0.623
-0.6185
-0.6225
-0.6255
-0.6175
-0.61
-0.6055
-0.605
-0.603
-0.6055
-0.607
-0.6015
-0.596
-0.6005
-0.606
-0.6085
-0.6015
-0.593
-0.5885
-0.59
-0.6015
-0.5955
-0.596
-0.5795
-0.569
-0.585
-0.5815
-0.5785
-0.5815
-0.5805
-0.5765
-0.573
-0.5695
-0.572
-0.573
-0.576
-0.569
-0.567
-0.5795
-0.58
-0.5725
-0.5545
-0.5445
-0.5425
-0.548
-0.5615
-0.57
-0.5745
-0.5695
-0.561
-0.559
-0.559
-0.552
-0.5515
-0.5485
-0.547
-0.551
-0.5425
-0.5385
-0.5455
-0.5555
-0.543
-0.524
-0.5295
-0.535
-0.519
-0.513
-0.527
-0.5535
-0.5745
-0.5705
-0.567
-0.5645
-0.564
-0.568
-0.573
-0.573
-0.5705
-0.5655
-0.5595
-0.544
-0.53
-0.5285
-0.5165
-0.518
-0.527
-0.522
-0.5115
-0.5005
-0.4935
-0.4975
-0.51
-0.511
-0.504
-0.5005
-0.4975
-0.4955
-0.485
-0.4875
-0.4995
-0.5015
-0.504
-0.4945
-0.488
-0.497
-0.4965
-0.4865
-0.4995
-0.5175
-0.5185
-0.507
-0.501
-0.507
-0.508
-0.4945
-0.4745
-0.4845
-0.4925
-0.4925
-0.5025
-0.5155
-0.5355
-0.5415
-0.538
-0.537
-0.546
-0.543
-0.5315
-0.5385
-0.5555
-0.56
-0.5495
-0.5575
-0.5845
-0.5895
-0.585
-0.575
-0.5625
-0.5745
-0.581
-0.591
-0.5995
-0.6025
-0.6115
-0.5925
-0.5795
-0.585
-0.587
-0.5845
-0.583
-0.5865
-0.5865
-0.6045
-0.6085
-0.6005
-0.6085
-0.607
-0.6145
-0.6085
-0.597
-0.5845
-0.5825
-0.615
-0.6295
-0.625
-0.6205
-0.609
-0.6065
-0.604
-0.588
-0.598
-0.617
-0.606
-0.5985
-0.6065
-0.605
-0.6055
-0.603
-0.6015
-0.6235
-0.624
-0.62
-0.6305
-0.63
-0.623
-0.6115
-0.6195
-0.624
-0.6215
-0.6335
-0.6315
-0.629
-0.6315
-0.627
-0.628
-0.633
-0.6345
-0.6345
-0.6325
-0.635
-0.6365
-0.6345
-0.6275
-0.61
-0.5985
-0.5915
-0.5955
-0.6125
-0.617
-0.6245
-0.632
-0.6245
-0.6195
-0.6165
-0.6325
-0.648
-0.66
-0.6795
-0.6925
-0.7055
-0.7095
-0.72
-0.7255
-0.7215
-0.7125
-0.6965
-0.6805
-0.669
-0.6545
-0.6255
-0.5975
-0.5715
-0.538
-0.4975
-0.4565
-0.404
-0.3375
-0.2715
-0.2135
-0.1645
-0.1195
-0.063
-0.0095
0.0345
0.0615
0.06
0.0595
0.042
0.0075
-0.0305
-0.0635
-0.0985
-0.131
-0.1405
-0.175
-0.212
-0.225
-0.2125
-0.201
-0.198
-0.198
-0.219
-0.2145
-0.2165
-0.2305
-0.2245
-0.234
-0.2615
-0.2825
-0.3055
-0.3275
-0.341
-0.356
-0.3605
-0.3715
-0.3825
-0.3805
-0.3865
-0.3925
-0.4055
-0.4275
-0.449
-0.4705
-0.472
-0.484
-0.537
-0.5635
-0.554
-0.5665
-0.5885
-0.5995
-0.6105
-0.6175
-0.604
-0.5905
-0.599
-0.593
-0.598
-0.6075
-0.6005
-0.613
-0.6095
-0.601
-0.6305
-0.6325
-0.62
-0.6255
-0.615
-0.6185
-0.6225
-0.6185
-0.629
-0.6325
-0.6355
-0.639
-0.6385
-0.645
-0.632
-0.616
-0.622
-0.619
-0.623
-0.6235
-0.5995
-0.605
-0.627
-0.638
-0.635
-0.6225
-0.6225
-0.6175
-0.61
-0.6225
-0.629
-0.623
-0.6185
-0.627
-0.63
-0.6105
-0.6255
-0.6415
-0.629
-0.629
-0.633
-0.635
-0.636
-0.637
-0.636
-0.64
-0.639
-0.632
-0.628
-0.6315
-0.639
-0.637
-0.631
-0.626
-0.625
-0.6245
-0.621
-0.625
-0.637
-0.642
-0.644
-0.625
-0.612
-0.616
-0.6185
-0.6315
-0.635
-0.636
-0.6445
-0.6425
-0.6385
-0.658
-0.649
-0.6225
-0.627
-0.641
-0.6515
-0.6375
-0.6335
-0.63
-0.628
-0.6375
-0.6465
-0.655
-0.6505
-0.6475
-0.6505
-0.659
-0.6615
-0.6565
-0.6535
-0.6525
-0.646
-0.6375
-0.655
-0.6705
-0.673
-0.6835
-0.6775
-0.663
-0.6585
-0.648
-0.6525
-0.671
-0.6755
-0.681
-0.688
-0.695
-0.7025
-0.7085
-0.71
-0.7005
-0.6915
-0.686
-0.6845
-0.6915
-0.7045
-0.71
-0.715
-0.726
-0.73
-0.7375
-0.736
-0.725
-0.7315
-0.7415
-0.7415
-0.7275
-0.736
-0.7575
-0.7665
-0.7805
-0.787
-0.789
-0.7895
-0.7935
-0.8
-0.8075
-0.8175
-0.817
-0.8095
-0.8145
-0.828
-0.8365
-0.847
-0.851
-0.848
-0.851
-0.8595
-0.871
-0.8765
-0.8775
-0.876
-0.8725
-0.87
-0.8845
-0.895
-0.8915
-0.8885
-0.8815
-0.897
-0.9135
-0.915
-0.9135
-0.912
-0.9155
-0.921
-0.922
-0.9205
-0.9245
-0.9365
-0.9475
-0.93
-0.9125
-0.907
-0.909
-0.9335
-0.9495
-0.9485
-0.9375
-0.93
-0.942
-0.933
-0.9175
-0.928
-0.918
-0.907
-0.9025
-0.896
-0.8955
-0.896
-0.895
-0.8875
-0.88
-0.8555
-0.8415
-0.8575
-0.8715
-0.879
-0.868
-0.8535
-0.853
-0.8425
-0.8305
-0.823
-0.815
-0.806
-0.794
-0.785
-0.787
-0.7935
-0.793
-0.779
-0.7575
-0.753
-0.7625
-0.767
-0.7585
-0.7375
-0.7185
-0.7195
-0.73
-0.735
-0.732
-0.721
-0.708
-0.6975
-0.6845
-0.677
-0.6765
-0.676
-0.676
-0.666
-0.6615
-0.654
-0.64
-0.6285
-0.625
-0.6325
-0.6405
-0.649
-0.645
-0.6375
-0.6275
-0.615
-0.607
-0.6055
-0.6075
-0.61
-0.615
-0.607
-0.6035
-0.6085
-0.612
-0.6135
-0.598
-0.5785
-0.579
-0.5845
-0.591
-0.598
-0.595
-0.591
-0.587
-0.589
-0.5945
-0.586
-0.573
-0.5715
-0.5815
-0.583
-0.5755
-0.574
-0.571
-0.574
-0.5865
-0.586
-0.5825
-0.579
-0.5695
-0.5655
-0.5645
-0.5695
-0.5675
-0.56
-0.552
-0.544
-0.562
-0.5625
-0.555
-0.5485
-0.539
-0.5585
-0.5675
-0.571
-0.5775
-0.5615
-0.5415
-0.548
-0.552
-0.5385
-0.5345
-0.543
-0.5515
-0.5465
-0.546
-0.5495
-0.5445
-0.5375
-0.539
-0.535
-0.52
-0.5225
-0.532
-0.5275
-0.5225
-0.529
-0.5365
-0.5295
-0.52
-0.5125
-0.5135
-0.527
-0.5345
-0.537
-0.5335
-0.526
-0.5245
-0.52
-0.5195
-0.5305
-0.5355
-0.5325
-0.524
-0.5175
-0.5175
-0.514
-0.505
-0.5035
-0.514
-0.511
-0.506
-0.501
-0.4895
-0.4885
-0.484
-0.48
-0.4785
-0.474
-0.4685
-0.459
-0.4625
-0.4735
-0.471
-0.4655
-0.467
-0.473
-0.47
-0.461
-0.458
-0.46
-0.4555
-0.453
-0.462
-0.468
-0.4745
-0.4715
-0.462
-0.461
-0.468
-0.4725
-0.4735
-0.4585
-0.445
-0.472
-0.4775
-0.476
-0.5025
-0.5085
-0.5095
-0.511
-0.502
-0.4945
-0.511
-0.531
-0.536
-0.5395
-0.5375
-0.5285
-0.5175
-0.535
-0.5545
-0.563
-0.5715
-0.5655
-0.569
-0.568
-0.5545
-0.5505
-0.548
-0.545
-0.55
-0.5545
-0.5665
-0.5775
-0.579
-0.579
-0.573
-0.5705
-0.572
-0.5805
-0.5865
-0.585
-0.581
-0.5735
-0.571
-0.5655
-0.564
-0.58
-0.58
-0.5765
-0.5835
-0.5815
-0.5725
-0.563
-0.5665
-0.5775
-0.568
-0.562
-0.564
-0.566
-0.5795
-0.5795
-0.568
-0.552
-0.5525
-0.561
-0.564
-0.569
-0.5715
-0.5815
-0.5835
-0.574
-0.568
-0.575
-0.578
-0.5745
-0.583
-0.5845
-0.5695
-0.566
-0.58
-0.5825
-0.5795
-0.583
-0.586
-0.5825
-0.5755
-0.567
-0.5515
-0.568
-0.587
-0.589
-0.589
-0.5725
-0.566
-0.564
-0.554
-0.557
-0.575
-0.593
-0.5935
-0.607
-0.636
-0.642
-0.6435
-0.6515
-0.648
-0.654
-0.673
-0.6715
-0.673
-0.6735
-0.653
-0.645
-0.638
-0.611
-0.5765
-0.5515
-0.523
-0.4915
-0.462
-0.4155
-0.354
-0.2775
-0.2075
-0.15
-0.0885
-0.0355
0.0145
0.0585
0.093
0.119
0.13
0.1245
0.104
0.0785
0.0375
-0.0175
-0.0575
-0.076
-0.1005
-0.1275
-0.138
-0.135
-0.116
-0.1105
-0.122
-0.109
-0.089
-0.0835
-0.0995
-0.1305
-0.1365
-0.155
-0.1975
-0.2175
-0.24
-0.2635
-0.2745
-0.2745
-0.274
-0.291
-0.3035
-0.321
-0.332
-0.3335
-0.3575
-0.38
-0.4005
-0.424
-0.4505
-0.469
-0.469
-0.4835
-0.4955
-0.506
-0.5275
-0.536
-0.544
-0.5575
-0.5595
-0.5515
-0.5645
-0.573
-0.5665
-0.5695
-0.5745
-0.5865
-0.5905
-0.587
-0.592
-0.5955
-0.596
-0.5945
-0.5975
-0.6015
-0.6035
-0.606
-0.6085
-0.607
-0.6075
-0.6035
-0.5975
-0.607
-0.61
-0.6175
-0.6185
-0.605
-0.6055
-0.613
-0.6225
-0.6315
-0.618
-0.596
-0.613
-0.6135
-0.591
-0.5925
-0.6105
-0.6155
-0.6085
-0.6135
-0.612
-0.613
-0.6185
-0.6175
-0.621
-0.625
-0.616
-0.601
-0.593
-0.594
-0.596
-0.6055
-0.618
-0.62
-0.6195
-0.621
-0.6225
-0.6195
-0.627
-0.6365
-0.6315
-0.6205
-0.618
-0.61
-0.6125
-0.6245
-0.622
-0.62
-0.6195
-0.621
-0.6255
-0.6405
-0.639
-0.6195
-0.631
-0.642
-0.6355
-0.6285
-0.6205
-0.6175
-0.612
-0.611
-0.6165
-0.6185
-0.631
-0.6235
-0.62
-0.642
-0.648
-0.6485
-0.653
-0.6515
-0.6465
-0.6435
-0.64
-0.637
-0.632
-0.6305
-0.633
-0.631
-0.627
-0.635
-0.6475
-0.6455
-0.6485
-0.6555
-0.6455
-0.6315
-0.6365
-0.6465
-0.6495
-0.6595
-0.67
-0.6735
-0.672
-0.6615
-0.6595
-0.664
-0.6715
-0.6815
-0.6895
-0.7005
-0.6905
-0.6815
-0.696
-0.709
-0.7155
-0.717
-0.7195
-0.709
-0.707
-0.713
-0.715
-0.741
-0.7575
-0.758
-0.7595
-0.756
-0.757
-0.752
-0.7535
-0.774
-0.7915
-0.799
-0.794
-0.793
-0.798
-0.791
-0.7885
-0.7965
-0.809
-0.817
-0.825
-0.832
-0.8315
-0.836
-0.843
-0.8445
-0.8485
-0.8515
-0.846
-0.853
-0.867
-0.877
-0.879
-0.8765
-0.8785
-0.882
-0.8885
-0.8915
-0.8945
-0.892
-0.901
-0.9215
-0.9235
-0.925
-0.9295
-0.929
-0.926
-0.9185
-0.9135
-0.906
-0.9015
-0.911
-0.912
-0.91
-0.9055
-0.896
-0.896
-0.909
-0.9205
-0.9105
-0.902
-0.898
-0.8965
-0.8965
-0.8965
-0.8925
-0.8905
-0.895
-0.8915
-0.887
-0.8785
-0.8695
-0.8645
-0.8555
-0.8495
-0.843
-0.839
-0.836
-0.8385
-0.843
-0.8345
-0.828
-0.819
-0.8175
-0.813
-0.796
-0.785
-0.776
-0.772
-0.7605
-0.756
-0.7485
-0.733
-0.726
-0.726
-0.714
-0.6945
-0.7155
-0.7245
-0.7085
-0.7055
-0.7
-0.687
-0.6735
-0.6785
-0.6915
-0.6815
-0.6655
-0.6645
-0.661
-0.6595
-0.6595
-0.6535
-0.6475
-0.647
-0.6465
-0.648
-0.639
-0.6345
-0.6325
-0.6095
-0.6075
-0.614
-0.612
-0.612
-0.598
-0.5925
-0.6005
-0.602
-0.6055
-0.605
-0.6005
-0.596
-0.5965
-0.593
-0.58
-0.5895
-0.584
-0.5645
-0.5695
-0.579
-0.5905
-0.585
-0.582
-0.5905
-0.573
-0.567
-0.565
-0.5535
-0.557
-0.5645
-0.5645
-0.559
-0.5625
-0.562
-0.561
-0.5615
-0.562
-0.562
-0.559
-0.5605
-0.556
-0.5525
-0.5555
-0.555
-0.5535
-0.5515
-0.546
-0.548
-0.5565
-0.5535
-0.544
-0.538
-0.538
-0.5305
-0.522
-0.528
-0.548
-0.5585
-0.5465
-0.54
-0.5345
-0.531
-0.5305
-0.522
-0.523
-0.528
-0.519
-0.515
-0.504
-0.5035
-0.5285
-0.537
-0.5315
-0.531
-0.532
-0.5145
-0.516
-0.528
-0.534
-0.5285
-0.5195
-0.5375
-0.541
-0.543
-0.541
-0.533
-0.522
-0.519
-0.524
-0.518
-0.5225
-0.519
-0.519
-0.5055
-0.492
-0.494
-0.494
-0.4935
-0.483
-0.481
-0.4865
-0.491
-0.4935
-0.487
-0.4845
-0.487
-0.492
-0.4915
-0.4745
-0.464
-0.465
-0.4625
-0.4675
-0.4755
-0.4775
-0.4755
-0.473
-0.4695
-0.4695
-0.4695
-0.477
-0.4885
-0.488
-0.483
-0.489
-0.4955
-0.4995
-0.5115
-0.5155
-0.514
-0.511
-0.504
-0.5
-0.5
-0.5065
-0.5145
-0.5125
-0.5135
-0.5305
-0.5415
-0.5445
-0.543
-0.541
-0.55
-0.565
-0.5765
-0.5745
-0.5715
-0.5735
-0.573
-0.574
-0.575
-0.5755
-0.579
-0.5765
-0.5805
-0.5795
-0.5665
-0.578
-0.5965
-0.599
-0.5945
-0.591
-0.5975
-0.598
-0.5895
-0.596
-0.5945
-0.591
-0.589
-0.5795
-0.5855
-0.5815
-0.5815
-0.595
-0.601
-0.602
-0.6
-0.6055
-0.611
-0.613
-0.6065
-0.594
-0.5985
-0.6115
-0.6065
-0.607
-0.6035
-0.584
-0.587
-0.597
-0.593
-0.5955
-0.6025
-0.61
-0.616
-0.6145
-0.613
-0.61
-0.603
-0.6005
-0.596
-0.5955
-0.5965
-0.598
-0.603
-0.6035
-0.598
-0.585
-0.596
-0.613
-0.608
-0.6125
-0.623
-0.6215
-0.6195
-0.6185
-0.6245
-0.6235
-0.603
-0.6085
-0.6125
-0.5955
-0.594
-0.5815
-0.5885
-0.624
-0.645
-0.6565
-0.671
-0.684
-0.689
-0.698
-0.7045
-0.712
-0.7125
-0.7055
-0.699
-0.693
-0.689
-0.6665
-0.6285
-0.6
-0.5855
-0.5645
-0.537
-0.4925
-0.425
-0.3705
-0.3165
-0.246
-0.1885
-0.1155
-0.046
0.0
0.0485
0.087
0.1095
0.1215
0.1225
0.1
0.0705
0.041
0.0105
-0.021
-0.07
-0.105
-0.119
-0.1285
-0.1295
-0.1165
-0.11
-0.131
-0.1215
-0.093
-0.1015
-0.1245
-0.147
-0.1565
-0.1655
-0.1985
-0.2225
-0.239
-0.2615
-0.2795
-0.3
-0.3055
-0.3115
-0.3255
-0.3405
-0.368
-0.387
-0.4025
-0.409
-0.431
-0.463
-0.477
-0.494
-0.506
-0.53
-0.5565
-0.573
-0.5755
-0.57
-0.569
-0.5705
-0.587
-0.6005
-0.599
-0.6085
-0.627
-0.6265
-0.622
-0.622
-0.633
-0.6395
-0.632
-0.631
-0.634
-0.642
-0.645
-0.6415
-0.6405
-0.6355
-0.631
-0.641
-0.637
-0.616
-0.627
-0.648
-0.6535
-0.6545
-0.6565
-0.6535
-0.6525
-0.6505
-0.642
-0.65
-0.659
-0.666
-0.6535
-0.627
-0.629
-0.638
-0.642
-0.6465
-0.6425
-0.642
-0.6415
-0.6395
-0.652
-0.655
-0.6495
-0.6445
-0.6395
-0.633
-0.6295
-0.6375
-0.643
-0.641
-0.637
-0.6395
-0.638
-0.632
-0.633
-0.639
-0.638
-0.643
-0.6535
-0.6485
-0.643
-0.6375
-0.6425
-0.64
-0.636
-0.649
-0.6665
-0.6655
-0.6415
-0.6465
-0.644
-0.626
-0.6195
-0.6165
-0.6265
-0.6375
-0.6505
-0.6635
-0.6675
-0.674
-0.674
-0.656
-0.645
-0.647
-0.6435
-0.6365
-0.651
-0.667
-0.6645
-0.6595
-0.659
-0.664
-0.662
-0.6605
-0.655
-0.649
-0.6525
-0.656
-0.661
-0.655
-0.656
-0.6665
-0.677
-0.684
-0.681
-0.6775
-0.678
-0.6755
-0.6655
-0.6635
-0.674
-0.6825
-0.6795
-0.6785
-0.681
-0.682
-0.686
-0.6935
-0.702
-0.7155
-0.726
-0.73
-0.729
-0.7225
-0.716
-0.7175
-0.729
-0.7345
-0.739
-0.741
-0.7465
-0.749
-0.757
-0.768
-0.777
-0.8
-0.8015
-0.797
-0.8005
-0.8015
-0.8085
-0.8145
-0.8245
-0.842
-0.8535
-0.857
-0.8545
-0.8575
-0.86
-0.865
-0.879
-0.88
-0.879
-0.8855
-0.8825
-0.885
-0.9
-0.8925
-0.886
-0.896
-0.898
-0.9145
-0.923
-0.928
-0.942
-0.935
-0.9345
-0.9435
-0.9515
-0.9545
-0.947
-0.953
-0.97
-0.9715
-0.974
-0.976
-0.9715
-0.972
-0.9525
-0.9525
-0.976
-0.978
-0.9745
-0.9665
-0.9565
-0.9605
-0.966
-0.97
-0.969
-0.9645
-0.951
-0.941
-0.954
-0.935
-0.919
-0.9415
-0.944
-0.9385
-0.9325
-0.93
-0.9255
-0.917
-0.9185
-0.9115
-0.896
-0.882
-0.876
-0.885
-0.8965
-0.887
-0.873
-0.8715
-0.868
-0.8565
-0.836
-0.82
-0.8205
-0.8235
-0.8175
-0.8055
-0.794
-0.785
-0.779
-0.7745
-0.7745
-0.7845
-0.778
-0.763
-0.758
-0.7515
-0.7455
-0.736
-0.7255
-0.72
-0.7115
-0.7115
-0.7125
-0.705
-0.699
-0.689
-0.6725
-0.6685
-0.6825
-0.68
-0.6785
-0.6765
-0.6695
-0.682
-0.6815
-0.6725
-0.6635
-0.6585
-0.6475
-0.6325
-0.626
-0.6205
-0.6295
-0.634
-0.64
-0.646
-0.6495
-0.648
-0.631
-0.6205
-0.623
-0.6335
-0.6325
-0.635
-0.639
-0.6325
-0.6215
-0.6135
-0.6005
-0.58
-0.603
-0.6275
-0.6305
-0.639
-0.641
-0.6415
-0.637
-0.64
-0.637
-0.618
-0.6105
-0.6185
-0.6245
-0.611
-0.5995
-0.609
-0.614
-0.6055
-0.5945
-0.5975
-0.612
-0.61
-0.6015
-0.5945
-0.588
-0.577
-0.567
-0.5825
-0.5915
-0.591
-0.593
-0.59
-0.5945
-0.603
-0.6055
-0.613
-0.602
-0.583
-0.585
-0.5935
-0.5975
-0.582
-0.5865
-0.6025
-0.5955
-0.5905
-0.584
-0.5735
-0.565
-0.563
-0.551
-0.5485
-0.564
-0.573
-0.581
-0.5855
-0.5785
-0.5825
-0.585
-0.572
-0.583
-0.585
-0.5745
-0.57
-0.554
-0.5545
-0.5615
-0.5555
-0.5575
-0.5675
-0.577
-0.558
-0.5265
-0.5335
-0.5425
-0.543
-0.537
-0.528
-0.52
-0.5055
-0.4895
-0.502
-0.527
-0.521
-0.5075
-0.51
-0.526
-0.536
-0.5385
-0.5195
-0.505
-0.529
-0.5455
-0.5475
-0.553
-0.5555
-0.5405
-0.5185
-0.5155
-0.5095
-0.5075
-0.5095
-0.5245
-0.528
-0.516
-0.538
-0.541
-0.547
-0.5475
-0.5405
-0.5695
-0.589
-0.5795
-0.58
-0.591
-0.5885
-0.5895
-0.576
-0.597
-0.621
-0.615
-0.621
-0.621
-0.6265
-0.6355
-0.6545
-0.645
-0.634
-0.642
-0.6205
-0.608
-0.6005
-0.608
-0.6225
-0.626
-0.627
-0.63
-0.6325
-0.634
-0.622
-0.6055
-0.62
-0.6345
-0.645
-0.645
-0.636
-0.623
-0.631
-0.637
-0.62
-0.626
-0.6315
-0.641
-0.6595
-0.654
-0.6445
-0.651
-0.6475
-0.6455
-0.652
-0.6505
-0.648
-0.6475
-0.651
-0.6465
-0.637
-0.625
-0.627
-0.649
-0.672
-0.6655
-0.6325
-0.639
-0.651
-0.649
-0.6425
-0.639
-0.6455
-0.6455
-0.654
-0.653
-0.661
-0.659
-0.649
-0.661
-0.6595
-0.666
-0.6925
-0.6945
-0.671
-0.66
-0.65
-0.646
-0.65
-0.658
-0.6735
-0.671
-0.675
-0.665
-0.6415
-0.6265
-0.6215
-0.626
-0.6235
-0.6405
-0.658
-0.6565
-0.662
-0.6805
-0.7005
-0.7075
-0.716
-0.7195
-0.74
-0.7705
-0.789
-0.7775
-0.741
-0.724
-0.716
-0.7005
-0.6645
-0.6145
-0.544
-0.499
-0.491
-0.459
-0.418
-0.3585
-0.2835
-0.215
-0.1455
-0.087
-0.039
-0.0025
0.0255
0.0555
0.081
0.0835
0.0445
-0.0195
-0.076
-0.1115
-0.1495
-0.1925
-0.214
-0.2245
-0.227
-0.215
-0.206
-0.2035
-0.207
-0.192
-0.1865
-0.225
-0.2345
-0.239
-0.2545
-0.257
-0.287
-0.324
-0.353
-0.3585
-0.355
-0.364
-0.369
-0.3655
-0.3705
-0.396
-0.4055
-0.4075
-0.425
-0.4455
-0.458
-0.481
-0.5265
-0.551
-0.547
-0.5515
-0.5435
-0.5355
-0.5635
-0.575
-0.581
-0.599
-0.605
-0.598
-0.6055
-0.6265
-0.638
-0.647
-0.639
-0.637
-0.6405
-0.635
-0.6455
-0.6565
-0.6515
-0.646
-0.6325
-0.611
-0.626
-0.6415
-0.6255
-0.6225
-0.6265
-0.633
-0.659
-0.6895
-0.6915
-0.6735
-0.6635
-0.655
-0.643
-0.6345
-0.657
-0.6645
-0.6535
-0.651
-0.649
-0.6645
-0.6675
-0.655
-0.6545
-0.67
-0.68
-0.6735
-0.667
-0.662
-0.641
-0.647
-0.6485
-0.643
-0.6485
-0.64
-0.6595
-0.643
-0.623
-0.639
-0.637
-0.6295
-0.638
-0.651
-0.6445
-0.6385
-0.6425
-0.652
-0.6575
-0.637
-0.621
-0.6225
-0.6285
-0.644
-0.6575
-0.6555
-0.6585
-0.678
-0.672
-0.6675
-0.6535
-0.631
-0.6405
-0.645
-0.6395
-0.6425
-0.6555
-0.655
-0.643
-0.6365
-0.6415
-0.649
-0.6575
-0.66
-0.6495
-0.64
-0.6455
-0.649
-0.6485
-0.665
-0.6675
-0.6585
-0.6595
-0.6565
-0.665
-0.6705
-0.675
-0.691
-0.688
-0.695
-0.701
-0.685
-0.6865
-0.6865
-0.6815
-0.6905
-0.7055
-0.696
-0.6815
-0.6985
-0.702
-0.693
-0.6865
-0.6875
-0.7075
-0.715
-0.7075
-0.717
-0.732
-0.7275
-0.7175
-0.7035
-0.702
-0.723
-0.722
-0.7055
-0.7265
-0.7635
-0.7625
-0.7455
-0.759
-0.7795
-0.778
-0.7775
-0.771
-0.786
-0.797
-0.79
-0.7935
-0.79
-0.8095
-0.8155
-0.8105
-0.8255
-0.8405
-0.8435
-0.842
-0.8535
-0.868
-0.8955
-0.902
-0.8955
-0.8925
-0.883
-0.8765
-0.8695
-0.882
-0.8935
-0.886
-0.892
-0.904
-0.911
-0.9185
-0.9215
-0.914
-0.92
-0.9505
-0.965
-0.9535
-0.944
-0.9535
-0.9515
-0.946
-0.9485
-0.932
-0.9365
-0.9515
-0.9405
-0.953
-0.9715
-0.9595
-0.9615
-0.9765
-0.9795
-0.9805
-0.951
-0.938
-0.955
-0.932
-0.9255
-0.9495
-0.9555
-0.948
-0.941
-0.95
-0.9555
-0.946
-0.941
-0.9355
-0.923
-0.9185
-0.9125
-0.912
-0.9135
-0.878
-0.8585
-0.8735
-0.868
-0.8545
-0.8615
-0.8585
-0.8445
-0.8575
-0.8415
-0.819
-0.824
-0.807
-0.789
-0.7755
-0.7685
-0.7725
-0.7805
-0.789
-0.788
-0.777
-0.7625
-0.7385
-0.732
-0.7615
-0.751
-0.7345
-0.732
-0.7275
-0.7265
-0.724
-0.746
-0.734
-0.6995
-0.68
-0.6645
-0.658
-0.664
-0.688
-0.682
-0.6645
-0.678
-0.671
-0.6445
-0.642
-0.6345
-0.6295
-0.644
-0.655
-0.6545
-0.6395
-0.6355
-0.6165
-0.6065
-0.6295
-0.63
-0.6235
-0.6185
-0.62
-0.637
-0.6285
-0.6065
-0.6155
-0.627
-0.6315
-0.634
-0.63
-0.6125
-0.604
-0.598
-0.589
-0.6065
-0.6025
-0.602
-0.605
-0.59
-0.5985
-0.603
-0.592
-0.5945
-0.5795
-0.5825
-0.608
-0.619
-0.612
-0.5975
-0.6035
-0.598
-0.5995
-0.588
-0.5505
-0.54
-0.5605
-0.5625
-0.555
-0.5575
-0.5515
-0.5655
-0.5805
-0.5905
-0.5825
-0.569
-0.5725
-0.5745
-0.5695
-0.5715
-0.5635
-0.5415
-0.541
-0.551
-0.553
-0.5525
-0.5565
-0.5525
-0.5415
-0.535
-0.5395
-0.5295
-0.522
-0.546
-0.5545
-0.553
-0.5525
-0.5565
-0.562
-0.55
-0.5555
-0.5505
-0.555
-0.591
-0.566
-0.539
-0.536
-0.5375
-0.548
-0.5285
-0.5225
-0.5245
-0.5305
-0.538
-0.5325
-0.524
-0.5135
-0.5165
-0.5205
-0.523
-0.522
-0.5045
-0.4975
-0.5
-0.493
-0.493
-0.487
-0.4795
-0.489
-0.4915
-0.4695
-0.477
-0.498
-0.481
-0.4855
-0.503
-0.495
-0.4895
-0.4985
-0.4905
-0.471
-0.488
-0.5025
-0.514
-0.532
-0.5325
-0.553
-0.55
-0.5445
-0.5395
-0.5285
-0.536
-0.5155
-0.511
-0.519
-0.521
-0.5185
-0.531
-0.554
-0.5535
-0.5565
-0.5715
-0.574
-0.5585
-0.572
-0.592
-0.5845
-0.58
-0.5915
-0.5965
-0.591
-0.5775
-0.567
-0.5745
-0.586
-0.598
-0.6015
-0.595
-0.5955
-0.6
-0.59
-0.58
-0.576
-0.5795
-0.578
-0.5735
-0.5875
-0.5965
-0.592
-0.582
-0.574
-0.5685
-0.5605
-0.569
-0.603
-0.6215
-0.607
-0.611
-0.617
-0.5885
-0.5775
-0.585
-0.593
-0.595
