ECG
-0.3215
-0.3255
-0.324
-0.324
-0.3215
-0.319
-0.3155
-0.313
-0.315
-0.316
-0.3145
-0.3145
-0.311
-0.3095
-0.311
-0.31
-0.311
-0.3115
-0.3075
-0.304
-0.306
-0.3065
-0.304
-0.3035
-0.303
-0.297
-0.295
-0.297
-0.2935
-0.289
-0.285
-0.2845
-0.2815
-0.275
-0.2715
-0.264
-0.262
-0.2635
-0.2555
-0.2525
-0.258
-0.259
-0.2555
-0.2505
-0.2425
-0.24
-0.244
-0.247
-0.2485
-0.2475
-0.249
-0.253
-0.2515
-0.249
-0.2505
-0.251
-0.2535
-0.259
-0.2635
-0.2685
-0.2735
-0.2765
-0.275
-0.2775
-0.285
-0.2875
-0.2945
-0.302
-0.307
-0.31
-0.3105
-0.3125
-0.3145
-0.316
-0.3175
-0.3205
-0.3225
-0.3215
-0.321
-0.3225
-0.3245
-0.328
-0.3315
-0.3315
-0.331
-0.331
-0.332
-0.332
-0.334
-0.3365
-0.3335
-0.333
-0.335
-0.3375
-0.3385
-0.337
-0.338
-0.3395
-0.3415
-0.342
-0.3445
-0.345
-0.342
-0.3455
-0.3495
-0.348
-0.346
-0.347
-0.3485
-0.346
-0.3445
-0.347
-0.348
-0.3475
-0.347
-0.3425
-0.346
-0.349
-0.3475
-0.3475
-0.345
-0.3435
-0.3435
-0.346
-0.347
-0.347
-0.3475
-0.3455
-0.3425
-0.34
-0.339
-0.3415
-0.342
-0.3485
-0.3535
-0.3505
-0.349
-0.3495
-0.3535
-0.3555
-0.3545
-0.36
-0.3675
-0.3735
-0.38
-0.389
-0.4
-0.4085
-0.4185
-0.4295
-0.439
-0.4435
-0.4465
-0.439
-0.4175
-0.4005
-0.3795
-0.3535
-0.3155
-0.2705
-0.228
-0.17
-0.095
-0.02
0.0455
0.1115
0.185
0.2535
0.318
0.3795
0.443
0.4965
0.531
0.5625
0.5895
0.626
0.665
0.693
0.7145
0.699
0.6605
0.619
0.5655
0.52
0.477
0.4235
0.3585
0.292
0.214
0.1275
0.045
-0.0355
-0.0785
-0.1005
-0.1275
-0.146
-0.155
-0.1615
-0.1665
-0.1685
-0.1745
-0.183
-0.192
-0.195
-0.1985
-0.2015
-0.205
-0.209
-0.2125
-0.2225
-0.229
-0.2375
-0.2465
-0.252
-0.261
-0.265
-0.27
-0.276
-0.2775
-0.28
-0.283
-0.284
-0.2885
-0.2915
-0.2955
-0.3025
-0.3
-0.2995
-0.3035
-0.3055
-0.3055
-0.31
-0.312
-0.3095
-0.3105
-0.312
-0.312
-0.3115
-0.315
-0.315
-0.3155
-0.318
-0.316
-0.3165
-0.314
-0.313
-0.3165
-0.316
-0.317
-0.3175
-0.3155
-0.317
-0.316
-0.3145
-0.3145
-0.314
-0.3155
-0.316
-0.3175
-0.322
-0.322
-0.321
-0.322
-0.3225
-0.321
-0.318
-0.322
-0.3235
-0.3225
-0.3225
-0.318
-0.317
-0.3175
-0.3155
-0.317
-0.3185
-0.3195
-0.318
-0.317
-0.32
-0.319
-0.3185
-0.3185
-0.3165
-0.3165
-0.3145
-0.312
-0.3115
-0.3125
-0.313
-0.3125
-0.3115
-0.3135
-0.315
-0.3125
-0.312
-0.311
-0.3125
-0.3125
-0.312
-0.3125
-0.3115
-0.3095
-0.3065
-0.308
-0.3095
-0.311
-0.3125
-0.3105
-0.3105
-0.31
-0.3095
-0.311
-0.31
-0.3075
-0.3055
-0.3015
-0.302
-0.3025
-0.304
-0.301
-0.299
-0.3055
-0.309
-0.31
-0.3095
-0.306
-0.3045
-0.301
-0.2985
-0.3005
-0.3005
-0.3
-0.301
-0.3
-0.301
-0.301
-0.2945
-0.2895
-0.292
-0.2925
-0.29
-0.289
-0.2915
-0.2915
-0.2885
-0.2875
-0.289
-0.2895
-0.289
-0.288
-0.286
-0.2875
-0.29
-0.289
-0.2855
-0.2835
-0.289
-0.2895
-0.286
-0.2875
-0.2855
-0.2845
-0.284
-0.284
-0.285
-0.282
-0.282
-0.281
-0.279
-0.2795
-0.2795
-0.2775
-0.2735
-0.2755
-0.2735
-0.273
-0.2745
-0.272
-0.2705
-0.2705
-0.27
-0.265
-0.264
-0.2615
-0.259
-0.2585
-0.258
-0.2585
-0.2545
-0.2515
-0.2495
-0.25
-0.2505
-0.2505
-0.248
-0.247
-0.248
-0.2415
-0.2385
-0.2365
-0.2345
-0.2325
-0.2315
-0.2345
-0.234
-0.231
-0.2275
-0.2255
-0.2245
-0.222
-0.2215
-0.222
-0.2195
-0.217
-0.2155
-0.214
-0.212
-0.2105
-0.2085
-0.205
-0.2075
-0.2065
-0.2035
-0.202
-0.201
-0.2015
-0.199
-0.1985
-0.197
-0.1935
-0.1935
-0.1945
-0.1945
-0.193
-0.192
-0.1915
-0.19
-0.187
-0.1865
-0.184
-0.183
-0.1865
-0.182
-0.1775
-0.1755
-0.174
-0.1735
-0.1725
-0.17
-0.1675
-0.1685
-0.1665
-0.1655
-0.1635
-0.1665
-0.167
-0.1635
-0.1615
-0.1595
-0.1585
-0.153
-0.1505
-0.1475
-0.1485
-0.1525
-0.15
-0.151
-0.152
-0.1495
-0.1505
-0.152
-0.153
-0.1545
-0.1545
-0.155
-0.156
-0.16
-0.1615
-0.162
-0.165
-0.1655
-0.1665
-0.169
-0.1735
-0.1775
-0.1785
-0.182
-0.1865
-0.1895
-0.192
-0.195
-0.194
-0.1975
-0.2035
-0.2075
-0.2125
-0.2125
-0.2115
-0.2125
-0.218
-0.2225
-0.224
-0.2275
-0.228
-0.233
-0.241
-0.2445
-0.2485
-0.2515
-0.253
-0.2545
-0.259
-0.262
-0.262
-0.2665
-0.2715
-0.2745
-0.2775
-0.2815
-0.2825
-0.286
-0.2895
-0.2885
-0.288
-0.2875
-0.289
-0.2905
-0.294
-0.295
-0.2945
-0.2985
-0.301
-0.3005
-0.302
-0.304
-0.305
-0.306
-0.3065
-0.3075
-0.3105
-0.3135
-0.313
-0.3115
-0.3155
-0.317
-0.316
-0.318
-0.316
-0.315
-0.3185
-0.3205
-0.3215
-0.324
-0.323
-0.32
-0.322
-0.3245
-0.3255
-0.328
-0.3285
-0.3305
-0.328
-0.328
-0.3285
-0.324
-0.326
-0.328
-0.3285
-0.33
-0.3315
-0.3295
-0.3275
-0.327
-0.3275
-0.3285
-0.3275
-0.3265
-0.326
-0.3265
-0.3255
-0.3245
-0.324
-0.3245
-0.325
-0.3245
-0.325
-0.328
-0.326
-0.3245
-0.3265
-0.324
-0.3255
-0.3275
-0.3245
-0.3215
-0.3205
-0.319
-0.319
-0.318
-0.3185
-0.32
-0.3195
-0.3225
-0.3245
-0.323
-0.318
-0.3155
-0.3185
-0.3195
-0.3175
-0.319
-0.3205
-0.3195
-0.32
-0.319
-0.317
-0.315
-0.3165
-0.317
-0.316
-0.3165
-0.3155
-0.315
-0.317
-0.3155
-0.314
-0.3165
-0.317
-0.3155
-0.3125
-0.3115
-0.3125
-0.3105
-0.311
-0.3125
-0.313
-0.3125
-0.311
-0.311
-0.309
-0.309
-0.312
-0.3105
-0.31
-0.3095
-0.311
-0.313
-0.3125
-0.3105
-0.3125
-0.314
-0.312
-0.3135
-0.3145
-0.312
-0.3145
-0.317
-0.314
-0.312
-0.3125
-0.314
-0.318
-0.318
-0.3135
-0.3125
-0.3135
-0.314
-0.314
-0.3135
-0.3145
-0.3185
-0.32
-0.321
-0.321
-0.32
-0.32
-0.3205
-0.3215
-0.3225
-0.3205
-0.316
-0.3155
-0.3165
-0.3165
-0.318
-0.3205
-0.32
-0.3195
-0.3195
-0.3215
-0.3245
-0.3235
-0.3265
-0.3255
-0.3225
-0.325
-0.324
-0.325
-0.3265
-0.327
-0.33
-0.327
-0.325
-0.3235
-0.3235
-0.3255
-0.324
-0.324
-0.327
-0.326
-0.325
-0.3265
-0.329
-0.3335
-0.3335
-0.333
-0.334
-0.331
-0.33
-0.333
-0.334
-0.332
-0.334
-0.3345
-0.335
-0.337
-0.337
-0.3385
-0.3385
-0.3385
-0.3375
-0.337
-0.337
-0.336
-0.338
-0.339
-0.339
-0.34
-0.3385
-0.3395
-0.341
-0.338
-0.3385
-0.3395
-0.3395
-0.3405
-0.3435
-0.343
-0.338
-0.339
-0.338
-0.336
-0.338
-0.337
-0.339
-0.341
-0.34
-0.34
-0.342
-0.34
-0.3395
-0.339
-0.336
-0.3385
-0.3375
-0.3385
-0.3405
-0.339
-0.341
-0.343
-0.344
-0.3435
-0.343
-0.345
-0.343
-0.343
-0.3455
-0.343
-0.3425
-0.345
-0.3465
-0.3435
-0.34
-0.341
-0.3435
-0.342
-0.3395
-0.34
-0.3405
-0.3395
-0.3395
-0.3395
-0.341
-0.3415
-0.34
-0.3435
-0.3445
-0.3415
-0.341
-0.34
-0.34
-0.341
-0.342
-0.3435
-0.345
-0.346
-0.3445
-0.3425
-0.3425
-0.3435
-0.3405
-0.34
-0.3425
-0.3445
-0.346
-0.344
-0.342
-0.342
-0.342
-0.3455
-0.3445
-0.344
-0.3435
-0.3425
-0.344
-0.3435
-0.342
-0.3395
-0.3385
-0.3375
-0.3385
-0.3395
-0.3395
-0.3425
-0.3435
-0.3425
-0.346
-0.3495
-0.348
-0.3435
-0.3405
-0.344
-0.3455
-0.3455
-0.343
-0.3405
-0.341
-0.339
-0.3405
-0.342
-0.341
-0.339
-0.3385
-0.342
-0.3415
-0.337
-0.335
-0.3365
-0.339
-0.339
-0.336
-0.3345
-0.334
-0.336
-0.3345
-0.3315
-0.3335
-0.3335
-0.3325
-0.334
-0.3365
-0.334
-0.3335
-0.335
-0.335
-0.3335
-0.3345
-0.3375
-0.3385
-0.337
-0.3315
-0.331
-0.3335
-0.3365
-0.334
-0.331
-0.331
-0.3335
-0.338
-0.3385
-0.337
-0.3365
-0.3385
-0.3365
-0.3335
-0.335
-0.336
-0.337
-0.3375
-0.3385
-0.3395
-0.341
-0.3405
-0.338
-0.337
-0.3345
-0.334
-0.338
-0.338
-0.336
-0.3345
-0.331
-0.3305
-0.3265
-0.3245
-0.3245
-0.3225
-0.324
-0.3215
-0.321
-0.32
-0.317
-0.319
-0.322
-0.322
-0.316
-0.3145
-0.3145
-0.312
-0.312
-0.314
-0.3155
-0.311
-0.307
-0.3045
-0.3065
-0.311
-0.3125
-0.3115
-0.308
-0.306
-0.303
-0.3005
-0.298
-0.2955
-0.2935
-0.2895
-0.2835
-0.2775
-0.2725
-0.2695
-0.267
-0.261
-0.2575
-0.257
-0.2575
-0.258
-0.2525
-0.2455
-0.244
-0.243
-0.2445
-0.2465
-0.247
-0.2495
-0.251
-0.2515
-0.253
-0.2555
-0.2555
-0.2575
-0.263
-0.267
-0.2715
-0.2785
-0.284
-0.287
-0.288
-0.29
-0.295
-0.3045
-0.313
-0.315
-0.3195
-0.322
-0.321
-0.324
-0.3235
-0.3235
-0.3265
-0.327
-0.327
-0.328
-0.3295
-0.33
-0.3325
-0.3375
-0.3375
-0.335
-0.336
-0.3375
-0.3375
-0.338
-0.339
-0.3365
-0.338
-0.3405
-0.3405
-0.342
-0.3425
-0.3445
-0.3465
-0.35
-0.3525
-0.351
-0.352
-0.351
-0.351
-0.3505
-0.3525
-0.3525
-0.352
-0.354
-0.3535
-0.355
-0.358
-0.3565
-0.3555
-0.356
-0.3545
-0.3535
-0.352
-0.3525
-0.352
-0.352
-0.3535
-0.356
-0.357
-0.357
-0.3585
-0.359
-0.361
-0.3585
-0.3575
-0.358
-0.36
-0.3635
-0.3625
-0.3645
-0.3665
-0.368
-0.3675
-0.369
-0.3725
-0.373
-0.3785
-0.3845
-0.392
-0.399
-0.408
-0.422
-0.4335
-0.442
-0.45
-0.4625
-0.467
-0.471
-0.4645
-0.444
-0.422
-0.398
-0.374
-0.3405
-0.298
-0.2495
-0.1935
-0.1225
-0.0455
0.0275
0.0945
0.166
0.2375
0.3025
0.365
0.43
0.4905
0.5335
0.5715
0.5965
0.636
0.68
0.706
0.7315
0.7275
0.6905
0.6455
0.5925
0.538
0.491
0.4415
0.382
0.312
0.235
0.1525
0.073
-0.005
-0.057
-0.087
-0.119
-0.145
-0.1585
-0.167
-0.1735
-0.174
-0.177
-0.185
-0.1925
-0.195
-0.198
-0.2035
-0.207
-0.2125
-0.221
-0.2295
-0.2355
-0.24
-0.2475
-0.2555
-0.261
-0.2645
-0.2705
-0.279
-0.2835
-0.286
-0.2895
-0.2925
-0.298
-0.301
-0.301
-0.3045
-0.307
-0.3065
-0.3075
-0.3085
-0.3125
-0.3155
-0.3175
-0.32
-0.3205
-0.323
-0.3235
-0.323
-0.3215
-0.3245
-0.3275
-0.327
-0.3275
-0.3265
-0.324
-0.3265
-0.3275
-0.326
-0.3265
-0.3265
-0.326
-0.3255
-0.329
-0.327
-0.3245
-0.3265
-0.325
-0.3245
-0.326
-0.3265
-0.325
-0.324
-0.324
-0.3265
-0.329
-0.3275
-0.327
-0.3265
-0.325
-0.325
-0.326
-0.325
-0.3255
-0.327
-0.328
-0.3275
-0.327
-0.328
-0.3255
-0.326
-0.3265
-0.327
-0.328
-0.324
-0.3225
-0.324
-0.322
-0.321
-0.322
-0.3205
-0.321
-0.321
-0.3215
-0.321
-0.3185
-0.32
-0.319
-0.3185
-0.3175
-0.3165
-0.3155
-0.314
-0.316
-0.316
-0.3165
-0.319
-0.3175
-0.316
-0.316
-0.314
-0.313
-0.3135
-0.313
-0.312
-0.311
-0.309
-0.3085
-0.308
-0.307
-0.307
-0.305
-0.3065
-0.3065
-0.306
-0.304
-0.3025
-0.3065
-0.304
-0.299
-0.298
-0.298
-0.301
-0.303
-0.3
-0.298
-0.2985
-0.3005
-0.3
-0.2965
-0.2945
-0.2955
-0.296
-0.295
-0.295
-0.293
-0.291
-0.2905
-0.289
-0.293
-0.2915
-0.289
-0.2895
-0.286
-0.289
-0.289
-0.2885
-0.291
-0.287
-0.2855
-0.286
-0.286
-0.2865
-0.2845
-0.2805
-0.279
-0.2805
-0.2795
-0.278
-0.275
-0.272
-0.2685
-0.2685
-0.267
-0.266
-0.2655
-0.261
-0.264
-0.266
-0.266
-0.2665
-0.265
-0.2655
-0.265
-0.262
-0.2595
-0.26
-0.264
-0.26
-0.257
-0.2595
-0.257
-0.253
-0.25
-0.25
-0.251
-0.2515
-0.247
-0.246
-0.2455
-0.2455
-0.247
-0.242
-0.241
-0.2405
-0.239
-0.2395
-0.2395
-0.239
-0.2345
-0.231
-0.2305
-0.229
-0.2305
-0.2305
-0.2235
-0.2205
-0.22
-0.2195
-0.2175
-0.216
-0.2115
-0.209
-0.212
-0.2095
-0.2055
-0.2025
-0.2015
-0.201
-0.198
-0.193
-0.192
-0.1915
-0.193
-0.192
-0.188
-0.1895
-0.1885
-0.1885
-0.188
-0.187
-0.1835
-0.1805
-0.1785
-0.177
-0.1745
-0.1695
-0.168
-0.1695
-0.1665
-0.1625
-0.162
-0.1585
-0.159
-0.1585
-0.158
-0.1595
-0.156
-0.1555
-0.155
-0.154
-0.1535
-0.1525
-0.1505
-0.151
-0.152
-0.152
-0.151
-0.1505
-0.154
-0.152
-0.151
-0.1555
-0.1525
-0.1515
-0.1555
-0.154
-0.1555
-0.1585
-0.157
-0.159
-0.1595
-0.161
-0.165
-0.1665
-0.1675
-0.1695
-0.1695
-0.1735
-0.1815
-0.185
-0.1825
-0.1825
-0.19
-0.196
-0.198
-0.199
-0.202
-0.2045
-0.2095
-0.2125
-0.215
-0.215
-0.2185
-0.2305
-0.231
-0.229
-0.229
-0.2295
-0.2375
-0.2425
-0.243
-0.2475
-0.2465
-0.2475
-0.256
-0.261
-0.2615
-0.2605
-0.2625
-0.2645
-0.266
-0.2685
-0.273
-0.275
-0.277
-0.2805
-0.2835
-0.285
-0.2845
-0.286
-0.2885
-0.29
-0.29
-0.2955
-0.2985
-0.3005
-0.3045
-0.3015
-0.299
-0.3
-0.3035
-0.304
-0.303
-0.3055
-0.3065
-0.308
-0.312
-0.312
-0.312
-0.3125
-0.313
-0.31
-0.31
-0.3175
-0.317
-0.308
-0.3085
-0.313
-0.3095
-0.311
-0.3105
-0.309
-0.3155
-0.3165
-0.312
-0.313
-0.3155
-0.3155
-0.3145
-0.3175
-0.3195
-0.321
-0.324
-0.319
-0.3165
-0.3175
-0.317
-0.318
-0.3205
-0.325
-0.3255
-0.329
-0.3295
-0.324
-0.3215
-0.327
-0.3305
-0.328
-0.329
-0.3275
-0.327
-0.322
-0.3215
-0.323
-0.323
-0.3245
-0.3235
-0.3235
-0.321
-0.324
-0.3275
-0.3265
-0.327
-0.3285
-0.3275
-0.327
-0.3275
-0.3265
-0.329
-0.3275
-0.3275
-0.33
-0.3295
-0.328
-0.3255
-0.325
-0.324
-0.3255
-0.3275
-0.3285
-0.3275
-0.326
-0.325
-0.327
-0.33
-0.33
-0.331
-0.329
-0.3305
-0.3265
-0.3235
-0.3265
-0.3255
-0.3275
-0.3255
-0.3225
-0.322
-0.3215
-0.3235
-0.325
-0.3245
-0.3235
-0.3225
-0.321
-0.3205
-0.318
-0.316
-0.319
-0.322
-0.321
-0.316
-0.3165
-0.323
-0.323
-0.3245
-0.326
-0.323
-0.3255
-0.326
-0.3235
-0.322
-0.323
-0.327
-0.3265
-0.325
-0.3275
-0.324
-0.322
-0.324
-0.3205
-0.32
-0.32
-0.3215
-0.3235
-0.3245
-0.325
-0.324
-0.3275
-0.3325
-0.3325
-0.3335
-0.338
-0.339
-0.3345
-0.333
-0.337
-0.3355
-0.334
-0.3345
-0.3395
-0.3385
-0.337
-0.3375
-0.3335
-0.3315
-0.331
-0.3345
-0.3345
-0.3325
-0.333
-0.333
-0.3325
-0.3335
-0.3365
-0.3375
-0.3355
-0.332
-0.335
-0.336
-0.334
-0.3375
-0.3385
-0.337
-0.3375
-0.3365
-0.3335
-0.331
-0.3335
-0.3305
-0.3285
-0.3315
-0.337
-0.338
-0.3315
-0.3325
-0.3325
-0.334
-0.333
-0.33
-0.335
-0.333
-0.334
-0.337
-0.3335
-0.334
-0.336
-0.3375
-0.3365
-0.3325
-0.3335
-0.337
-0.3405
-0.343
-0.3425
-0.3425
-0.3435
-0.3405
-0.3355
-0.3335
-0.3355
-0.3395
-0.3415
-0.3415
-0.3415
-0.3385
-0.339
-0.3425
-0.345
-0.345
-0.344
-0.343
-0.343
-0.342
-0.342
-0.3425
-0.3425
-0.344
-0.3485
-0.3505
-0.3465
-0.3425
-0.341
-0.343
-0.346
-0.3455
-0.343
-0.345
-0.348
-0.3505
-0.3505
-0.3465
-0.3445
-0.345
-0.3465
-0.348
-0.349
-0.351
-0.3515
-0.348
-0.343
-0.34
-0.343
-0.3475
-0.348
-0.3495
-0.3485
-0.3435
-0.342
-0.3465
-0.347
-0.3455
-0.3485
-0.3485
-0.344
-0.3455
-0.3455
-0.345
-0.3465
-0.348
-0.3485
-0.347
-0.3495
-0.3505
-0.35
-0.347
-0.3455
-0.345
-0.342
-0.3415
-0.342
-0.3415
-0.342
-0.3445
-0.342
-0.3395
-0.3405
-0.341
-0.342
-0.345
-0.345
-0.344
-0.3425
-0.341
-0.342
-0.3405
-0.339
-0.3395
-0.3395
-0.34
-0.3425
-0.3425
-0.3425
-0.3435
-0.345
-0.3445
-0.344
-0.348
-0.3475
-0.3475
-0.351
-0.352
-0.349
-0.3465
-0.3475
-0.348
-0.3495
-0.35
-0.348
-0.347
-0.3455
-0.346
-0.346
-0.348
-0.348
-0.3465
-0.347
-0.348
-0.3485
-0.348
-0.3475
-0.346
-0.343
-0.3415
-0.344
-0.346
-0.3445
-0.3435
-0.3465
-0.347
-0.346
-0.3455
-0.343
-0.3425
-0.343
-0.3435
-0.344
-0.344
-0.3435
-0.3415
-0.341
-0.3415
-0.3425
-0.3445
-0.345
-0.3425
-0.3435
-0.3435
-0.3415
-0.345
-0.3455
-0.345
-0.346
-0.3475
-0.346
-0.344
-0.343
-0.3405
-0.3395
-0.338
-0.3375
-0.335
-0.331
-0.3285
-0.3295
-0.3305
-0.327
-0.326
-0.3265
-0.3235
-0.3235
-0.3235
-0.321
-0.3175
-0.318
-0.3195
-0.318
-0.318
-0.3145
-0.3105
-0.3085
-0.3105
-0.3125
-0.3125
-0.312
-0.309
-0.3105
-0.31
-0.3105
-0.316
-0.3145
-0.307
-0.3045
-0.3035
-0.301
-0.2945
-0.2885
-0.2925
-0.294
-0.287
-0.281
-0.2755
-0.271
-0.2705
-0.268
-0.2625
-0.2595
-0.261
-0.2595
-0.2555
-0.252
-0.248
-0.247
-0.2485
-0.253
-0.256
-0.257
-0.257
-0.2565
-0.257
-0.2585
-0.2625
-0.2635
-0.265
-0.269
-0.276
-0.282
-0.2865
-0.29
-0.292
-0.297
-0.3005
-0.308
-0.316
-0.318
-0.324
-0.3275
-0.3295
-0.331
-0.3275
-0.3275
-0.331
-0.333
-0.332
-0.333
-0.334
-0.333
-0.3355
-0.34
-0.342
-0.3405
-0.342
-0.3435
-0.3405
-0.341
-0.342
-0.345
-0.3465
-0.3445
-0.346
-0.346
-0.3485
-0.351
-0.354
-0.3545
-0.3565
-0.359
-0.3585
-0.3615
-0.361
-0.3615
-0.3635
-0.362
-0.359
-0.3575
-0.358
-0.3575
-0.3605
-0.363
-0.3645
-0.365
-0.365
-0.3665
-0.3675
-0.3685
-0.368
-0.3685
-0.369
-0.369
-0.3685
-0.371
-0.372
-0.372
-0.372
-0.372
-0.3745
-0.3715
-0.371
-0.373
-0.3715
-0.3705
-0.3725
-0.375
-0.3745
-0.376
-0.3785
-0.382
-0.385
-0.39
-0.3965
-0.4035
-0.412
-0.4235
-0.434
-0.4425
-0.4525
-0.4625
-0.4705
-0.4745
-0.4785
-0.468
-0.446
-0.424
-0.403
-0.3775
-0.3395
-0.293
-0.242
-0.182
-0.107
-0.031
0.034
0.1025
0.1765
0.246
0.3135
0.372
0.437
0.4985
0.5375
0.566
0.594
0.634
0.665
0.689
0.709
0.692
0.6535
0.6075
0.5525
0.5065
0.457
0.4055
0.3435
0.2685
0.1815
0.0855
-0.0055
-0.081
-0.117
-0.1385
-0.1595
-0.172
-0.1775
-0.183
-0.185
-0.186
-0.192
-0.1965
-0.2035
-0.207
-0.2125
-0.2205
-0.2225
-0.2265
-0.2325
-0.2415
-0.2485
-0.258
-0.2675
-0.271
-0.2775
-0.283
-0.2895
-0.295
-0.299
-0.3035
-0.307
-0.31
-0.3125
-0.3175
-0.318
-0.3225
-0.327
-0.327
-0.3305
-0.331
-0.3325
-0.3325
-0.333
-0.3335
-0.3335
-0.3365
-0.3365
-0.338
-0.3415
-0.344
-0.3415
-0.342
-0.3455
-0.342
-0.3435
-0.345
-0.3455
-0.349
-0.345
-0.3435
-0.3465
-0.3465
-0.3475
-0.3455
-0.347
-0.35
-0.3485
-0.35
-0.352
-0.3505
-0.3495
-0.35
-0.3485
-0.3475
-0.3475
-0.344
-0.3445
-0.3455
-0.3435
-0.34
-0.3405
-0.346
-0.3475
-0.345
-0.344
-0.343
-0.3415
-0.3435
-0.3455
-0.3425
-0.3395
-0.339
-0.336
-0.336
-0.3375
-0.338
-0.338
-0.34
-0.3395
-0.3395
-0.342
-0.3415
-0.3425
-0.3405
-0.3375
-0.337
-0.3355
-0.3355
-0.3355
-0.335
-0.335
-0.337
-0.3345
-0.3325
-0.334
-0.3335
-0.333
-0.331
-0.3295
-0.3295
-0.3295
-0.3315
-0.332
-0.332
-0.3275
-0.325
-0.325
-0.3245
-0.325
-0.324
-0.3245
-0.322
-0.32
-0.3205
-0.318
-0.3165
-0.318
-0.3185
-0.318
-0.321
-0.3235
-0.3205
-0.3175
-0.318
-0.3185
-0.3165
-0.316
-0.316
-0.3165
-0.3175
-0.3165
-0.3155
-0.316
-0.3155
-0.314
-0.312
-0.3115
-0.314
-0.3115
-0.31
-0.3085
-0.3055
-0.306
-0.3055
-0.305
-0.306
-0.309
-0.3085
-0.3055
-0.3045
-0.3035
-0.3005
-0.301
-0.2995
-0.2975
-0.299
-0.299
-0.298
-0.2965
-0.2945
-0.2925
-0.292
-0.293
-0.2905
-0.2875
-0.2885
-0.2895
-0.288
-0.286
-0.286
-0.287
-0.2855
-0.2855
-0.285
-0.2835
-0.2845
-0.282
-0.2785
-0.2795
-0.278
-0.2775
-0.279
-0.278
-0.279
-0.279
-0.277
-0.2765
-0.2755
-0.273
-0.267
-0.266
-0.2675
-0.265
-0.263
-0.2595
-0.259
-0.258
-0.2555
-0.253
-0.2505
-0.2495
-0.246
-0.2445
-0.2435
-0.241
-0.24
-0.237
-0.2345
-0.2355
-0.236
-0.2325
-0.2285
-0.2265
-0.225
-0.224
-0.2225
-0.2205
-0.2205
-0.218
-0.2145
-0.2155
-0.2145
-0.21
-0.208
-0.2065
-0.2055
-0.2035
-0.201
-0.2005
-0.2005
-0.195
-0.19
-0.1915
-0.1915
-0.189
-0.1885
-0.1875
-0.186
-0.1855
-0.1865
-0.184
-0.1825
-0.183
-0.1795
-0.178
-0.1745
-0.174
-0.1755
-0.1715
-0.1695
-0.169
-0.1705
-0.1685
-0.1645
-0.165
-0.169
-0.1705
-0.167
-0.1665
-0.168
-0.1675
-0.167
-0.171
-0.1725
-0.173
-0.1745
-0.1775
-0.1785
-0.178
-0.18
-0.181
-0.1845
-0.1865
-0.188
-0.19
-0.1905
-0.193
-0.194
-0.1975
-0.2015
-0.2055
-0.21
-0.214
-0.2185
-0.2215
-0.225
-0.228
-0.2305
-0.233
-0.236
-0.2395
-0.2445
-0.25
-0.252
-0.255
-0.258
-0.259
-0.262
-0.2635
-0.268
-0.2755
-0.2785
-0.2825
-0.284
-0.2875
-0.289
-0.29
-0.296
-0.2975
-0.2985
-0.299
-0.2995
-0.305
-0.309
-0.3095
-0.312
-0.3165
-0.318
-0.3195
-0.321
-0.321
-0.3235
-0.3255
-0.327
-0.3275
-0.3255
-0.3305
-0.3335
-0.333
-0.334
-0.3325
-0.3345
-0.3365
-0.336
-0.3345
-0.338
-0.3425
-0.339
-0.342
-0.349
-0.348
-0.347
-0.3475
-0.346
-0.3425
-0.339
-0.342
-0.348
-0.347
-0.345
-0.346
-0.346
-0.349
-0.3495
-0.3465
-0.3465
-0.3485
-0.3535
-0.3525
-0.3525
-0.357
-0.355
-0.3535
-0.3535
-0.354
-0.3545
-0.353
-0.352
-0.3505
-0.3495
-0.351
-0.3535
-0.352
-0.35
-0.352
-0.3515
-0.3505
-0.348
-0.348
-0.3465
-0.3465
-0.3475
-0.3465
-0.347
-0.344
-0.3465
-0.347
-0.344
-0.347
-0.348
-0.348
-0.349
-0.3505
-0.35
-0.35
-0.349
-0.3495
-0.3475
-0.348
-0.3495
-0.349
-0.352
-0.3505
-0.35
-0.3485
-0.345
-0.3445
-0.347
-0.3465
-0.346
-0.346
-0.3435
-0.342
-0.3405
-0.3435
-0.343
-0.341
-0.3405
-0.3435
-0.3435
-0.341
-0.343
-0.3415
-0.341
-0.3415
-0.343
-0.3455
-0.3435
-0.3445
-0.3455
-0.345
-0.347
-0.3475
-0.349
-0.3485
-0.3475
-0.3485
-0.347
-0.348
-0.3475
-0.3495
-0.3505
-0.35
-0.3515
-0.349
-0.3495
-0.351
-0.351
-0.3515
-0.352
-0.3525
-0.3535
-0.357
-0.356
-0.355
-0.3545
-0.3535
-0.3535
-0.3535
-0.3555
-0.356
-0.3555
-0.3545
-0.3545
-0.354
-0.3545
-0.354
-0.3535
-0.355
-0.3555
-0.3565
-0.359
-0.3595
-0.359
-0.3605
-0.36
-0.3585
-0.358
-0.36
-0.3615
-0.3625
-0.361
-0.3605
-0.362
-0.361
-0.3605
-0.361
-0.365
-0.366
-0.362
-0.3625
-0.3625
-0.3635
-0.365
-0.3655
-0.368
-0.368
-0.367
-0.3675
-0.3675
-0.367
-0.3675
-0.37
-0.3705
-0.3685
-0.3675
-0.367
-0.368
-0.366
-0.366
-0.364
-0.3615
-0.3655
-0.3675
-0.367
-0.367
-0.3675
-0.3685
-0.369
-0.3695
-0.367
-0.365
-0.3645
-0.3675
-0.3715
-0.3715
-0.3715
-0.369
-0.369
-0.3705
-0.37
-0.372
-0.372
-0.3715
-0.3715
-0.3725
-0.371
-0.3705
-0.371
-0.371
-0.373
-0.371
-0.3705
-0.372
-0.3705
-0.3705
-0.3715
-0.3705
-0.369
-0.3705
-0.372
-0.3745
-0.3755
-0.374
-0.373
-0.3745
-0.373
-0.3725
-0.375
-0.3745
-0.374
-0.3735
-0.3725
-0.372
-0.373
-0.3735
-0.377
-0.3775
-0.3755
-0.377
-0.3755
-0.375
-0.3745
-0.3745
-0.3765
-0.376
-0.373
-0.373
-0.376
-0.3765
-0.3785
-0.378
-0.3745
-0.376
-0.378
-0.3785
-0.38
-0.3785
-0.379
-0.38
-0.3795
-0.38
-0.379
-0.379
-0.379
-0.381
-0.3825
-0.381
-0.382
-0.3815
-0.379
-0.3795
-0.379
-0.3785
-0.379
-0.38
-0.379
-0.3755
-0.3755
-0.376
-0.3745
-0.3735
-0.373
-0.374
-0.375
-0.3755
-0.375
-0.373
-0.3735
-0.3725
-0.3745
-0.3745
-0.375
-0.378
-0.375
-0.3725
-0.373
-0.375
-0.373
-0.375
-0.377
-0.375
-0.375
-0.375
-0.3775
-0.3765
-0.3765
-0.377
-0.3755
-0.3775
-0.378
-0.379
-0.377
-0.377
-0.377
-0.376
-0.378
-0.378
-0.3775
-0.378
-0.3775
-0.378
-0.3805
-0.383
-0.3825
-0.38
-0.381
-0.3815
-0.3805
-0.381
-0.3825
-0.3815
-0.383
-0.386
-0.386
-0.3845
-0.3835
-0.3855
-0.385
-0.38
-0.3785
-0.3815
-0.3825
-0.3835
-0.3835
-0.383
-0.3815
-0.38
-0.385
-0.3865
-0.3865
-0.388
-0.3875
-0.3865
-0.3875
-0.389
-0.3895
-0.39
-0.3885
-0.3895
-0.389
-0.3905
-0.3915
-0.39
-0.394
-0.392
-0.3895
-0.389
-0.3895
-0.3915
-0.39
-0.3895
-0.3885
-0.3885
-0.39
-0.3875
-0.387
-0.386
-0.383
-0.38
-0.3795
-0.3795
-0.377
-0.3745
-0.373
-0.3705
-0.367
-0.369
-0.37
-0.3675
-0.3675
-0.367
-0.3685
-0.366
-0.36
-0.3595
-0.3585
-0.356
-0.355
-0.3525
-0.3505
-0.351
-0.3515
-0.353
-0.3555
-0.355
-0.354
-0.3505
-0.348
-0.346
-0.3415
-0.3395
-0.3365
-0.334
-0.332
-0.3255
-0.322
-0.317
-0.3135
-0.312
-0.306
-0.302
-0.3
-0.302
-0.303
-0.298
-0.291
-0.2875
-0.2845
-0.284
-0.2905
-0.293
-0.2915
-0.2925
-0.2925
-0.292
-0.293
-0.296
-0.3005
-0.3015
-0.306
-0.3115
-0.315
-0.321
-0.3235
-0.3255
-0.331
-0.339
-0.347
-0.3535
-0.357
-0.3605
-0.3615
-0.3625
-0.366
-0.3635
-0.362
-0.362
-0.363
-0.3645
-0.365
-0.3655
-0.3685
-0.371
-0.37
-0.374
-0.3745
-0.373
-0.375
-0.3765
-0.377
-0.3775
-0.374
-0.3715
-0.3745
-0.378
-0.3795
-0.377
-0.379
-0.382
-0.385
-0.3865
-0.386
-0.387
-0.3875
-0.391
-0.394
-0.3955
-0.3945
-0.3945
-0.393
-0.3945
-0.396
-0.396
-0.399
-0.4
-0.3985
-0.398
-0.4
-0.4
-0.399
-0.398
-0.4
-0.4
-0.401
-0.403
-0.4015
-0.4015
-0.4025
-0.4045
-0.404
-0.4035
-0.405
-0.4025
-0.402
-0.403
-0.404
-0.405
-0.4065
-0.4075
-0.406
-0.4065
-0.4105
-0.4145
-0.419
-0.427
-0.4365
-0.4475
-0.4595
-0.4735
-0.4845
-0.4915
-0.504
-0.5125
-0.515
-0.517
-0.5045
-0.4865
-0.465
-0.442
-0.4145
-0.3715
-0.3235
-0.275
-0.2105
-0.1295
-0.053
0.0125
0.0855
0.1635
0.232
0.302
0.366
0.436
0.4935
0.5335
0.563
0.5915
0.6415
0.6725
0.7
0.718
0.6995
0.66
0.608
0.552
0.501
0.45
0.3935
0.329
0.2525
0.1655
0.078
-0.007
-0.078
-0.112
-0.139
-0.17
-0.187
-0.1975
-0.2055
-0.21
-0.213
-0.218
-0.227
-0.233
-0.237
-0.2425
-0.2465
-0.252
-0.257
-0.2655
-0.276
-0.2855
-0.294
-0.301
-0.307
-0.311
-0.3145
-0.3195
-0.325
-0.3275
-0.3325
-0.3385
-0.342
-0.3445
-0.3475
-0.3525
-0.3545
-0.3565
-0.3585
-0.3605
-0.364
-0.3665
-0.369
-0.3715
-0.3695
-0.3695
-0.374
-0.3755
-0.372
-0.372
-0.373
-0.372
-0.3755
-0.3755
-0.3755
-0.3765
-0.377
-0.379
-0.3785
-0.376
-0.3775
-0.3795
-0.3805
-0.3785
-0.376
-0.3755
-0.376
-0.3745
-0.3715
-0.3695
-0.369
-0.3705
-0.3715
-0.3735
-0.3735
-0.3725
-0.374
-0.375
-0.376
-0.3765
-0.375
-0.3745
-0.3765
-0.377
-0.3775
-0.3755
-0.3735
-0.3745
-0.376
-0.377
-0.3745
-0.3715
-0.3705
-0.371
-0.3725
-0.374
-0.3715
-0.3695
-0.372
-0.3705
-0.369
-0.3685
-0.3675
-0.3685
-0.368
-0.369
-0.368
-0.368
-0.367
-0.3665
-0.3685
-0.369
-0.368
-0.366
-0.3675
-0.3675
-0.369
-0.37
-0.368
-0.3685
-0.3675
-0.3675
-0.365
-0.363
-0.363
-0.3615
-0.3605
-0.361
-0.3605
-0.3605
-0.3615
-0.358
-0.357
-0.356
-0.355
-0.354
-0.3525
-0.354
-0.354
-0.351
-0.3525
-0.355
-0.354
-0.352
-0.352
-0.3535
-0.352
-0.351
-0.3525
-0.352
-0.35
-0.35
-0.35
-0.3475
-0.3455
-0.3435
-0.344
-0.3455
-0.343
-0.343
-0.3455
-0.345
-0.347
-0.349
-0.3475
-0.343
-0.3405
-0.3435
-0.345
-0.3455
-0.343
-0.341
-0.341
-0.3385
-0.3385
-0.3375
-0.337
-0.3385
-0.3345
-0.331
-0.333
-0.332
-0.3285
-0.3295
-0.33
-0.3275
-0.326
-0.3255
-0.325
-0.3235
-0.321
-0.323
-0.325
-0.322
-0.322
-0.319
-0.316
-0.3175
-0.3145
-0.316
-0.3155
-0.3115
-0.3105
-0.3055
-0.3075
-0.3065
-0.3025
-0.3025
-0.3015
-0.3005
-0.296
-0.294
-0.297
-0.2925
-0.2885
-0.2895
-0.289
-0.2905
-0.292
-0.288
-0.288
-0.2885
-0.2845
-0.281
-0.277
-0.275
-0.274
-0.2735
-0.277
-0.274
-0.2675
-0.2645
-0.2625
-0.262
-0.2635
-0.262
-0.258
-0.26
-0.258
-0.251
-0.25
-0.2525
-0.2495
-0.244
-0.2435
-0.2425
-0.239
-0.237
-0.236
-0.2345
-0.2315
-0.2305
-0.233
-0.2325
-0.228
-0.226
-0.2245
-0.223
-0.2205
-0.217
-0.2135
-0.216
-0.216
-0.2135
-0.2145
-0.2165
-0.2145
-0.208
-0.2085
-0.2055
-0.202
-0.202
-0.2025
-0.208
-0.2065
-0.204
-0.2025
-0.203
-0.208
-0.2055
-0.203
-0.205
-0.2065
-0.2035
-0.2
-0.2015
-0.204
-0.2075
-0.208
-0.209
-0.215
-0.2165
-0.217
-0.2185
-0.219
-0.222
-0.223
-0.2255
-0.2275
-0.23
-0.2335
-0.237
-0.2415
-0.2445
-0.2455
-0.245
-0.247
-0.254
-0.2585
-0.259
-0.2605
-0.2585
-0.2615
-0.2675
-0.2735
-0.278
-0.2785
-0.284
-0.2845
-0.2875
-0.291
-0.287
-0.292
-0.3015
-0.3045
-0.3065
-0.307
-0.311
-0.3185
-0.3195
-0.3215
-0.323
-0.3225
-0.328
-0.3285
-0.3325
-0.338
-0.338
-0.3415
-0.341
-0.3435
-0.347
-0.3485
-0.347
-0.3485
-0.3575
-0.359
-0.356
-0.3555
-0.3575
-0.355
-0.3555
-0.357
-0.357
-0.36
-0.3645
-0.3645
-0.3615
-0.365
-0.366
-0.3685
-0.37
-0.37
-0.368
-0.3655
-0.37
-0.3755
-0.374
-0.3675
-0.369
-0.371
-0.3715
-0.372
-0.366
-0.3675
-0.375
-0.376
-0.374
-0.371
-0.371
-0.3735
-0.378
-0.377
-0.376
-0.3795
-0.377
-0.377
-0.38
-0.375
-0.375
-0.376
-0.377
-0.379
-0.379
-0.377
-0.3705
-0.3765
-0.3835
-0.3805
-0.3805
-0.3815
-0.38
-0.3745
-0.372
-0.379
-0.3815
-0.379
-0.382
-0.3845
-0.379
-0.3735
-0.3765
-0.3755
-0.3735
-0.3735
-0.3745
-0.3765
-0.3785
-0.3825
-0.3845
-0.38
-0.377
-0.38
-0.381
-0.3795
-0.377
-0.3795
-0.3765
-0.375
-0.377
-0.3755
-0.378
-0.379
-0.381
-0.383
-0.381
-0.3845
-0.3855
-0.38
-0.383
-0.3825
-0.378
-0.384
-0.3845
-0.384
-0.3835
-0.3825
-0.3855
-0.381
-0.3795
-0.3785
-0.381
-0.3845
-0.385
-0.387
-0.387
-0.3875
-0.385
-0.3815
-0.385
-0.3835
-0.3805
-0.3825
-0.383
-0.3835
-0.381
-0.3825
-0.388
-0.391
-0.3825
-0.3775
-0.3835
-0.3865
-0.385
-0.384
-0.38
-0.38
-0.38
-0.373
-0.3745
-0.374
-0.3735
-0.3775
-0.3775
-0.3775
-0.3785
-0.38
-0.3755
-0.3705
-0.3745
-0.3705
-0.372
-0.3785
-0.3795
-0.382
-0.3795
-0.382
-0.386
-0.3795
-0.3825
-0.386
-0.385
-0.39
-0.3935
-0.394
-0.3875
-0.388
-0.392
-0.387
-0.3885
-0.39
-0.391
-0.391
-0.386
-0.388
-0.391
-0.392
-0.3935
-0.392
-0.39
-0.3915
-0.3925
-0.3915
-0.3905
-0.387
-0.389
-0.3885
-0.3865
-0.3905
-0.3865
-0.3865
-0.3855
-0.3825
-0.386
-0.3895
-0.3945
-0.3925
-0.391
-0.3945
-0.391
-0.39
-0.3905
-0.3905
-0.388
-0.3875
-0.3945
-0.3945
-0.3885
-0.3895
-0.3935
-0.3945
-0.392
-0.3905
-0.392
-0.394
-0.394
-0.392
-0.3945
-0.396
-0.395
-0.395
-0.396
-0.401
-0.3975
-0.397
-0.4
-0.3985
-0.3965
-0.3985
-0.4015
-0.3995
-0.4015
-0.405
-0.4015
-0.3985
-0.3985
-0.3985
-0.4015
-0.3985
-0.4
-0.403
-0.3975
-0.398
-0.3995
-0.395
-0.3995
-0.403
-0.3965
-0.3945
-0.3935
-0.3985
-0.4
-0.398
-0.4
-0.4015
-0.4035
-0.401
-0.3945
-0.3875
-0.391
-0.3945
-0.39
-0.391
-0.396
-0.397
-0.396
-0.3915
-0.3885
-0.3955
-0.396
-0.393
-0.392
-0.389
-0.387
-0.39
-0.3905
-0.392
-0.3955
-0.3945
-0.393
-0.386
-0.3835
-0.39
-0.389
-0.3875
-0.3895
-0.396
-0.401
-0.397
-0.3965
-0.3975
-0.394
-0.393
-0.3935
-0.3935
-0.3945
-0.395
-0.3955
-0.4005
-0.398
-0.395
-0.3955
-0.3945
-0.3935
-0.3935
-0.392
-0.392
-0.397
-0.393
-0.3885
-0.394
-0.3995
-0.398
-0.394
-0.395
-0.394
-0.3925
-0.39
-0.3915
-0.3925
-0.3895
-0.389
-0.3895
-0.39
-0.3895
-0.39
-0.389
-0.387
-0.384
-0.384
-0.388
-0.388
-0.39
-0.3875
-0.3905
-0.39
-0.3875
-0.3845
-0.379
-0.381
-0.3795
-0.3805
-0.379
-0.378
-0.3845
-0.387
-0.3865
-0.3825
-0.379
-0.382
-0.384
-0.3835
-0.386
-0.387
-0.385
-0.3825
-0.382
-0.3885
-0.3915
-0.3875
-0.3845
-0.3845
-0.386
-0.3855
-0.387
-0.3875
-0.388
-0.3825
-0.3775
-0.383
-0.383
-0.3855
-0.3875
-0.3915
-0.3905
-0.385
-0.392
-0.3935
-0.388
-0.387
-0.388
-0.3845
-0.3825
-0.3895
-0.3845
-0.3755
-0.379
-0.384
-0.387
-0.383
-0.381
-0.383
-0.3875
-0.3865
-0.381
-0.3775
-0.375
-0.3785
-0.377
-0.3715
-0.365
-0.3665
-0.3665
-0.3605
-0.363
-0.3605
-0.3575
-0.361
-0.361
-0.363
-0.3595
-0.356
-0.3565
-0.352
-0.352
-0.351
-0.3535
-0.3475
-0.347
-0.3535
-0.3495
-0.3535
-0.354
-0.3525
-0.3485
-0.3465
-0.345
-0.3385
-0.331
-0.3245
-0.327
-0.3235
-0.315
-0.3085
-0.305
-0.3
-0.2995
-0.2985
-0.293
-0.297
-0.293
-0.2945
-0.2935
-0.2855
-0.283
-0.2805
-0.2835
-0.2855
-0.2905
-0.292
-0.2865
-0.291
-0.284
-0.2835
-0.2935
-0.2915
-0.294
-0.309
-0.3135
-0.3095
-0.3165
-0.319
-0.3215
-0.327
-0.339
-0.35
-0.3535
-0.3565
-0.3575
-0.3625
-0.363
-0.359
-0.3585
-0.36
-0.365
-0.3715
-0.373
-0.3705
-0.3715
-0.3725
-0.3745
-0.38
-0.383
-0.3795
-0.3765
-0.375
-0.379
-0.3795
-0.377
-0.379
-0.375
-0.377
-0.3775
-0.377
-0.382
-0.3835
-0.382
-0.387
-0.394
-0.389
-0.387
-0.394
-0.3955
-0.392
-0.389
-0.3915
-0.397
-0.3975
-0.395
-0.395
-0.394
-0.39
-0.3945
-0.4055
-0.397
-0.391
-0.3995
-0.3985
-0.3955
-0.3955
-0.402
-0.405
-0.402
-0.397
-0.3975
-0.4035
-0.4045
-0.3965
-0.396
-0.4015
-0.399
-0.3965
-0.397
-0.401
-0.404
-0.404
-0.399
-0.4025
-0.4015
-0.4025
-0.408
-0.41
-0.429
-0.4425
-0.4445
-0.4525
-0.465
-0.4745
-0.4855
-0.4915
-0.495
-0.4995
-0.4955
-0.4775
-0.455
-0.4405
-0.4175
-0.386
-0.342
-0.2965
-0.248
-0.1795
-0.096
-0.019
0.038
0.1125
0.1875
0.2555
0.3215
0.378
0.4465
0.501
0.5335
0.5605
0.5975
0.631
0.6515
0.681
0.6915
0.658
0.6105
0.5585
0.508
0.466
0.4125
0.3505
0.282
0.192
0.0895
-0.016
-0.107
-0.158
-0.187
-0.206
-0.221
-0.222
-0.2255
-0.2305
-0.2255
-0.225
-0.2265
-0.236
-0.243
-0.2375
-0.24
-0.2535
-0.2585
-0.264
-0.263
-0.259
-0.2785
-0.297
-0.2945
-0.293
-0.298
-0.3025
-0.314
-0.3195
-0.3205
-0.3245
-0.326
-0.3285
-0.334
-0.3385
-0.336
-0.339
-0.342
-0.348
-0.3535
-0.351
-0.3525
-0.3455
-0.3445
-0.349
-0.3515
-0.353
-0.3495
-0.3485
-0.3465
-0.3535
-0.3565
-0.3535
-0.3565
-0.359
-0.3565
-0.357
-0.3555
-0.3525
-0.3625
-0.3635
-0.361
-0.3555
-0.3485
-0.3545
-0.358
-0.356
-0.3585
-0.3595
-0.3555
-0.3555
-0.361
-0.3675
-0.36
-0.347
-0.3465
-0.359
-0.364
-0.3595
-0.3555
-0.3515
-0.3525
-0.353
-0.3535
-0.3525
-0.3535
-0.3575
-0.3565
-0.3505
-0.3505
-0.353
-0.348
-0.3485
-0.3525
-0.3545
-0.358
-0.3575
-0.3555
-0.356
-0.36
-0.3605
-0.3595
-0.3535
-0.347
-0.3505
-0.353
-0.354
-0.3545
-0.3575
-0.349
-0.344
-0.35
-0.3465
-0.3455
-0.349
-0.348
-0.348
-0.348
-0.345
-0.341
-0.346
-0.3505
-0.346
-0.3475
-0.3435
-0.3435
-0.3495
-0.3425
-0.345
-0.3405
-0.334
-0.3395
-0.3355
-0.3305
-0.3375
-0.334
-0.3255
-0.3275
-0.3315
-0.335
-0.3325
-0.328
-0.33
-0.3295
-0.3255
-0.3275
-0.3375
-0.336
-0.333
-0.336
-0.328
-0.326
-0.329
-0.3255
-0.326
-0.326
-0.3185
-0.3205
-0.324
-0.324
-0.324
-0.32
-0.3215
-0.3185
-0.314
-0.313
-0.3135
-0.307
-0.3095
-0.3145
-0.3145
-0.314
-0.303
-0.3055
-0.3105
-0.309
-0.3105
-0.3085
-0.308
-0.302
-0.2985
-0.3055
-0.309
-0.3065
-0.302
-0.299
-0.3005
-0.3005
-0.2985
-0.299
-0.297
-0.2905
-0.2945
-0.294
-0.289
-0.293
-0.2905
-0.287
-0.2875
-0.2905
-0.2855
-0.2835
-0.29
-0.2835
-0.2765
-0.2825
-0.281
-0.2775
-0.2805
-0.2715
-0.275
-0.2795
-0.2735
-0.279
-0.2765
-0.2805
-0.277
-0.2715
-0.2765
-0.268
-0.2635
-0.263
-0.2675
-0.2635
-0.251
-0.26
-0.27
-0.259
-0.249
-0.2495
-0.254
-0.2475
-0.2365
-0.24
-0.2415
-0.2415
-0.243
-0.239
-0.2305
-0.227
-0.23
-0.2295
-0.222
-0.2195
-0.2225
-0.214
-0.2065
-0.205
-0.203
-0.207
-0.209
-0.2055
-0.204
-0.211
-0.213
-0.204
-0.204
-0.205
-0.202
-0.203
-0.1985
-0.196
-0.1925
-0.193
-0.1975
-0.1985
-0.193
-0.1885
-0.193
-0.1905
-0.1875
-0.1845
-0.182
-0.1835
-0.186
-0.186
-0.177
-0.173
-0.179
-0.181
-0.1885
-0.182
-0.167
-0.1785
-0.1885
-0.1845
-0.178
-0.1785
-0.179
-0.1825
-0.1855
-0.1885
-0.1885
-0.188
-0.1945
-0.196
-0.1965
-0.197
-0.203
-0.208
-0.2145
-0.213
-0.21
-0.2195
-0.2225
-0.225
-0.2285
-0.228
-0.2315
-0.238
-0.2455
-0.2485
-0.252
-0.2555
-0.2585
-0.2635
-0.261
-0.265
-0.27
-0.269
-0.2765
-0.277
-0.2745
-0.28
-0.284
-0.291
-0.2965
-0.2995
-0.2975
-0.295
-0.2995
-0.31
-0.313
-0.3065
-0.3075
-0.31
-0.314
-0.3165
-0.3135
-0.3195
-0.3255
-0.3255
-0.3215
-0.3165
-0.321
-0.3295
-0.3355
-0.333
-0.3275
-0.3315
-0.334
-0.3335
-0.342
-0.337
-0.3325
-0.341
-0.3435
-0.3405
-0.3415
-0.3415
-0.3435
-0.3485
-0.3485
-0.35
-0.346
-0.3405
-0.338
-0.34
-0.3435
-0.345
-0.343
-0.3405
-0.3525
-0.3535
-0.3465
-0.3515
-0.352
-0.352
-0.3545
-0.352
-0.353
-0.357
-0.3565
-0.3595
-0.3625
-0.3585
-0.362
-0.3595
-0.3605
-0.3625
-0.3595
-0.362
-0.355
-0.3535
-0.356
-0.3585
-0.354
-0.351
-0.3605
-0.356
-0.3505
-0.3545
-0.3625
-0.359
-0.3575
-0.3625
-0.3555
-0.3545
-0.3495
-0.349
-0.3555
-0.3595
-0.3655
-0.361
-0.353
-0.3515
-0.3545
-0.354
-0.3505
-0.354
-0.3585
-0.3605
-0.3635
-0.366
-0.3665
-0.3655
-0.3635
-0.3585
-0.3535
-0.3545
-0.3575
-0.359
-0.356
-0.355
-0.353
-0.346
-0.35
-0.349
-0.345
-0.348
-0.348
-0.3495
-0.3555
-0.355
-0.3505
-0.347
-0.344
-0.3475
-0.3455
-0.346
-0.352
-0.354
-0.344
-0.3335
-0.3465
-0.3455
-0.3425
-0.351
-0.3475
-0.347
-0.3415
-0.3465
-0.3525
-0.343
-0.3475
-0.3535
-0.3515
-0.3455
-0.3435
-0.3475
-0.349
-0.3515
-0.3535
-0.3545
-0.36
-0.3585
-0.3555
-0.358
-0.3565
-0.356
-0.352
-0.353
-0.3615
-0.3635
-0.36
-0.3575
-0.3535
-0.3535
-0.362
-0.367
-0.363
-0.3585
-0.362
-0.361
-0.36
-0.36
-0.361
-0.3615
-0.359
-0.3625
-0.356
-0.3545
-0.355
-0.3575
-0.3625
-0.3555
-0.3555
-0.368
-0.3745
-0.3705
-0.368
-0.362
-0.3595
-0.3655
-0.364
-0.37
-0.371
-0.3665
-0.3685
-0.361
-0.358
-0.3575
-0.3545
-0.3525
-0.353
-0.361
-0.3655
-0.374
-0.3685
-0.368
-0.3705
-0.3615
-0.366
-0.367
-0.376
-0.3795
-0.374
-0.372
-0.368
-0.3675
-0.3615
-0.366
-0.372
-0.3775
-0.379
-0.368
-0.365
-0.3665
-0.365
-0.363
-0.3665
-0.365
-0.364
-0.3645
-0.365
-0.3605
-0.36
-0.367
-0.366
-0.3675
-0.362
-0.364
-0.3625
-0.3595
-0.3655
-0.365
-0.376
-0.37
-0.3635
-0.367
-0.365
-0.3725
-0.372
-0.3675
-0.372
-0.367
-0.3695
-0.378
-0.375
-0.371
-0.3655
-0.369
-0.37
-0.3695
-0.3735
-0.3705
-0.3685
-0.3675
-0.366
-0.3675
-0.37
-0.3725
-0.366
-0.3645
-0.3685
-0.368
-0.369
-0.3715
-0.3755
-0.3685
-0.3635
-0.362
-0.3665
-0.37
-0.3645
-0.3695
-0.3725
-0.365
-0.364
-0.3725
-0.372
-0.3625
-0.366
-0.3715
-0.37
-0.3675
-0.367
-0.364
-0.369
-0.3775
-0.3625
-0.36
-0.3655
-0.3585
-0.3585
-0.3555
-0.3585
-0.3655
-0.3715
-0.37
-0.3675
-0.3695
-0.367
-0.368
-0.372
-0.37
-0.3665
-0.3665
-0.3605
-0.3615
-0.376
-0.373
-0.367
-0.3725
-0.365
-0.367
-0.3705
-0.367
-0.3665
-0.366
-0.364
-0.3575
-0.369
-0.376
-0.3725
-0.3715
-0.367
-0.3665
-0.3665
-0.3685
-0.3685
-0.3625
-0.3685
-0.374
-0.3725
-0.373
-0.372
-0.3705
-0.3705
-0.3715
-0.368
-0.3685
-0.378
-0.3775
-0.3785
-0.3745
-0.3705
-0.3755
-0.373
-0.3755
-0.37
-0.3645
-0.3695
-0.367
-0.3695
-0.374
-0.369
-0.3615
-0.3655
-0.37
-0.363
-0.364
-0.373
-0.3755
-0.369
-0.366
-0.3655
-0.3725
-0.3755
-0.3715
-0.3725
-0.3715
-0.377
-0.378
-0.3785
-0.377
-0.374
-0.3705
-0.37
-0.3715
-0.3705
-0.372
-0.367
-0.3675
-0.3675
-0.37
-0.3645
-0.355
-0.3625
-0.359
-0.3495
-0.347
-0.3495
-0.353
-0.35
-0.349
-0.348
-0.347
-0.349
-0.346
-0.335
-0.3385
-0.343
-0.336
-0.3335
-0.3345
-0.3285
-0.3235
-0.335
-0.337
-0.3345
-0.3305
-0.3335
-0.3415
-0.3345
-0.327
-0.3215
-0.325
-0.322
-0.3185
-0.314
-0.3115
-0.3155
-0.3095
-0.3065
-0.3015
-0.2875
-0.2825
-0.2845
-0.2835
-0.2855
-0.2895
-0.281
-0.2685
-0.277
-0.2875
-0.293
-0.296
-0.295
-0.2925
-0.2875
-0.2865
-0.2915
-0.297
-0.295
-0.2975
-0.3055
-0.31
-0.3095
-0.3175
-0.3285
-0.325
-0.324
-0.325
-0.3325
-0.3465
-0.351
-0.351
-0.354
-0.3535
-0.3515
-0.3535
-0.3495
-0.3545
-0.358
-0.3525
-0.353
-0.349
-0.3485
-0.3475
-0.3405
-0.3475
-0.3555
-0.356
-0.3595
-0.3585
-0.3545
-0.356
-0.367
-0.368
-0.3615
-0.3605
-0.366
-0.374
-0.3675
-0.3675
-0.3665
-0.368
-0.3735
-0.371
-0.372
-0.376
-0.3825
-0.3825
-0.379
-0.378
-0.372
-0.371
-0.3765
-0.38
-0.379
-0.3735
-0.3775
-0.3855
-0.379
-0.38
-0.381
-0.375
-0.38
-0.3775
-0.3695
-0.3695
-0.374
-0.3755
-0.3795
-0.382
-0.3835
-0.3855
-0.3805
-0.3825
-0.387
-0.385
-0.384
-0.386
-0.385
-0.386
-0.384
-0.3845
-0.392
-0.3895
-0.3955
-0.4065
-0.4135
-0.421
-0.4245
-0.436
-0.446
-0.459
-0.467
-0.469
-0.4775
-0.4705
-0.4525
-0.4385
-0.42
-0.399
-0.3805
-0.3465
-0.299
-0.252
-0.1985
-0.1295
-0.0615
-0.002
0.0675
0.137
0.1985
0.2715
0.3245
0.3685
0.433
0.4735
0.4985
0.527
0.5575
0.5785
0.6045
0.627
0.6115
0.581
0.533
0.4885
0.4455
0.396
0.3505
0.2875
0.2105
0.1215
0.0175
-0.087
-0.1555
-0.189
-0.2135
-0.227
-0.2295
-0.224
-0.224
-0.222
-0.219
-0.2265
-0.226
-0.2345
-0.245
-0.246
-0.245
-0.2425
-0.252
-0.2515
-0.252
-0.262
-0.2685
-0.2765
-0.281
-0.2885
-0.2935
-0.2925
-0.304
-0.314
-0.317
-0.319
-0.3205
-0.33
-0.33
-0.3255
-0.328
-0.3335
-0.335
-0.337
-0.345
-0.3435
-0.343
-0.345
-0.3445
-0.346
-0.351
-0.3545
-0.345
-0.3445
-0.3495
-0.351
-0.3545
-0.352
-0.348
-0.3505
-0.351
-0.3515
-0.3525
-0.3475
-0.3575
-0.3625
-0.3595
-0.3585
-0.355
-0.359
-0.348
-0.344
-0.353
-0.3525
-0.3515
-0.3455
-0.347
-0.3605
-0.3565
-0.35
-0.3565
-0.354
-0.353
-0.3565
-0.3555
-0.352
-0.3515
-0.3585
-0.353
-0.3505
-0.351
-0.351
-0.357
-0.3495
-0.3515
-0.3475
-0.3425
-0.3455
-0.3415
-0.3455
-0.3505
-0.356
-0.3535
-0.3455
-0.3455
-0.349
-0.345
-0.342
-0.337
-0.329
-0.34
-0.336
-0.3365
-0.3445
-0.3395
-0.3335
-0.3305
-0.3365
-0.345
-0.349
-0.3435
-0.3395
-0.3375
-0.3425
-0.3435
-0.3335
-0.337
-0.3425
-0.3385
-0.3405
-0.3415
-0.34
-0.341
-0.3345
-0.334
-0.347
-0.3485
-0.336
-0.3375
-0.3375
-0.333
-0.325
-0.324
-0.337
-0.337
-0.338
-0.3325
-0.3415
-0.3425
-0.335
-0.342
-0.333
-0.337
-0.3385
-0.3355
-0.333
-0.328
-0.3345
-0.3325
-0.33
-0.332
-0.34
-0.3365
-0.333
-0.3305
-0.3215
-0.3235
-0.3315
-0.333
-0.3225
-0.3205
-0.3245
-0.328
-0.3255
-0.3225
-0.3185
-0.315
-0.323
-0.3225
-0.3155
-0.314
-0.3155
-0.3135
-0.3105
-0.3085
-0.312
-0.314
-0.312
-0.308
-0.303
-0.297
-0.296
-0.299
-0.3055
-0.302
-0.2965
-0.299
-0.291
-0.295
-0.295
-0.2875
-0.297
-0.299
-0.296
-0.293
-0.294
-0.297
-0.293
-0.2945
-0.29
-0.2815
-0.2815
-0.281
-0.281
-0.283
-0.2835
-0.278
-0.268
-0.2715
-0.2785
-0.274
-0.2735
-0.272
-0.267
-0.264
-0.267
-0.265
-0.256
-0.25
-0.247
-0.2545
-0.2565
-0.2535
-0.2475
-0.2385
-0.2435
-0.2485
-0.247
-0.241
-0.2375
-0.236
-0.2335
-0.229
-0.226
-0.2305
-0.225
-0.2245
-0.2255
-0.225
-0.225
-0.2225
-0.2205
-0.214
-0.219
-0.2205
-0.2165
-0.211
-0.208
-0.2095
-0.211
-0.207
-0.201
-0.2035
-0.2075
-0.206
-0.2025
-0.1985
-0.194
-0.1975
-0.2015
-0.202
-0.2005
-0.1925
-0.197
-0.202
-0.1915
-0.1925
-0.1955
-0.1935
-0.1935
-0.198
-0.2005
-0.1925
-0.1925
-0.1975
-0.201
-0.201
-0.2015
-0.2015
-0.198
-0.199
-0.2015
-0.208
-0.2065
-0.2035
-0.2085
-0.212
-0.215
-0.21
-0.207
-0.2165
-0.2275
-0.23
-0.228
-0.23
-0.2355
-0.2385
-0.2415
-0.246
-0.25
-0.2515
-0.252
-0.252
-0.255
-0.259
-0.263
-0.2705
-0.2715
-0.2705
-0.277
-0.2795
-0.285
-0.2915
-0.2955
-0.299
-0.2965
-0.299
-0.3025
-0.304
-0.312
-0.309
-0.3185
-0.3255
-0.3185
-0.3195
-0.3215
-0.328
-0.3315
-0.334
-0.334
-0.332
-0.334
-0.3365
-0.3375
-0.338
-0.336
-0.337
-0.3405
-0.3415
-0.343
-0.3425
-0.3455
-0.3435
-0.337
-0.343
-0.3515
-0.352
-0.3485
-0.344
-0.344
-0.3435
-0.3435
-0.345
-0.343
-0.347
-0.3455
-0.344
-0.346
-0.3445
-0.352
-0.3545
-0.353
-0.354
-0.354
-0.3535
-0.349
-0.358
-0.362
-0.3565
-0.3565
-0.351
-0.3525
-0.359
-0.36
-0.3595
-0.3585
-0.3605
-0.366
-0.3655
-0.363
-0.366
-0.3675
-0.3625
-0.364
-0.3695
-0.368
-0.3665
-0.3665
-0.361
-0.362
-0.366
-0.3625
-0.3635
-0.3585
-0.359
-0.359
-0.355
-0.3555
-0.3555
-0.3565
-0.3565
-0.3585
-0.357
-0.3555
-0.356
-0.3565
-0.354
-0.356
-0.3555
-0.353
-0.356
-0.357
-0.357
-0.354
-0.353
-0.3515
-0.3525
-0.353
-0.3505
-0.3495
-0.3505
-0.3545
-0.352
-0.35
-0.3515
-0.349
-0.348
-0.346
-0.345
-0.344
-0.3365
-0.338
-0.344
-0.342
-0.3465
-0.3485
-0.346
-0.349
-0.348
-0.3455
-0.341
-0.34
-0.3425
-0.341
-0.337
-0.337
-0.3395
-0.34
-0.3445
-0.3445
-0.344
-0.343
-0.342
-0.3465
-0.3465
-0.346
-0.3415
-0.338
-0.3435
-0.3465
-0.346
-0.343
-0.3455
-0.3455
-0.3455
-0.351
-0.35
-0.347
-0.3465
-0.3535
-0.353
-0.347
-0.3485
-0.345
-0.3455
-0.3455
-0.343
-0.3455
-0.346
-0.349
-0.3535
-0.3485
-0.3435
-0.3505
-0.3565
-0.3515
-0.3505
-0.35
-0.3495
-0.35
-0.346
-0.3485
-0.353
-0.3555
-0.355
-0.3525
-0.35
-0.3535
-0.356
-0.3515
-0.355
-0.358
-0.3555
-0.35
-0.3515
-0.356
-0.3545
-0.354
-0.3535
-0.356
-0.3555
-0.3545
-0.357
-0.3615
-0.366
-0.3585
-0.357
-0.361
-0.3585
-0.3615
-0.364
-0.3625
-0.3625
-0.3665
-0.361
-0.356
-0.3565
-0.358
-0.3605
-0.3605
-0.3605
-0.3585
-0.361
-0.359
-0.3575
-0.3565
-0.357
-0.3605
-0.359
-0.353
-0.3435
-0.3495
-0.3585
-0.3555
-0.353
-0.3565
-0.3555
-0.356
-0.3585
-0.3575
-0.3595
-0.357
-0.356
-0.36
-0.3565
-0.353
-0.3585
-0.3595
-0.36
-0.3585
-0.3525
-0.354
-0.3565
-0.356
-0.361
-0.367
-0.3695
-0.3625
-0.361
-0.364
-0.363
-0.3645
-0.362
-0.3625
-0.3655
-0.366
-0.359
-0.36
-0.367
-0.3615
-0.363
-0.3655
-0.363
-0.3605
-0.3605
-0.361
-0.3625
-0.3625
-0.3635
-0.3645
-0.3625
-0.365
-0.359
-0.355
-0.3615
-0.3665
-0.372
-0.3675
-0.3645
-0.366
-0.3655
-0.365
-0.3625
-0.364
-0.3665
-0.3685
-0.3685
-0.3665
-0.3685
-0.37
-0.3705
-0.373
-0.376
-0.3755
-0.373
-0.369
-0.3695
-0.373
-0.37
-0.367
-0.367
-0.369
-0.374
-0.372
-0.3705
-0.374
-0.3735
-0.3725
-0.371
-0.3715
-0.3725
-0.3715
-0.372
-0.3705
-0.367
-0.368
-0.3695
-0.368
-0.3665
-0.369
-0.3705
-0.368
-0.371
-0.373
-0.3735
-0.3705
-0.3695
-0.37
-0.3695
-0.371
-0.37
-0.3695
-0.37
-0.3685
-0.365
-0.3655
-0.365
-0.3665
-0.3675
-0.368
-0.3715
-0.376
-0.3715
-0.3695
-0.371
-0.3665
-0.3725
-0.372
-0.369
-0.374
-0.375
-0.376
-0.3765
-0.3785
-0.377
-0.372
-0.374
-0.3745
-0.372
-0.371
-0.3675
-0.3695
-0.37
-0.3715
-0.3715
-0.3695
-0.373
-0.3725
-0.3725
-0.3725
-0.374
-0.374
-0.366
-0.364
-0.3725
-0.375
-0.373
-0.376
-0.376
-0.3725
-0.372
-0.37
-0.3685
-0.3695
-0.372
-0.376
-0.375
-0.371
-0.37
-0.371
-0.372
-0.364
-0.3575
-0.362
-0.362
-0.358
-0.358
-0.3585
-0.357
-0.3535
-0.3485
-0.3475
-0.3515
-0.345
-0.3375
-0.3415
-0.345
-0.343
-0.3405
-0.3365
-0.3365
-0.34
-0.3345
-0.3325
-0.34
-0.342
-0.343
-0.339
-0.329
-0.33
-0.3305
-0.3255
-0.3245
-0.323
-0.3185
-0.314
-0.307
-0.303
-0.305
-0.3035
-0.293
-0.2905
-0.2965
-0.2965
-0.294
-0.2895
-0.2825
-0.28
-0.283
-0.288
-0.294
-0.294
-0.296
-0.2945
-0.293
-0.2945
-0.2915
-0.2975
-0.2965
-0.295
-0.3025
-0.307
-0.3095
-0.3085
-0.3135
-0.318
-0.32
-0.326
-0.3385
-0.35
-0.346
-0.3485
-0.352
-0.347
-0.349
-0.3485
-0.3505
-0.353
-0.3545
-0.3525
-0.35
-0.354
-0.354
-0.3515
-0.3535
-0.3595
-0.364
-0.3685
-0.3675
-0.3655
-0.3665
-0.3615
-0.362
-0.3635
-0.363
-0.367
-0.3685
-0.366
-0.365
-0.371
-0.373
-0.3745
-0.3745
-0.371
-0.374
-0.378
-0.3785
-0.375
-0.3785
-0.382
-0.38
-0.3805
-0.383
-0.386
-0.387
-0.385
-0.38
-0.378
-0.3805
-0.3815
-0.3795
-0.3815
-0.3785
-0.381
-0.3835
-0.38
-0.382
-0.383
-0.3845
-0.3895
-0.389
-0.3825
-0.3825
-0.3865
-0.389
-0.386
-0.3845
-0.388
-0.3875
-0.3885
-0.3935
-0.3955
-0.3965
-0.401
-0.4065
-0.4155
-0.4235
-0.426
-0.437
-0.4485
-0.4575
-0.4655
-0.4735
-0.481
-0.484
-0.4875
-0.473
-0.4505
-0.43
-0.4075
-0.3805
-0.343
-0.2975
-0.248
-0.1865
-0.1095
-0.035
0.0245
0.09
0.16
0.217
0.281
0.3435
0.405
0.4545
0.486
0.5205
0.5475
0.5805
0.6145
0.641
0.6555
0.629
0.5845
0.5395
0.4915
0.451
0.4035
0.355
0.2935
0.2195
0.135
0.044
-0.045
-0.112
-0.1425
-0.1665
-0.188
-0.202
-0.2065
-0.21
-0.2125
-0.214
-0.217
-0.219
-0.222
-0.226
-0.232
-0.2385
-0.244
-0.2485
-0.2535
-0.261
-0.2695
-0.275
-0.281
-0.2895
-0.293
-0.2985
-0.307
-0.3105
-0.3115
-0.3145
-0.3205
-0.3235
-0.325
-0.33
-0.3305
-0.3295
-0.3325
-0.3325
-0.3325
-0.3325
-0.3345
-0.336
-0.3365
-0.338
-0.336
-0.3365
-0.3395
-0.3415
-0.3435
-0.3455
-0.3455
-0.347
-0.348
-0.348
-0.3485
-0.35
-0.353
-0.353
-0.35
-0.349
-0.35
-0.35
-0.3515
-0.346
-0.343
-0.3455
-0.3445
-0.346
-0.3475
-0.3485
-0.351
-0.351
-0.354
-0.353
-0.3525
-0.354
-0.351
-0.3525
-0.3535
-0.3525
-0.3525
-0.355
-0.3525
-0.351
-0.356
-0.354
-0.3515
-0.3485
-0.348
-0.345
-0.3455
-0.347
-0.346
-0.348
-0.345
-0.345
-0.3425
-0.3425
-0.3445
-0.3415
-0.338
-0.335
-0.339
-0.3405
-0.3435
-0.3425
-0.342
-0.3425
-0.341
-0.344
-0.3425
-0.341
-0.34
-0.343
-0.344
-0.342
-0.343
-0.3415
-0.3395
-0.342
-0.3425
-0.341
-0.34
-0.3375
-0.341
-0.342
-0.338
-0.3405
-0.3395
-0.339
-0.339
-0.334
-0.3325
-0.336
-0.3365
-0.336
-0.337
-0.3345
-0.334
-0.336
-0.3345
-0.3335
-0.334
-0.3325
-0.335
-0.3345
-0.3295
-0.327
-0.3265
-0.3275
-0.328
-0.325
-0.3205
-0.3195
-0.32
-0.3175
-0.319
-0.321
-0.317
-0.3165
-0.3145
-0.3135
-0.313
-0.312
-0.3115
-0.311
-0.313
-0.3105
-0.312
-0.309
-0.311
-0.3105
-0.3065
-0.306
-0.306
-0.3065
-0.3005
-0.3005
-0.3035
-0.304
-0.3005
-0.301
-0.3035
-0.304
-0.3035
-0.2985
-0.299
-0.2975
-0.2975
-0.2995
-0.3
-0.3015
-0.297
-0.2945
-0.296
-0.294
-0.2915
-0.2905
-0.2895
-0.286
-0.285
-0.2865
-0.2845
-0.281
-0.28
-0.2815
-0.28
-0.278
-0.2775
-0.2775
-0.276
-0.276
-0.276
-0.2735
-0.267
-0.267
-0.2665
-0.2665
-0.2685
-0.2645
-0.265
-0.265
-0.2645
-0.261
-0.26
-0.2625
-0.258
-0.255
-0.2535
-0.2525
-0.248
-0.2495
-0.251
-0.2465
-0.2425
-0.239
-0.239
-0.237
-0.2335
-0.2365
-0.2375
-0.2335
-0.232
-0.2275
-0.2235
-0.2225
-0.2215
-0.2215
-0.2205
-0.216
-0.214
-0.217
-0.2185
-0.2165
-0.2145
-0.2155
-0.2135
-0.2125
-0.213
-0.212
-0.2135
-0.211
-0.2075
-0.208
-0.2065
-0.205
-0.205
-0.2045
-0.2025
-0.2015
-0.1995
-0.196
-0.195
-0.1935
-0.192
-0.1915
-0.192
-0.1935
-0.1925
-0.195
-0.197
-0.192
-0.1925
-0.195
-0.1955
-0.198
-0.2015
-0.2035
-0.2005
-0.2015
-0.2045
-0.2045
-0.2085
-0.212
-0.212
-0.2145
-0.2185
-0.2215
-0.2265
-0.2295
-0.229
-0.2335
-0.238
-0.243
-0.2455
-0.2445
-0.2475
-0.251
-0.2505
-0.2545
-0.258
-0.2625
-0.268
-0.269
-0.2755
-0.2765
-0.2745
-0.2785
-0.2815
-0.285
-0.29
-0.2925
-0.2965
-0.299
-0.3015
-0.3035
-0.302
-0.3025
-0.3045
-0.3105
-0.3135
-0.3155
-0.319
-0.3205
-0.322
-0.3215
-0.324
-0.3275
-0.328
-0.331
-0.334
-0.3355
-0.335
-0.3345
-0.3375
-0.3425
-0.344
-0.342
-0.346
-0.3465
-0.346
-0.3475
-0.35
-0.352
-0.355
-0.3555
-0.3535
-0.3565
-0.358
-0.3585
-0.359
-0.3605
-0.3615
-0.3605
-0.3635
-0.3635
-0.365
-0.3655
-0.3655
-0.367
-0.367
-0.3685
-0.369
-0.3675
-0.367
-0.367
-0.368
-0.367
-0.3665
-0.368
-0.3665
-0.3665
-0.367
-0.366
-0.366
-0.3655
-0.3655
-0.3665
-0.367
-0.3685
-0.37
-0.3715
-0.3695
-0.3675
-0.3675
-0.3695
-0.3695
-0.368
-0.368
-0.366
-0.3705
-0.3705
-0.368
-0.3665
-0.365
-0.366
-0.365
-0.366
-0.365
-0.364
-0.366
-0.3675
-0.3675
-0.366
-0.364
-0.362
-0.3625
-0.3645
-0.367
-0.367
-0.3685
-0.371
-0.368
-0.3655
-0.366
-0.3655
-0.364
-0.363
-0.361
-0.361
-0.363
-0.3635
-0.364
-0.361
-0.3605
-0.363
-0.3605
-0.3585
-0.3575
-0.358
-0.3585
-0.358
-0.359
-0.36
-0.36
-0.358
-0.3575
-0.359
-0.3645
-0.3665
-0.3615
-0.3575
-0.3565
-0.361
-0.362
-0.36
-0.359
-0.358
-0.36
-0.3595
-0.358
-0.3575
-0.3575
-0.361
-0.361
-0.3595
-0.357
-0.3575
-0.3575
-0.356
-0.355
-0.356
-0.358
-0.3555
-0.356
-0.355
-0.356
-0.359
-0.356
-0.3565
-0.357
-0.3575
-0.3575
-0.3555
-0.356
-0.3535
-0.354
-0.355
-0.3555
-0.3585
-0.359
-0.361
-0.3615
-0.3595
-0.359
-0.3625
-0.3645
-0.3655
-0.3675
-0.3675
-0.3695
-0.3725
-0.3725
-0.373
-0.371
-0.369
-0.3665
-0.3665
-0.367
-0.3635
-0.3655
-0.367
-0.3665
-0.3675
-0.3695
-0.368
-0.3705
-0.373
-0.3715
-0.373
-0.373
-0.3705
-0.3715
-0.3705
-0.367
-0.3705
-0.373
-0.3715
-0.37
-0.3705
-0.3735
-0.3715
-0.37
-0.373
-0.3725
-0.3715
-0.3725
-0.3705
-0.369
-0.3745
-0.376
-0.3735
-0.3735
-0.3725
-0.374
-0.374
-0.3765
-0.3795
-0.3785
-0.375
-0.3745
-0.375
-0.3755
-0.378
-0.379
-0.377
-0.3775
-0.3785
-0.379
-0.382
-0.3825
-0.3825
-0.3815
-0.3805
-0.3805
-0.381
-0.3815
-0.382
-0.3825
-0.3805
-0.379
-0.381
-0.381
-0.383
-0.382
-0.379
-0.382
-0.383
-0.384
-0.385
-0.385
-0.384
-0.3805
-0.381
-0.3815
-0.3825
-0.383
-0.3825
-0.382
-0.378
-0.3815
-0.386
-0.3865
-0.384
-0.3845
-0.3865
-0.384
-0.3855
-0.3865
-0.3855
-0.384
-0.3845
-0.3815
-0.3815
-0.3795
-0.38
-0.383
-0.3775
-0.382
-0.382
-0.3765
-0.379
-0.381
-0.3785
-0.3745
-0.376
-0.3765
-0.374
-0.3735
-0.3765
-0.3795
-0.3805
-0.3845
-0.3825
-0.379
-0.3825
-0.3835
-0.384
-0.3845
-0.381
-0.3815
-0.385
-0.383
-0.38
-0.379
-0.3785
-0.385
-0.385
-0.38
-0.382
-0.3825
-0.3835
-0.3855
-0.3855
-0.386
-0.383
-0.381
-0.38
-0.383
-0.388
-0.385
-0.384
-0.3825
-0.381
-0.3845
-0.3825
-0.379
-0.3805
-0.378
-0.376
-0.3785
-0.377
-0.379
-0.3805
-0.377
-0.3795
-0.382
-0.38
-0.3805
-0.3845
-0.385
-0.382
-0.3835
-0.3845
-0.3855
-0.3865
-0.3835
-0.3805
-0.381
-0.381
-0.382
-0.384
-0.3835
-0.384
-0.3855
-0.387
-0.3865
-0.3845
-0.383
-0.3835
-0.3835
-0.383
-0.383
-0.381
-0.381
-0.382
-0.381
-0.381
-0.3835
-0.385
-0.385
-0.3845
-0.384
-0.3845
-0.3825
-0.382
-0.385
-0.3835
-0.38
-0.3795
-0.382
-0.382
-0.3795
-0.3795
-0.379
-0.378
-0.3755
-0.3715
-0.368
-0.371
-0.3675
-0.3615
-0.3645
-0.3645
-0.3645
-0.3625
-0.36
-0.3565
-0.356
-0.3575
-0.3555
-0.353
-0.349
-0.351
-0.351
-0.351
-0.3515
-0.348
-0.351
-0.3505
-0.343
-0.34
-0.3475
-0.3485
-0.3465
-0.349
-0.346
-0.344
-0.341
-0.338
-0.3325
-0.3295
-0.331
-0.327
-0.3225
-0.316
-0.312
-0.309
-0.3045
-0.3065
-0.3055
-0.301
-0.2995
-0.2985
-0.2945
-0.285
-0.2845
-0.2855
-0.286
-0.29
-0.2905
-0.2895
-0.287
-0.2875
-0.288
-0.291
-0.295
-0.296
-0.2995
-0.3065
-0.31
-0.3145
-0.3195
-0.321
-0.3255
-0.326
-0.3305
-0.3415
-0.346
-0.3475
-0.35
-0.3515
-0.3545
-0.359
-0.357
-0.357
-0.358
-0.36
-0.3635
-0.3645
-0.367
-0.3665
-0.3685
-0.374
-0.378
-0.377
-0.3735
-0.3735
-0.373
-0.373
-0.3725
-0.3705
-0.371
-0.3745
-0.3765
-0.378
-0.3775
-0.3785
-0.38
-0.3815
-0.385
-0.385
-0.386
-0.3885
-0.389
-0.3865
-0.3885
-0.3895
-0.389
-0.3895
-0.3875
-0.388
-0.3915
-0.392
-0.391
-0.3905
-0.3925
-0.3935
-0.3925
-0.3915
-0.391
-0.3905
-0.3915
-0.395
-0.393
-0.3925
-0.394
-0.395
-0.396
-0.3945
-0.3925
-0.3935
-0.3975
-0.3955
-0.3945
-0.396
-0.395
-0.398
-0.401
-0.4005
-0.401
-0.403
-0.4065
-0.4145
-0.4225
-0.4275
-0.4355
-0.448
-0.461
-0.4715
-0.4805
-0.491
-0.4995
-0.503
-0.503
-0.489
-0.4675
-0.446
-0.4225
-0.3925
-0.3515
-0.308
-0.261
-0.194
-0.117
-0.0415
0.026
0.094
0.167
0.2345
0.302
0.3645
0.429
0.4785
0.514
0.541
0.5735
0.62
0.6505
0.6765
0.686
0.664
0.626
0.581
0.527
0.475
0.4285
0.372
0.305
0.234
0.157
0.079
-0.001
-0.071
-0.111
-0.141
-0.17
-0.189
-0.199
-0.207
-0.2105
-0.2145
-0.2195
-0.226
-0.2305
-0.2335
-0.241
-0.245
-0.25
-0.2565
-0.264
-0.273
-0.2805
-0.289
-0.296
-0.3005
-0.305
-0.308
-0.3115
-0.317
-0.3215
-0.3265
-0.333
-0.336
-0.338
-0.341
-0.3435
-0.346
-0.349
-0.353
-0.351
-0.348
-0.3535
-0.3565
-0.3575
-0.3575
-0.3565
-0.3585
-0.359
-0.3605
-0.362
-0.362
-0.362
-0.3615
-0.3605
-0.362
-0.365
-0.365
-0.362
-0.3615
-0.3615
-0.363
-0.364
-0.3645
-0.3645
-0.364
-0.3645
-0.365
-0.3685
-0.368
-0.3665
-0.367
-0.366
-0.3635
-0.3615
-0.36
-0.3585
-0.3595
-0.359
-0.363
-0.3665
-0.363
-0.361
-0.359
-0.361
-0.3635
-0.361
-0.3585
-0.3595
-0.363
-0.3625
-0.3605
-0.361
-0.364
-0.3645
-0.364
-0.364
-0.363
-0.363
-0.3625
-0.3625
-0.3645
-0.368
-0.369
-0.3675
-0.3665
-0.3665
-0.365
-0.3655
-0.3665
-0.3655
-0.3645
-0.365
-0.3655
-0.363
-0.361
-0.3605
-0.3575
-0.356
-0.3575
-0.3565
-0.3575
-0.3575
-0.3565
-0.355
-0.356
-0.3555
-0.353
-0.358
-0.358
-0.357
-0.356
-0.3525
-0.354
-0.3545
-0.354
-0.353
-0.3515
-0.348
-0.3485
-0.3525
-0.35
-0.3475
-0.346
-0.3455
-0.346
-0.346
-0.3455
-0.3455
-0.345
-0.342
-0.34
-0.34
-0.339
-0.3375
-0.337
-0.337
-0.338
-0.3375
-0.3355
-0.3325
-0.3315
-0.333
-0.3335
-0.332
-0.331
-0.3325
-0.332
-0.3285
-0.3305
-0.3285
-0.3255
-0.324
-0.3205
-0.3205
-0.32
-0.319
-0.32
-0.32
-0.3195
-0.3195
-0.3195
-0.317
-0.316
-0.3165
-0.316
-0.3145
-0.3155
-0.3165
-0.3145
-0.313
-0.311
-0.3075
-0.3085
-0.31
-0.3085
-0.3075
-0.31
-0.308
-0.306
-0.3065
-0.305
-0.3045
-0.3025
-0.301
-0.3
-0.297
-0.297
-0.295
-0.2925
-0.2905
-0.2895
-0.289
-0.286
-0.284
-0.284
-0.282
-0.2805
-0.2795
-0.276
-0.274
-0.2735
-0.2705
-0.2685
-0.267
-0.266
-0.263
-0.2595
-0.2575
-0.256
-0.2525
-0.251
-0.2525
-0.2495
-0.2475
-0.2495
-0.249
-0.2475
-0.246
-0.244
-0.2425
-0.2425
-0.241
-0.238
-0.2335
-0.232
-0.2315
-0.229
-0.229
-0.231
-0.2285
-0.2235
-0.2225
-0.2205
-0.218
-0.2185
-0.221
-0.2195
-0.215
-0.214
-0.211
-0.2105
-0.2145
-0.213
-0.208
-0.204
-0.2015
-0.2045
-0.208
-0.2045
-0.1985
-0.197
-0.1985
-0.198
-0.1965
-0.195
-0.192
-0.1925
-0.194
-0.193
-0.1925
-0.1925
-0.193
-0.1925
-0.193
-0.197
-0.196
-0.1955
-0.1965
-0.199
-0.203
-0.2025
-0.2005
-0.2005
-0.204
-0.2075
-0.209
-0.214
-0.2195
-0.2205
-0.2215
-0.225
-0.2255
-0.2295
-0.237
-0.241
-0.246
-0.247
-0.2475
-0.2515
-0.2535
-0.2555
-0.258
-0.264
-0.268
-0.2685
-0.27
-0.2745
-0.2795
-0.2825
-0.2855
-0.289
-0.2915
-0.2915
-0.293
-0.295
-0.2975
-0.2995
-0.303
-0.3065
-0.31
-0.3135
-0.315
-0.3185
-0.322
-0.3225
-0.3235
-0.326
-0.3285
-0.33
-0.33
-0.332
-0.332
-0.3335
-0.3365
-0.338
-0.339
-0.3405
-0.3415
-0.343
-0.3445
-0.344
-0.345
-0.343
-0.345
-0.3485
-0.3455
-0.346
-0.3485
-0.3505
-0.349
-0.3465
-0.347
-0.3475
-0.3485
-0.3485
-0.3495
-0.351
-0.3515
-0.3515
-0.352
-0.3535
-0.3545
-0.355
-0.3535
-0.3555
-0.359
-0.3585
-0.3575
-0.3565
-0.359
-0.3615
-0.364
-0.366
-0.3655
-0.3645
-0.3625
-0.363
-0.3645
-0.3655
-0.365
-0.366
-0.366
-0.3655
-0.3635
-0.3645
-0.366
-0.3645
-0.3655
-0.365
-0.3635
-0.365
-0.3665
-0.365
-0.364
-0.3645
-0.3645
-0.363
-0.362
-0.3615
-0.3605
-0.3625
-0.362
-0.361
-0.3625
-0.364
-0.363
-0.365
-0.367
-0.3655
-0.3655
-0.365
-0.3635
-0.36
-0.3595
-0.3615
-0.358
-0.3585
-0.3605
-0.362
-0.3635
-0.3635
-0.363
-0.3605
-0.362
-0.3675
-0.3675
-0.3645
-0.3655
-0.365
-0.364
-0.368
-0.3685
-0.3675
-0.3685
-0.3645
-0.3635
-0.365
-0.363
-0.3635
-0.363
-0.36
-0.356
-0.354
-0.357
-0.3565
-0.359
-0.359
-0.3565
-0.356
-0.354
-0.356
-0.3555
-0.355
-0.3555
-0.3545
-0.356
-0.359
-0.3555
-0.3535
-0.3575
-0.3575
-0.3555
-0.357
-0.3615
-0.363
-0.36
-0.3595
-0.361
-0.3585
-0.362
-0.3665
-0.365
-0.365
-0.3625
-0.3645
-0.3665
-0.3665
-0.3665
-0.3625
-0.3645
-0.364
-0.3625
-0.3625
-0.3625
-0.365
-0.3685
-0.3705
-0.365
-0.365
-0.367
-0.368
-0.3675
-0.3675
-0.369
-0.3665
-0.3665
-0.3675
-0.366
-0.368
-0.3685
-0.368
-0.3705
-0.3705
-0.3695
-0.3685
-0.3685
-0.3685
-0.367
-0.3645
-0.367
-0.3705
-0.37
-0.372
-0.3715
-0.373
-0.3745
-0.3725
-0.3705
-0.3725
-0.3735
-0.3695
-0.3715
-0.373
-0.3715
-0.3725
-0.372
-0.372
-0.3745
-0.3755
-0.375
-0.3725
-0.371
-0.37
-0.368
-0.369
-0.3695
-0.369
-0.3675
-0.3685
-0.3715
-0.3725
-0.3735
-0.372
-0.3725
-0.37
-0.369
-0.3725
-0.371
-0.372
-0.374
-0.3735
-0.3745
-0.373
-0.3735
-0.3745
-0.374
-0.375
-0.3745
-0.375
-0.3755
-0.378
-0.3785
-0.3775
-0.3785
-0.3775
-0.3755
-0.374
-0.3795
-0.382
-0.378
-0.378
-0.378
-0.376
-0.375
-0.376
-0.377
-0.3795
-0.3785
-0.3755
-0.3755
-0.378
-0.3775
-0.375
-0.375
-0.373
-0.375
-0.3765
-0.3735
-0.3745
-0.3755
-0.3775
-0.3775
-0.3755
-0.375
-0.375
-0.3745
-0.3755
-0.377
-0.3765
-0.377
-0.3775
-0.3775
-0.377
-0.376
-0.374
-0.3735
-0.3755
-0.3765
-0.3775
-0.3775
-0.379
-0.3805
-0.379
-0.3775
-0.376
-0.374
-0.3745
-0.3775
-0.3785
-0.3765
-0.375
-0.3775
-0.377
-0.374
-0.375
-0.3765
-0.3735
-0.3725
-0.3735
-0.3745
-0.3765
-0.377
-0.3755
-0.376
-0.3775
-0.379
-0.3805
-0.3805
-0.382
-0.383
-0.3835
-0.3815
-0.3795
-0.3805
-0.3825
-0.381
-0.382
-0.3835
-0.3825
-0.3835
-0.384
-0.3845
-0.385
-0.387
-0.3895
-0.3905
-0.3895
-0.387
-0.3865
-0.3875
-0.389
-0.39
-0.3895
-0.39
-0.39
-0.386
-0.386
-0.3895
-0.39
-0.3895
-0.3895
-0.3905
-0.3895
-0.3865
-0.3845
-0.3845
-0.3865
-0.387
-0.384
-0.381
-0.3815
-0.3815
-0.3825
-0.3825
-0.3835
-0.384
-0.3805
-0.3805
-0.38
-0.3815
-0.3835
-0.383
-0.381
-0.3815
-0.3835
-0.3825
-0.384
-0.383
-0.381
-0.3805
-0.379
-0.378
-0.3775
-0.3785
-0.378
-0.3755
-0.3735
-0.372
-0.3715
-0.372
-0.37
-0.3685
-0.3665
-0.364
-0.363
-0.363
-0.3635
-0.361
-0.3585
-0.3595
-0.3575
-0.356
-0.355
-0.351
-0.3495
-0.348
-0.3485
-0.354
-0.351
-0.346
-0.345
-0.3435
-0.3495
-0.3525
-0.3505
-0.3485
-0.344
-0.34
-0.3375
-0.337
-0.333
-0.328
-0.3275
-0.325
-0.319
-0.316
-0.3075
-0.301
-0.3
-0.2975
-0.295
-0.292
-0.293
-0.2915
-0.287
-0.2815
-0.2775
-0.2755
-0.2765
-0.284
-0.2865
-0.288
-0.29
-0.2875
-0.286
-0.29
-0.295
-0.298
-0.299
-0.306
-0.3125
-0.314
-0.3175
-0.3205
-0.327
-0.337
-0.3435
-0.351
-0.3575
-0.3615
-0.3625
-0.3625
-0.3655
-0.365
-0.362
-0.365
-0.3655
-0.3655
-0.3665
-0.3685
-0.3715
-0.371
-0.3725
-0.374
-0.374
-0.3745
-0.3765
-0.3765
-0.3765
-0.378
-0.378
-0.3785
-0.379
-0.381
-0.383
-0.385
-0.386
-0.387
-0.391
-0.3945
-0.3945
-0.3935
-0.395
-0.3975
-0.3985
-0.3995
-0.399
-0.4
-0.399
-0.3985
-0.3995
-0.4
-0.4015
-0.4005
-0.4005
-0.399
-0.402
-0.404
-0.4025
-0.404
-0.402
-0.4015
-0.4015
-0.401
-0.4025
-0.4025
-0.402
-0.4025
-0.4005
-0.3995
-0.4005
-0.399
-0.4005
-0.399
-0.3965
-0.398
-0.398
-0.4025
-0.405
-0.403
-0.405
-0.406
-0.41
-0.418
-0.424
-0.4305
-0.438
-0.452
-0.4655
-0.477
-0.487
-0.498
-0.5065
-0.5065
-0.5085
-0.496
-0.475
-0.4525
-0.429
-0.3985
-0.354
-0.307
-0.259
-0.196
-0.117
-0.0405
0.0265
0.0985
0.1735
0.2455
0.3145
0.378
0.446
0.4965
0.534
0.562
0.596
0.642
0.6705
0.699
0.7115
0.688
0.6455
0.598
0.543
0.4925
0.4415
0.3845
0.3195
0.2435
0.161
0.077
-0.0055
-0.0755
-0.1105
-0.141
-0.172
-0.1865
-0.197
-0.206
-0.2095
-0.213
-0.2175
-0.2245
-0.229
-0.232
-0.238
-0.2445
-0.25
-0.256
-0.2645
-0.2735
-0.2795
-0.285
-0.292
-0.298
-0.303
-0.3065
-0.3105
-0.3145
-0.3185
-0.324
-0.3265
-0.33
-0.335
-0.338
-0.341
-0.3435
-0.3475
-0.349
-0.3505
-0.354
-0.353
-0.3545
-0.3575
-0.358
-0.357
-0.3565
-0.356
-0.356
-0.3595
-0.361
-0.362
-0.363
-0.36
-0.36
-0.36
-0.3585
-0.359
-0.36
-0.36
-0.359
-0.36
-0.36
-0.3595
-0.3625
-0.3635
-0.364
-0.363
-0.3625
-0.363
-0.361
-0.362
-0.3615
-0.361
-0.3635
-0.364
-0.363
-0.36
-0.3595
-0.3605
-0.359
-0.3605
-0.362
-0.362
-0.3615
-0.3595
-0.359
-0.3595
-0.361
-0.36
-0.3575
-0.3565
-0.3565
-0.357
-0.3585
-0.3595
-0.3595
-0.3595
-0.3585
-0.3595
-0.36
-0.3585
-0.3575
-0.357
-0.3585
-0.3565
-0.3575
-0.3595
-0.3575
-0.3575
-0.3575
-0.354
-0.352
-0.3535
-0.353
-0.3525
-0.352
-0.3515
-0.352
-0.3525
-0.3535
-0.3545
-0.3555
-0.3545
-0.353
-0.3525
-0.35
-0.347
-0.3455
-0.346
-0.345
-0.345
-0.346
-0.345
-0.345
-0.341
-0.3425
-0.3435
-0.34
-0.3395
-0.338
-0.338
-0.3385
-0.3405
-0.341
-0.338
-0.341
-0.342
-0.3405
-0.3395
-0.338
-0.338
-0.339
-0.3415
-0.3405
-0.34
-0.3385
-0.3375
-0.3375
-0.336
-0.3345
-0.3315
-0.3305
-0.3305
-0.3315
-0.331
-0.332
-0.33
-0.329
-0.3285
-0.327
-0.3265
-0.326
-0.3265
-0.3265
-0.3265
-0.325
-0.3245
-0.322
-0.322
-0.323
-0.3205
-0.3185
-0.317
-0.319
-0.32
-0.317
-0.3165
-0.315
-0.3135
-0.3135
-0.3125
-0.314
-0.3105
-0.308
-0.311
-0.3105
-0.309
-0.3095
-0.3075
-0.3035
-0.303
-0.301
-0.299
-0.2985
-0.2975
-0.2965
-0.295
-0.2955
-0.294
-0.293
-0.294
-0.2935
-0.292
-0.2875
-0.286
-0.285
-0.284
-0.2835
-0.2825
-0.281
-0.2805
-0.279
-0.275
-0.2725
-0.27
-0.27
-0.27
-0.2675
-0.2655
-0.266
-0.266
-0.2655
-0.2645
-0.2585
-0.2565
-0.254
-0.25
-0.2485
-0.2475
-0.2465
-0.2435
-0.2405
-0.2385
-0.236
-0.235
-0.2385
-0.238
-0.2365
-0.2345
-0.2305
-0.229
-0.2285
-0.228
-0.228
-0.2285
-0.229
-0.2275
-0.224
-0.2215
-0.2195
-0.2205
-0.2205
-0.2165
-0.2135
-0.212
-0.211
-0.2105
-0.2105
-0.2095
-0.2055
-0.2065
-0.2065
-0.203
-0.2025
-0.2035
-0.2065
-0.207
-0.2065
-0.2035
-0.2025
-0.2055
-0.2065
-0.2065
-0.205
-0.206
-0.209
-0.209
-0.2105
-0.212
-0.213
-0.2155
-0.216
-0.217
-0.2205
-0.2235
-0.2265
-0.227
-0.2305
-0.2335
-0.235
-0.242
-0.246
-0.25
-0.252
-0.253
-0.258
-0.2595
-0.2625
-0.2675
-0.27
-0.27
-0.274
-0.2765
-0.277
-0.284
-0.285
-0.2865
-0.29
-0.2925
-0.2985
-0.2995
-0.302
-0.3055
-0.307
-0.3095
-0.309
-0.313
-0.3145
-0.317
-0.3215
-0.323
-0.3245
-0.3255
-0.3295
-0.3285
-0.331
-0.334
-0.332
-0.337
-0.3365
-0.3375
-0.3415
-0.344
-0.346
-0.346
-0.3515
-0.353
-0.353
-0.3575
-0.358
-0.3565
-0.359
-0.363
-0.3615
-0.36
-0.3615
-0.3615
-0.361
-0.3625
-0.363
-0.3635
-0.364
-0.3625
-0.362
-0.363
-0.364
-0.3635
-0.3655
-0.367
-0.3665
-0.367
-0.3675
-0.3675
-0.3695
-0.374
-0.3745
-0.3745
-0.375
-0.3735
-0.374
-0.3745
-0.3735
-0.375
-0.3735
-0.373
-0.376
-0.3755
-0.3745
-0.373
-0.371
-0.3705
-0.371
-0.372
-0.372
-0.372
-0.3725
-0.376
-0.375
-0.37
-0.368
-0.3675
-0.37
-0.373
-0.3725
-0.368
-0.3675
-0.3695
-0.37
-0.3715
-0.371
-0.373
-0.371
-0.3665
-0.366
-0.364
-0.366
-0.368
-0.362
-0.3665
-0.3685
-0.363
-0.366
-0.3665
-0.3655
-0.367
-0.369
-0.368
-0.368
-0.37
-0.368
-0.3655
-0.3685
-0.3675
-0.3635
-0.365
-0.366
-0.3655
-0.364
-0.362
-0.361
-0.3625
-0.3635
-0.3635
-0.365
-0.3635
-0.3605
-0.362
-0.362
-0.3595
-0.361
-0.357
-0.357
-0.36
-0.3595
-0.357
-0.355
-0.3595
-0.36
-0.3555
-0.354
-0.355
-0.3565
-0.3595
-0.359
-0.3585
-0.358
-0.3585
-0.36
-0.358
-0.358
-0.3595
-0.359
-0.3595
-0.361
-0.361
-0.362
-0.3655
-0.362
-0.3615
-0.364
-0.362
-0.36
-0.36
-0.3595
-0.3595
-0.3645
-0.363
-0.359
-0.3625
-0.366
-0.368
-0.3665
-0.3665
-0.366
-0.3665
-0.3665
-0.366
-0.3685
-0.3645
-0.36
-0.362
-0.3675
-0.375
-0.3715
-0.364
-0.3655
-0.37
-0.3705
-0.3675
-0.369
-0.368
-0.372
-0.3715
-0.3675
-0.372
-0.3715
-0.3735
-0.3725
-0.369
-0.37
-0.3705
-0.371
-0.3725
-0.3735
-0.3735
-0.37
-0.3685
-0.3705
-0.3705
-0.3715
-0.371
-0.3715
-0.3715
-0.374
-0.377
-0.3735
-0.3735
-0.373
-0.374
-0.375
-0.3735
-0.3755
-0.3795
-0.3815
-0.3785
-0.378
-0.3745
-0.3745
-0.378
-0.378
-0.3765
-0.376
-0.379
-0.38
-0.38
-0.3795
-0.3795
-0.3805
-0.3795
-0.38
-0.379
-0.3755
-0.3735
-0.3735
-0.375
-0.376
-0.378
-0.3755
-0.372
-0.375
-0.374
-0.37
-0.376
-0.381
-0.3755
-0.3725
-0.3745
-0.3805
-0.385
-0.3795
-0.3795
-0.3815
-0.3815
-0.384
-0.383
-0.3795
-0.3755
-0.375
-0.3795
-0.38
-0.3695
-0.367
-0.3745
-0.3785
-0.3795
-0.3795
-0.3745
-0.371
-0.3785
-0.38
-0.38
-0.3805
-0.377
-0.3785
-0.377
-0.376
-0.377
-0.3775
-0.3815
-0.3825
-0.3815
-0.384
-0.3805
-0.379
-0.382
-0.382
-0.3815
-0.3855
-0.388
-0.3875
-0.3895
-0.389
-0.389
-0.389
-0.386
-0.384
-0.3845
-0.384
-0.383
-0.383
-0.385
-0.3855
-0.3795
-0.3805
-0.383
-0.383
-0.3835
-0.386
-0.3885
-0.386
-0.383
-0.385
-0.386
-0.3845
-0.385
-0.3905
-0.389
-0.382
-0.3895
-0.389
-0.3865
-0.3865
-0.386
-0.3865
-0.3845
-0.3895
-0.39
-0.3855
-0.3815
-0.3815
-0.382
-0.3825
-0.3875
-0.389
-0.386
-0.3825
-0.383
-0.3835
-0.3835
-0.3815
-0.382
-0.385
-0.3855
-0.384
-0.3825
-0.3845
-0.3855
-0.387
-0.3865
-0.3825
-0.383
-0.384
-0.3855
-0.389
-0.391
-0.389
-0.385
-0.38
-0.3795
-0.3855
-0.385
-0.3845
-0.3855
-0.386
-0.385
-0.384
-0.3875
-0.384
-0.38
-0.384
-0.3845
-0.3845
-0.385
-0.3815
-0.3795
-0.3755
-0.375
-0.3765
-0.38
-0.3835
-0.3755
-0.3725
-0.3735
-0.371
-0.373
-0.3715
-0.371
-0.3705
-0.367
-0.366
-0.363
-0.3625
-0.364
-0.361
-0.359
-0.362
-0.363
-0.357
-0.3515
-0.3575
-0.3585
-0.3455
-0.3445
-0.3465
-0.3455
-0.3455
-0.3415
-0.342
-0.342
-0.3425
-0.338
-0.3365
-0.338
-0.339
-0.3385
-0.331
-0.3265
-0.328
-0.325
-0.3255
-0.3245
-0.318
-0.3175
-0.308
-0.3065
-0.304
-0.2935
-0.292
-0.288
-0.2885
-0.296
-0.2995
-0.2925
-0.289
-0.2875
-0.283
-0.28
-0.2805
-0.287
-0.291
-0.2835
-0.2815
-0.2875
-0.289
-0.2885
-0.2885
-0.289
-0.293
-0.3005
-0.305
-0.309
-0.312
-0.312
-0.314
-0.319
-0.327
-0.333
-0.3415
-0.347
-0.3515
-0.352
-0.3525
-0.361
-0.3555
-0.351
-0.353
-0.3545
-0.3565
-0.3575
-0.362
-0.3595
-0.3615
-0.3665
-0.3625
-0.365
-0.369
-0.37
-0.3715
-0.3675
-0.37
-0.3725
-0.3715
-0.3755
-0.374
-0.374
-0.378
-0.3815
-0.3805
-0.3795
-0.383
-0.3835
-0.3835
-0.385
-0.3855
-0.389
-0.3895
-0.3895
-0.39
-0.391
-0.393
-0.3905
-0.393
-0.39
-0.387
-0.3925
-0.394
-0.392
-0.393
-0.3915
-0.39
-0.39
-0.39
-0.3925
-0.3895
-0.3915
-0.3955
-0.3915
-0.3915
-0.395
-0.394
-0.395
-0.397
-0.4015
-0.395
-0.3845
-0.3925
-0.396
-0.3935
-0.3975
-0.401
-0.3975
-0.402
-0.411
-0.4185
-0.4285
-0.434
-0.4435
-0.4585
-0.4715
-0.484
-0.494
-0.4995
-0.501
-0.502
-0.4945
-0.4725
-0.4475
-0.4245
-0.3955
-0.357
-0.3165
-0.268
-0.205
-0.1275
-0.048
0.0175
0.0845
0.1595
0.229
0.298
0.3605
0.429
0.4915
0.533
0.561
0.59
0.633
0.664
0.691
0.711
0.6965
0.6555
0.6075
0.5565
0.5085
0.456
0.401
0.334
0.2545
0.165
0.0715
-0.016
-0.097
-0.137
-0.154
-0.1795
-0.194
-0.1955
-0.2045
-0.2125
-0.2155
-0.2195
-0.2235
-0.2275
-0.23
-0.2335
-0.2355
-0.2415
-0.247
-0.2575
-0.268
-0.273
-0.2805
-0.2895
-0.298
-0.304
-0.3125
-0.3185
-0.3255
-0.3285
-0.3255
-0.331
-0.3405
-0.342
-0.3395
-0.3435
-0.3475
-0.354
-0.3545
-0.357
-0.361
-0.3575
-0.36
-0.364
-0.369
-0.368
-0.363
-0.365
-0.3705
-0.369
-0.367
-0.365
-0.364
-0.371
-0.3715
-0.3675
-0.369
-0.371
-0.372
-0.368
-0.3665
-0.37
-0.372
-0.371
-0.3705
-0.3705
-0.368
-0.3685
-0.367
-0.3645
-0.363
-0.3655
-0.368
-0.366
-0.3675
-0.3645
-0.362
-0.358
-0.361
-0.366
-0.3615
-0.358
-0.359
-0.3675
-0.3665
-0.3635
-0.3645
-0.3645
-0.363
-0.3575
-0.359
-0.3605
-0.3565
-0.354
-0.354
-0.353
-0.3515
-0.3535
-0.3545
-0.353
-0.353
-0.352
-0.352
-0.352
-0.3505
-0.3485
-0.3475
-0.3505
-0.3515
-0.35
-0.3455
-0.3435
-0.3475
-0.3465
-0.343
-0.349
-0.3525
-0.348
-0.346
-0.347
-0.3425
-0.3375
-0.3445
-0.3445
-0.339
-0.341
-0.339
-0.338
-0.3395
-0.335
-0.3365
-0.338
-0.3345
-0.3345
-0.333
-0.337
-0.338
-0.335
-0.3395
-0.339
-0.334
-0.334
-0.3335
-0.336
-0.337
-0.333
-0.331
-0.3355
-0.339
-0.3345
-0.3325
-0.3325
-0.3345
-0.339
-0.3365
-0.3315
-0.3355
-0.339
-0.3355
-0.332
-0.3305
-0.332
-0.3295
-0.3275
-0.326
-0.3245
-0.3275
-0.3275
-0.328
-0.324
-0.323
-0.3225
-0.3205
-0.323
-0.324
-0.3235
-0.3205
-0.3215
-0.3225
-0.323
-0.32
-0.3155
-0.318
-0.3175
-0.3185
-0.3135
-0.31
-0.314
-0.315
-0.313
-0.3125
-0.311
-0.309
-0.308
-0.308
-0.309
-0.305
-0.3035
-0.3035
-0.3025
-0.3025
-0.299
-0.297
-0.2965
-0.2955
-0.2935
-0.2925
-0.2925
-0.288
-0.2845
-0.282
-0.2825
-0.28
-0.2765
-0.2745
-0.2715
-0.272
-0.2715
-0.2735
-0.2715
-0.2655
-0.2635
-0.264
-0.266
-0.261
-0.256
-0.2555
-0.2545
-0.2575
-0.2555
-0.253
-0.2505
-0.2485
-0.253
-0.2505
-0.2485
-0.241
-0.235
-0.2425
-0.237
-0.231
-0.2305
-0.225
-0.2265
-0.231
-0.229
-0.227
-0.223
-0.2195
-0.219
-0.2145
-0.215
-0.2135
-0.2135
-0.211
-0.2095
-0.208
-0.2035
-0.205
-0.2015
-0.203
-0.202
-0.2035
-0.205
-0.199
-0.2005
-0.2
-0.196
-0.196
-0.1965
-0.1985
-0.2025
-0.199
-0.196
-0.1925
-0.188
-0.19
-0.1875
-0.1875
-0.193
-0.189
-0.1845
-0.187
-0.1795
-0.183
-0.192
-0.1875
-0.1895
-0.191
-0.189
-0.195
-0.197
-0.2065
-0.209
-0.2015
-0.207
-0.213
-0.224
-0.225
-0.2245
-0.228
-0.2295
-0.2355
-0.2375
-0.2405
-0.2425
-0.2455
-0.2515
-0.2565
-0.2645
-0.267
-0.2685
-0.275
-0.277
-0.2825
-0.286
-0.2855
-0.2895
-0.2935
-0.3005
-0.3015
-0.299
-0.3095
-0.314
-0.3115
-0.3115
-0.3125
-0.3155
-0.3205
-0.324
-0.3225
-0.328
-0.3305
-0.324
-0.3235
-0.3275
-0.335
-0.335
-0.3355
-0.3405
-0.341
-0.346
-0.345
-0.341
-0.345
-0.352
-0.3535
-0.3565
-0.358
-0.354
-0.349
-0.3485
-0.3535
-0.3555
-0.3585
-0.362
-0.367
-0.363
-0.3585
-0.362
-0.355
-0.353
-0.3605
-0.365
-0.3635
-0.361
-0.3625
-0.3585
-0.3635
-0.375
-0.368
-0.3635
-0.3635
-0.364
-0.363
-0.36
-0.368
-0.367
-0.364
-0.37
-0.3725
-0.3715
-0.3685
-0.3705
-0.3765
-0.375
-0.373
-0.3675
-0.365
-0.3695
-0.369
-0.3745
-0.373
-0.3695
-0.37
-0.3645
-0.3695
-0.3685
-0.3635
-0.371
-0.373
-0.372
-0.372
-0.3725
-0.371
-0.3675
-0.376
-0.3715
-0.3635
-0.369
-0.3715
-0.3705
-0.368
-0.371
-0.373
-0.368
-0.362
-0.3655
-0.3725
-0.3715
-0.374
-0.367
-0.366
-0.37
-0.3685
-0.3705
-0.3655
-0.366
-0.3735
-0.374
-0.364
-0.365
-0.364
-0.3635
-0.371
-0.3655
-0.3665
-0.367
-0.368
-0.37
-0.371
-0.3715
-0.368
-0.3685
-0.364
-0.361
-0.36
-0.356
-0.3605
-0.36
-0.3605
-0.3615
-0.358
-0.359
-0.3575
-0.3585
-0.3605
-0.3625
-0.364
-0.3595
-0.3635
-0.3565
-0.359
-0.367
-0.3545
-0.357
-0.362
-0.3645
-0.368
-0.368
-0.366
-0.358
-0.3555
-0.361
-0.3625
-0.366
-0.369
-0.366
-0.3635
-0.363
-0.365
-0.366
-0.363
-0.367
-0.367
-0.3625
-0.3585
-0.364
-0.372
-0.3635
-0.363
-0.363
-0.363
-0.36
-0.358
-0.3665
-0.371
-0.3755
-0.3725
-0.3695
-0.367
-0.363
-0.3615
-0.363
-0.375
-0.379
-0.3675
-0.3685
-0.371
-0.363
-0.3695
-0.375
-0.372
-0.3725
-0.371
-0.3705
-0.374
-0.376
-0.377
-0.3755
-0.3755
-0.3775
-0.379
-0.3785
-0.377
-0.374
-0.3725
-0.376
-0.373
-0.3775
-0.383
-0.376
-0.376
-0.3805
-0.3825
-0.3785
-0.375
-0.378
-0.3765
-0.374
-0.3765
-0.3755
-0.3725
-0.3725
-0.372
-0.3765
-0.379
-0.379
-0.3765
-0.3735
-0.3745
-0.369
-0.3715
-0.374
-0.3725
-0.3745
-0.37
-0.3685
-0.372
-0.375
-0.3745
-0.3805
-0.386
-0.381
-0.3805
-0.3775
-0.374
-0.3745
-0.3785
-0.3765
-0.3705
-0.374
-0.38
-0.3795
-0.383
-0.383
-0.381
-0.3825
-0.3735
-0.38
-0.3855
-0.385
-0.3865
-0.384
-0.3815
-0.3825
-0.3885
-0.3865
-0.387
-0.3885
-0.3865
-0.385
-0.386
-0.3835
-0.3805
-0.3835
-0.3805
-0.386
-0.3845
-0.3795
-0.388
-0.3855
-0.384
-0.384
-0.385
-0.3845
-0.3805
-0.382
-0.3775
-0.3765
-0.3835
-0.3865
-0.385
-0.38
-0.38
-0.3765
-0.3775
-0.3835
-0.384
-0.3855
-0.3775
-0.376
-0.383
-0.3785
-0.3735
-0.3745
-0.3805
-0.379
-0.377
-0.3805
-0.3785
-0.3785
-0.3765
-0.3795
-0.386
-0.38
-0.382
-0.3835
-0.3795
-0.3805
-0.375
-0.379
-0.3785
-0.3775
-0.3825
-0.377
-0.376
-0.3705
-0.37
-0.375
-0.3735
-0.375
-0.376
-0.3755
-0.379
-0.383
-0.377
-0.3725
-0.3755
-0.375
-0.3765
-0.3775
-0.3755
-0.3815
-0.3825
-0.3765
-0.3795
-0.3815
-0.376
-0.378
-0.3815
-0.3755
-0.3765
-0.373
-0.375
-0.3825
-0.379
-0.3755
-0.375
-0.374
-0.3725
-0.3805
-0.3765
-0.374
-0.376
-0.3685
-0.3705
-0.374
-0.378
-0.3765
-0.374
-0.3805
-0.385
-0.38
-0.3715
-0.372
-0.378
-0.382
-0.3755
-0.376
-0.3785
-0.3795
-0.38
-0.377
-0.3755
-0.3735
-0.382
-0.3795
-0.3725
-0.3755
-0.3795
-0.3785
-0.3735
-0.38
-0.383
-0.381
-0.383
-0.3755
-0.3755
-0.3835
-0.38
-0.3815
-0.3785
-0.378
-0.379
-0.371
-0.3675
-0.361
-0.3625
-0.3685
-0.365
-0.364
-0.3645
-0.3625
-0.3595
-0.363
-0.3595
-0.35
-0.354
-0.351
-0.3555
-0.3585
-0.3485
-0.3555
-0.3545
-0.35
-0.343
-0.341
-0.3495
-0.3455
-0.347
-0.343
-0.338
-0.3415
-0.338
-0.337
-0.3295
-0.323
-0.3225
-0.3205
-0.3125
-0.302
-0.303
-0.2995
-0.2925
-0.2965
-0.2985
-0.291
-0.294
-0.2965
-0.2875
-0.283
-0.2845
-0.291
-0.296
-0.2975
-0.304
-0.304
-0.303
-0.3065
-0.3035
-0.3015
-0.3
-0.3065
-0.308
-0.309
-0.319
-0.325
-0.3295
-0.3275
-0.3345
-0.339
-0.345
-0.3545
-0.349
-0.3495
-0.3565
-0.3635
-0.3635
-0.36
-0.359
-0.3575
-0.3565
-0.357
-0.3645
-0.365
-0.3575
-0.3635
-0.369
-0.366
-0.3685
-0.3675
-0.366
-0.3685
-0.3695
-0.377
-0.38
-0.372
-0.3685
-0.373
-0.3735
-0.3735
-0.379
-0.376
-0.383
-0.389
-0.3825
-0.381
-0.381
-0.387
-0.39
-0.3895
-0.388
-0.389
-0.3915
-0.3855
-0.379
-0.384
-0.3855
-0.388
-0.39
-0.3835
-0.383
-0.383
-0.387
-0.3875
-0.385
-0.39
-0.387
-0.383
-0.3815
-0.391
-0.396
-0.381
-0.3765
-0.3815
-0.3825
-0.3755
-0.375
-0.379
-0.377
-0.3865
-0.389
-0.3845
-0.3855
-0.3865
-0.3895
-0.3915
-0.398
-0.4135
-0.4175
-0.4165
-0.43
-0.4475
-0.4605
-0.4605
-0.4665
-0.475
-0.4805
-0.4825
-0.475
-0.4535
-0.428
-0.406
-0.3815
-0.3455
-0.2965
-0.2515
-0.1965
-0.131
-0.0575
0.008
0.0755
0.1455
0.2125
0.2825
0.3345
0.393
0.4525
0.489
0.512
0.5465
0.586
0.608
0.634
0.6525
0.625
0.578
0.5315
0.491
0.45
0.4035
0.364
0.2945
0.195
0.102
0.0045
-0.104
-0.1665
-0.1965
-0.2265
-0.2335
-0.226
-0.23
-0.237
-0.227
-0.223
-0.2275
-0.228
-0.235
-0.239
-0.24
-0.245
-0.249
-0.2595
-0.2685
-0.2645
-0.27
-0.285
-0.2875
-0.2925
-0.3025
-0.305
-0.312
-0.3195
-0.3185
-0.3215
-0.3285
-0.332
-0.3335
-0.331
-0.334
-0.3445
-0.3455
-0.3485
-0.351
-0.3465
-0.3445
-0.3475
-0.3475
-0.3445
-0.3425
-0.345
-0.3455
-0.342
-0.348
-0.348
-0.34
-0.3435
-0.3525
-0.351
-0.358
-0.362
-0.3555
-0.362
-0.363
-0.3545
-0.3525
-0.355
-0.3555
-0.3465
-0.343
-0.355
-0.3575
-0.3525
-0.349
-0.35
-0.3545
-0.358
-0.3615
-0.3565
-0.3495
-0.351
-0.353
-0.357
-0.359
-0.349
-0.3485
-0.3605
-0.3595
-0.351
-0.349
-0.352
-0.35
-0.353
-0.355
-0.3465
-0.347
-0.347
-0.3495
-0.352
-0.3465
-0.3425
-0.3435
-0.3455
-0.346
-0.3495
-0.3405
-0.3325
-0.3455
-0.3405
-0.336
-0.34
-0.334
-0.3345
-0.335
-0.3385
-0.344
-0.344
-0.338
-0.332
-0.3355
-0.3395
-0.3395
-0.3385
-0.3375
-0.337
-0.338
-0.3375
-0.338
-0.3425
-0.3425
-0.34
-0.336
-0.334
-0.3365
-0.333
-0.333
-0.3355
-0.335
-0.3395
-0.335
-0.332
-0.335
-0.334
-0.333
-0.33
-0.329
-0.3275
-0.3295
-0.329
-0.3215
-0.325
-0.3345
-0.3335
-0.3255
-0.325
-0.331
-0.3285
-0.326
-0.321
-0.319
-0.319
-0.3115
-0.304
-0.306
-0.317
-0.318
-0.3075
-0.3035
-0.313
-0.3175
-0.312
-0.308
-0.311
-0.3105
-0.308
-0.312
-0.309
-0.3055
-0.2985
-0.298
-0.309
-0.3035
-0.2985
-0.3015
-0.299
-0.3015
-0.3015
-0.2975
-0.294
-0.293
-0.2885
-0.2825
-0.288
-0.289
-0.2865
-0.289
-0.288
-0.285
-0.2835
-0.2785
-0.2765
-0.2815
-0.279
-0.2765
-0.2815
-0.277
-0.2715
-0.278
-0.279
-0.276
-0.272
-0.2695
-0.2725
-0.2705
-0.266
-0.268
-0.2645
-0.262
-0.2625
-0.2575
-0.256
-0.2465
-0.2485
-0.255
-0.249
-0.2465
-0.2405
-0.243
-0.2445
-0.247
-0.2505
-0.2475
-0.251
-0.246
-0.238
-0.2405
-0.2385
-0.237
-0.2385
-0.231
-0.232
-0.2275
-0.221
-0.224
-0.2265
-0.2275
-0.228
-0.2245
-0.2175
-0.218
-0.2095
-0.206
-0.2025
-0.201
-0.2035
-0.2015
-0.205
-0.198
-0.195
-0.1945
-0.1925
-0.1965
-0.199
-0.1965
-0.191
-0.184
-0.184
-0.189
-0.184
-0.1855
-0.1835
-0.1765
-0.1785
-0.177
-0.173
-0.171
-0.1725
-0.176
-0.179
-0.178
-0.171
-0.171
-0.1725
-0.1725
-0.174
-0.176
-0.1825
-0.1725
-0.1685
-0.1775
-0.18
-0.1805
-0.1785
-0.188
-0.184
-0.1885
-0.199
-0.1995
-0.204
-0.2045
-0.202
-0.197
-0.208
-0.2095
-0.208
-0.2145
-0.218
-0.2205
-0.2235
-0.2255
-0.23
-0.237
-0.2345
-0.233
-0.238
-0.2475
-0.25
-0.2515
-0.2545
-0.2575
-0.266
-0.268
-0.2685
-0.275
-0.2765
-0.2735
-0.2755
-0.28
-0.289
-0.292
-0.2965
-0.2955
-0.2955
-0.309
-0.3115
-0.312
-0.312
-0.308
-0.3095
-0.3175
-0.3105
-0.3085
-0.3205
-0.322
-0.325
-0.3285
-0.3325
-0.333
-0.338
-0.34
-0.3325
-0.3365
-0.3405
-0.343
-0.346
-0.343
-0.34
-0.339
-0.347
-0.35
-0.346
-0.346
-0.3475
-0.347
-0.3465
-0.3525
-0.3575
-0.3555
-0.353
-0.353
-0.35
-0.352
-0.356
-0.3575
-0.353
-0.3465
-0.3505
-0.3525
-0.35
-0.351
-0.352
-0.3505
-0.351
-0.351
-0.355
-0.3505
-0.3485
-0.355
-0.3555
-0.358
-0.353
-0.3565
-0.3625
-0.358
-0.362
-0.3605
-0.3545
-0.352
-0.3525
-0.355
-0.3535
-0.3555
-0.3545
-0.3545
-0.355
-0.36
-0.3585
-0.3475
-0.352
-0.356
-0.3565
-0.353
-0.35
-0.355
-0.347
-0.344
-0.3565
-0.355
-0.353
-0.3565
-0.3565
-0.349
-0.344
-0.3585
-0.356
-0.3485
-0.349
-0.352
-0.36
-0.359
-0.352
-0.3515
-0.35
-0.3445
-0.351
-0.3445
-0.341
-0.35
-0.341
-0.3365
-0.3415
-0.3435
-0.347
-0.348
-0.349
-0.349
-0.347
-0.3445
-0.347
-0.3545
-0.346
-0.346
-0.347
-0.3455
-0.3515
-0.3465
-0.3455
-0.3425
-0.3465
-0.351
-0.347
-0.346
-0.3425
-0.3435
-0.342
-0.3445
-0.3525
-0.352
-0.3485
-0.3455
-0.344
-0.3425
-0.3415
-0.344
-0.343
-0.3435
-0.343
-0.341
-0.3465
-0.3455
-0.345
-0.3455
-0.3485
-0.343
-0.3515
-0.3605
-0.355
-0.3525
-0.348
-0.351
-0.349
-0.349
-0.3525
-0.359
-0.3565
-0.3515
-0.357
-0.3585
-0.356
-0.3525
-0.351
-0.353
-0.353
-0.357
-0.3575
-0.353
-0.3565
-0.353
-0.342
-0.3505
-0.3585
-0.3555
-0.358
-0.3525
-0.353
-0.354
-0.3515
-0.3495
-0.3515
-0.358
-0.3595
-0.361
-0.357
-0.3555
-0.3515
-0.3545
-0.362
-0.353
-0.359
-0.3655
-0.3595
-0.3655
-0.3635
-0.3625
-0.3685
-0.3645
-0.3605
-0.362
-0.364
-0.3645
-0.3625
-0.363
-0.3605
-0.359
-0.3635
-0.358
-0.3545
-0.358
-0.362
-0.357
-0.3555
-0.361
-0.3605
-0.357
-0.3535
-0.3545
-0.36
-0.364
-0.363
-0.3615
-0.36
-0.3675
-0.37
-0.369
-0.3655
-0.3625
-0.369
-0.368
-0.3645
-0.3615
-0.3555
-0.357
-0.372
-0.377
-0.3745
-0.3715
-0.3755
-0.374
-0.365
-0.3695
-0.3665
-0.364
-0.3625
-0.366
-0.373
-0.3695
-0.37
-0.3755
-0.374
-0.3715
-0.3655
-0.3645
-0.3745
-0.3675
-0.3655
-0.366
-0.365
-0.369
-0.366
-0.368
-0.3735
-0.3705
-0.3675
-0.3715
-0.369
-0.371
-0.3715
-0.369
-0.369
-0.363
-0.364
-0.3645
-0.3665
-0.3715
-0.3685
-0.368
-0.363
-0.3625
-0.367
-0.3655
-0.3635
-0.3675
-0.371
-0.369
-0.3685
-0.375
-0.3785
-0.3655
-0.359
-0.3635
-0.372
-0.371
-0.3625
-0.3665
-0.364
-0.3615
-0.369
-0.374
-0.372
-0.3705
-0.3705
-0.368
-0.3685
-0.37
-0.3715
-0.369
-0.37
-0.3735
-0.3645
-0.3685
-0.374
-0.3665
-0.366
-0.3645
-0.3635
-0.3675
-0.367
-0.359
-0.361
-0.372
-0.369
-0.3635
-0.3625
-0.368
-0.3705
-0.3635
-0.3665
-0.366
-0.365
-0.366
-0.366
-0.367
-0.3645
-0.367
-0.3725
-0.374
-0.374
-0.371
-0.368
-0.3665
-0.3695
-0.367
-0.362
-0.3705
-0.373
-0.368
-0.368
-0.3715
-0.37
-0.365
-0.37
-0.37
-0.3625
-0.367
-0.37
-0.364
-0.3615
-0.3645
-0.364
-0.362
-0.36
-0.359
-0.3585
-0.3615
-0.3625
-0.361
-0.3615
-0.359
-0.36
-0.357
-0.358
-0.356
-0.353
-0.355
-0.35
-0.3495
-0.3465
-0.3465
-0.342
-0.3445
-0.351
-0.3495
-0.353
-0.3435
-0.34
-0.348
-0.3475
-0.347
-0.347
-0.343
-0.337
-0.3345
-0.3345
-0.3305
-0.3285
-0.3325
-0.3315
-0.326
-0.3235
-0.3305
-0.3385
-0.3245
-0.317
-0.318
-0.3215
-0.3245
-0.318
-0.322
-0.319
-0.317
-0.315
-0.314
-0.307
-0.3
-0.302
-0.2955
-0.295
-0.293
-0.2875
-0.2835
-0.2825
-0.2805
-0.2795
-0.281
-0.2655
-0.2685
-0.2845
-0.279
-0.278
-0.2765
-0.2765
-0.281
-0.274
-0.2775
-0.2865
-0.288
-0.2915
-0.298
-0.3035
-0.304
-0.3025
-0.311
-0.3165
-0.313
-0.323
-0.336
-0.3425
-0.339
-0.3345
-0.341
-0.337
-0.336
-0.3385
-0.3345
-0.336
-0.3425
-0.345
-0.3455
-0.352
-0.3515
-0.3495
-0.3525
-0.351
-0.3455
-0.3415
-0.3385
-0.3395
-0.348
-0.3495
-0.3465
-0.3465
-0.3485
-0.3535
-0.3525
-0.347
-0.3515
-0.361
-0.3655
-0.372
-0.368
-0.367
-0.368
-0.364
-0.37
-0.3735
-0.367
-0.3675
-0.3775
-0.3695
-0.366
-0.3735
-0.378
-0.3735
-0.369
-0.3765
-0.3775
-0.375
-0.3725
-0.373
-0.3685
-0.3695
-0.367
-0.3635
-0.375
-0.377
-0.374
-0.3705
-0.368
-0.367
-0.369
-0.3765
-0.382
-0.3775
-0.3745
-0.3805
-0.379
-0.3785
-0.3825
-0.3835
-0.3855
-0.389
-0.396
-0.4035
-0.412
-0.4235
-0.43
-0.4375
-0.4425
-0.4485
-0.455
-0.4565
-0.4635
-0.4565
-0.4345
-0.4155
-0.3935
-0.3695
-0.3355
-0.2935
-0.2505
-0.19
-0.114
-0.044
0.014
0.0715
0.1385
0.2015
0.2665
0.3235
0.3705
0.425
0.461
0.482
0.514
0.5535
0.575
0.599
0.6205
0.598
0.555
0.5025
0.4655
0.43
0.384
0.3355
0.274
0.199
0.11
0.017
-0.08
-0.146
-0.177
-0.198
-0.21
-0.211
-0.2145
-0.217
-0.2165
-0.2225
-0.2215
-0.2235
-0.232
-0.2325
-0.23
-0.2355
-0.24
-0.244
-0.2505
-0.2575
-0.2565
-0.2645
-0.273
-0.279
-0.288
-0.29
-0.2985
-0.3015
-0.3095
-0.3145
-0.304
-0.3105
-0.3195
-0.316
-0.319
-0.3235
-0.327
-0.3315
-0.3345
-0.339
-0.3405
-0.3365
-0.334
-0.334
-0.338
-0.3395
-0.338
-0.342
-0.3415
-0.339
-0.3365
-0.336
-0.3395
-0.344
-0.3405
-0.3385
-0.348
-0.343
-0.338
-0.342
-0.3385
-0.339
-0.3395
-0.338
-0.3355
-0.336
-0.3415
-0.341
-0.3435
-0.345
-0.3445
-0.344
-0.339
-0.3395
-0.343
-0.343
-0.3395
-0.3385
-0.3385
-0.339
-0.3385
-0.3355
-0.3395
-0.342
-0.336
-0.3335
-0.338
-0.34
-0.335
-0.3335
-0.339
-0.3335
-0.3345
-0.3375
-0.334
-0.3345
-0.3285
-0.3275
-0.3275
-0.324
-0.328
-0.3315
-0.334
-0.3375
-0.3355
-0.332
-0.333
-0.3315
-0.3295
-0.333
-0.3335
-0.3305
-0.327
-0.325
-0.3235
-0.32
-0.3225
-0.3245
-0.324
-0.324
-0.325
-0.324
-0.3175
-0.3255
-0.33
-0.327
-0.3265
-0.322
-0.322
-0.3235
-0.326
-0.321
-0.318
-0.32
-0.313
-0.321
-0.3315
-0.327
-0.326
-0.3195
-0.3125
-0.3155
-0.313
-0.3135
-0.3185
-0.3195
-0.3175
-0.3165
-0.319
-0.317
-0.316
-0.3135
-0.312
-0.312
-0.3125
-0.3155
-0.3085
-0.3065
-0.3145
-0.3105
-0.304
-0.3025
-0.303
-0.3
-0.3045
-0.3125
-0.3075
-0.3025
-0.3005
-0.2985
-0.2985
-0.2985
-0.2975
-0.2965
-0.295
-0.298
-0.2995
-0.2985
-0.2945
-0.2945
-0.2915
-0.2825
-0.286
-0.2905
-0.29
-0.292
-0.291
-0.2875
-0.286
-0.284
-0.282
-0.2815
-0.282
-0.2835
-0.2815
-0.2765
-0.278
-0.276
-0.274
-0.2785
-0.272
-0.2705
-0.2755
-0.276
-0.273
-0.2715
-0.2665
-0.2645
-0.268
-0.267
-0.2695
-0.2675
-0.2615
-0.2625
-0.2565
-0.247
-0.247
-0.255
-0.255
-0.2465
-0.239
-0.24
-0.246
-0.242
-0.244
-0.2415
-0.237
-0.2375
-0.238
-0.241
-0.2365
-0.236
-0.2335
-0.2235
-0.222
-0.223
-0.2235
-0.2195
-0.22
-0.227
-0.2205
-0.2165
-0.217
-0.211
-0.2135
-0.214
-0.21
-0.2095
-0.2065
-0.1995
-0.193
-0.191
-0.189
-0.192
-0.197
-0.1955
-0.193
-0.1915
-0.185
-0.183
-0.1835
-0.182
-0.1875
-0.189
-0.18
-0.1765
-0.1815
-0.177
-0.1815
-0.184
-0.1765
-0.1755
-0.18
-0.18
-0.175
-0.181
-0.18
-0.183
-0.1905
-0.1875
-0.1835
-0.185
-0.1895
-0.187
-0.186
-0.1815
-0.1785
-0.183
-0.185
-0.188
-0.192
-0.196
-0.2
-0.201
-0.2
-0.204
-0.206
-0.2095
-0.209
-0.2095
-0.223
-0.2225
-0.226
-0.2335
-0.234
-0.2365
-0.2355
-0.2385
-0.246
-0.249
-0.2505
-0.251
-0.2525
-0.258
-0.2585
-0.263
-0.2695
-0.27
-0.274
-0.279
-0.2875
-0.2885
-0.288
-0.292
-0.293
-0.2985
-0.3025
-0.3045
-0.307
-0.305
-0.3075
-0.3095
-0.312
-0.313
-0.312
-0.3145
-0.3165
-0.3135
-0.312
-0.318
-0.319
-0.32
-0.325
-0.332
-0.333
-0.33
-0.3315
-0.331
-0.3345
-0.338
-0.3375
-0.34
-0.343
-0.3435
-0.342
-0.343
-0.34
-0.3405
-0.3425
-0.3405
-0.344
-0.3455
-0.344
-0.3445
-0.3435
-0.344
-0.345
-0.346
-0.346
-0.345
-0.3435
-0.3465
-0.349
-0.3545
-0.3545
-0.3505
-0.351
-0.3465
-0.348
-0.3495
-0.353
-0.356
-0.3525
-0.3555
-0.3545
-0.3545
-0.357
-0.353
-0.3535
-0.3565
-0.3545
-0.354
-0.357
-0.3495
-0.349
-0.351
-0.346
-0.3485
-0.3505
-0.3475
-0.346
-0.349
-0.3475
-0.343
-0.3475
-0.3525
-0.347
-0.3435
-0.347
-0.349
-0.349
-0.3465
-0.343
-0.3435
-0.345
-0.3465
-0.353
-0.3475
-0.345
-0.35
-0.3475
-0.3465
-0.346
-0.3465
-0.347
-0.347
-0.349
-0.3485
-0.35
-0.3505
-0.3495
-0.3495
-0.345
-0.34
-0.3415
-0.346
-0.345
-0.3425
-0.342
-0.343
-0.3415
-0.3385
-0.3395
-0.3405
-0.3385
-0.3345
-0.3375
-0.343
-0.336
-0.333
-0.34
-0.3375
-0.3355
-0.3375
-0.3345
-0.335
-0.3425
-0.3435
-0.337
-0.3415
-0.3465
-0.3455
-0.3465
-0.3435
-0.345
-0.3455
-0.343
-0.345
-0.343
-0.345
-0.343
-0.3395
-0.343
-0.3405
-0.337
-0.3395
-0.3415
-0.3415
-0.344
-0.3455
-0.344
-0.3425
-0.344
-0.346
-0.3415
-0.3435
-0.348
-0.3445
-0.3415
-0.3425
-0.344
-0.347
-0.347
-0.3445
-0.3435
-0.3455
-0.3505
-0.3435
-0.3415
-0.347
-0.3475
-0.344
-0.343
-0.344
-0.34
-0.347
-0.344
-0.341
-0.3485
-0.346
-0.3465
-0.346
-0.345
-0.345
-0.346
-0.346
-0.3465
-0.3465
-0.345
-0.3445
-0.341
-0.343
-0.3465
-0.3465
-0.3445
-0.343
-0.3405
-0.3415
-0.343
-0.344
-0.3455
-0.348
-0.3485
-0.349
-0.3505
-0.351
-0.3475
-0.345
-0.3515
-0.3535
-0.353
-0.3515
-0.3535
-0.352
-0.347
-0.3545
-0.3585
-0.357
-0.3575
-0.3585
-0.3575
-0.36
-0.36
-0.358
-0.357
-0.3535
-0.3545
-0.3535
-0.355
-0.3575
-0.351
-0.3505
-0.3555
-0.3555
-0.356
-0.3555
-0.3565
-0.3575
-0.361
-0.363
-0.358
-0.36
-0.3625
-0.3585
-0.358
-0.3585
-0.356
-0.3575
-0.3565
-0.3545
-0.3565
-0.3515
-0.3515
-0.36
-0.358
-0.355
-0.359
-0.358
-0.3605
-0.356
-0.353
-0.3595
-0.3565
-0.355
-0.358
-0.3555
-0.3565
-0.3615
-0.3615
-0.358
-0.3585
-0.362
-0.3605
-0.358
-0.3525
-0.347
-0.35
-0.3535
-0.356
-0.3565
-0.3565
-0.3555
-0.355
-0.358
-0.358
-0.359
-0.356
-0.3515
-0.355
-0.357
-0.359
-0.359
-0.359
-0.3605
-0.356
-0.3555
-0.3555
-0.358
-0.3595
-0.3575
-0.3565
-0.3555
-0.358
-0.3575
-0.355
-0.356
-0.3555
-0.356
-0.357
-0.3585
-0.3595
-0.355
-0.352
-0.355
-0.359
-0.357
-0.3565
-0.358
-0.358
-0.3555
-0.3545
-0.355
-0.3565
-0.361
-0.3595
-0.357
-0.358
-0.3615
-0.364
-0.362
-0.3625
-0.363
-0.3605
-0.3625
-0.361
-0.3595
-0.36
-0.3575
-0.36
-0.359
-0.3605
-0.3635
-0.362
-0.36
-0.3565
-0.358
-0.357
-0.3585
-0.363
-0.363
-0.3605
-0.3605
-0.3615
-0.3625
-0.3645
-0.36
-0.358
-0.36
-0.3585
-0.36
-0.3605
-0.3565
-0.3635
-0.3645
-0.3595
-0.36
-0.3625
-0.366
-0.364
-0.365
-0.358
-0.357
-0.363
-0.3605
-0.3595
-0.361
-0.36
-0.3595
-0.3625
-0.3625
-0.363
-0.3645
-0.3575
-0.359
-0.361
-0.359
-0.367
-0.3605
-0.3545
-0.36
-0.3625
-0.359
-0.3565
-0.357
-0.3555
-0.3525
-0.349
-0.3495
-0.3485
-0.348
-0.3485
-0.351
-0.35
-0.342
-0.3445
-0.344
-0.3415
-0.3425
-0.3405
-0.3405
-0.34
-0.3355
-0.334
-0.3355
-0.3335
-0.3345
-0.3365
-0.335
-0.3335
-0.331
-0.328
-0.33
-0.332
-0.331
-0.3285
-0.324
-0.3215
-0.3225
-0.3205
-0.3155
-0.313
-0.312
-0.309
-0.3045
-0.2975
-0.292
-0.293
-0.2855
-0.2815
-0.2815
-0.28
-0.283
-0.28
-0.2765
-0.2695
-0.2705
-0.2765
-0.2765
-0.279
-0.284
-0.287
-0.281
-0.277
-0.2745
-0.2765
-0.2815
-0.282
-0.2885
-0.292
-0.294
-0.2985
-0.304
-0.3045
-0.3045
-0.3105
-0.3165
-0.3275
-0.3335
-0.333
-0.3385
-0.343
-0.342
-0.3435
-0.3465
-0.345
-0.341
-0.337
-0.3355
-0.3405
-0.3455
-0.3455
-0.348
-0.354
-0.356
-0.3555
-0.3565
-0.3555
-0.355
-0.3565
-0.359
-0.3575
-0.352
-0.3595
-0.3665
-0.3675
-0.371
-0.365
-0.367
-0.3745
-0.3755
-0.378
-0.3775
-0.3765
-0.373
-0.3725
-0.376
-0.377
-0.378
-0.379
-0.378
-0.375
-0.375
-0.375
-0.372
-0.3735
-0.3755
-0.3705
-0.374
-0.376
-0.3725
-0.373
-0.37
-0.372
-0.3725
-0.372
-0.372
-0.3705
-0.3725
-0.373
-0.3755
-0.375
-0.3745
-0.377
-0.3735
-0.3745
-0.3795
-0.3805
-0.3775
-0.3775
-0.3815
-0.3855
-0.389
-0.3965
-0.4035
-0.4095
-0.417
-0.428
-0.4415
-0.451
-0.4585
-0.4685
-0.474
-0.4765
-0.474
-0.46
-0.441
-0.4195
-0.3925
-0.3585
-0.32
-0.2765
-0.228
-0.1605
-0.0825
-0.0155
0.047
0.113
0.179
0.245
0.3055
0.367
0.43
0.471
0.501
0.528
0.5605
0.6
0.6285
0.6505
0.657
0.63
0.589
0.5435
0.496
0.453
0.405
0.35
0.284
0.2115
0.1295
0.0445
-0.0375
-0.102
-0.131
-0.152
-0.178
-0.191
-0.199
-0.2045
-0.2035
-0.2055
-0.2105
-0.2195
-0.222
-0.2245
-0.2345
-0.241
-0.2435
-0.25
-0.255
-0.2615
-0.2695
-0.276
-0.283
-0.287
-0.294
-0.3015
-0.305
-0.307
-0.3115
-0.315
-0.3165
-0.3195
-0.321
-0.325
-0.329
-0.3325
-0.334
-0.3355
-0.339
-0.34
-0.3405
-0.3395
-0.345
-0.3505
-0.347
-0.3445
-0.3465
-0.3505
-0.351
-0.35
-0.3475
-0.347
-0.347
-0.346
-0.348
-0.347
-0.3505
-0.3545
-0.3525
-0.352
-0.351
-0.3525
-0.3515
-0.351
-0.3495
-0.3495
-0.352
-0.351
-0.354
-0.35
-0.349
-0.352
-0.3485
-0.348
-0.351
-0.3505
-0.3505
-0.352
-0.3525
-0.3535
-0.353
-0.3515
-0.353
-0.354
-0.352
-0.3515
-0.353
-0.352
-0.351
-0.3505
-0.35
-0.351
-0.3495
-0.3495
-0.353
-0.3525
-0.351
-0.3475
-0.3445
-0.347
-0.35
-0.3505
-0.3485
-0.3485
-0.3475
-0.3435
-0.347
-0.3475
-0.344
-0.344
-0.341
-0.339
-0.3395
-0.3415
-0.34
-0.3385
-0.336
-0.334
-0.3385
-0.3395
-0.3395
-0.338
-0.335
-0.336
-0.3375
-0.34
-0.3375
-0.332
-0.3315
-0.33
-0.334
-0.3355
-0.333
-0.333
-0.3325
-0.3315
-0.3315
-0.331
-0.3305
-0.33
-0.3275
-0.329
-0.3305
-0.3285
-0.3265
-0.3285
-0.3315
-0.3295
-0.331
-0.3315
-0.3305
-0.3335
-0.3325
-0.3305
-0.3285
-0.3285
-0.3325
-0.3325
-0.332
-0.332
-0.3295
-0.328
-0.3275
-0.325
-0.323
-0.3245
-0.327
-0.3245
-0.3215
-0.321
-0.318
-0.318
-0.319
-0.3175
-0.3155
-0.313
-0.312
-0.3105
-0.31
-0.311
-0.314
-0.314
-0.307
-0.3025
-0.304
-0.3065
-0.304
-0.302
-0.301
-0.2995
-0.297
-0.2935
-0.298
-0.2975
-0.294
-0.2925
-0.294
-0.293
-0.292
-0.2925
-0.2895
-0.2905
-0.2905
-0.289
-0.285
-0.2815
-0.281
-0.2805
-0.2815
-0.275
-0.2765
-0.2765
-0.2745
-0.279
-0.274
-0.269
-0.2705
-0.2705
-0.27
-0.2655
-0.2605
-0.26
-0.2565
-0.2555
-0.2565
-0.2525
-0.247
-0.2505
-0.2495
-0.243
-0.2405
-0.24
-0.2435
-0.2415
-0.237
-0.238
-0.2365
-0.234
-0.234
-0.2335
-0.233
-0.2325
-0.2275
-0.23
-0.2325
-0.23
-0.2285
-0.2255
-0.2225
-0.2205
-0.22
-0.2185
-0.2175
-0.216
-0.2155
-0.2165
-0.2155
-0.2115
-0.208
-0.203
-0.1995
-0.201
-0.2
-0.1975
-0.194
-0.1935
-0.194
-0.188
-0.188
-0.1925
-0.1875
-0.1855
-0.1875
-0.187
-0.19
-0.19
-0.188
-0.1895
-0.1885
-0.1855
-0.187
-0.1875
-0.185
-0.1875
-0.1895
-0.1875
-0.1885
-0.195
-0.1955
-0.196
-0.201
-0.202
-0.203
-0.2075
-0.2075
-0.205
-0.2055
-0.21
-0.217
-0.2195
-0.221
-0.2235
-0.225
-0.226
-0.231
-0.236
-0.239
-0.2425
-0.2455
-0.25
-0.256
-0.2595
-0.261
-0.2625
-0.266
-0.269
-0.2685
-0.281
-0.286
-0.283
-0.286
-0.291
-0.297
-0.298
-0.3025
-0.306
-0.3065
-0.309
-0.3105
-0.31
-0.312
-0.318
-0.319
-0.32
-0.3225
-0.3275
-0.3325
-0.3335
-0.335
-0.3365
-0.339
-0.339
-0.3415
-0.344
-0.348
-0.3485
-0.346
-0.354
-0.3565
-0.3535
-0.356
-0.3565
-0.352
-0.351
-0.352
-0.3515
-0.3535
-0.355
-0.3565
-0.3565
-0.3565
-0.357
-0.358
-0.356
-0.358
-0.3615
-0.3605
-0.359
-0.359
-0.362
-0.3615
-0.3615
-0.3645
-0.364
-0.365
-0.363
-0.3625
-0.3645
-0.3655
-0.365
-0.366
-0.368
-0.366
-0.3675
-0.368
-0.3655
-0.3685
-0.3705
-0.372
-0.3735
-0.3715
-0.3715
-0.371
-0.369
-0.366
-0.366
-0.364
-0.362
-0.367
-0.367
-0.3665
-0.3695
-0.368
-0.3675
-0.368
-0.3665
-0.364
-0.3655
-0.364
-0.364
-0.3665
-0.3665
-0.366
-0.363
-0.3635
-0.3625
-0.3645
-0.366
-0.364
-0.3655
-0.364
-0.3665
-0.367
-0.3645
-0.365
-0.364
-0.366
-0.365
-0.36
-0.3635
-0.3685
-0.365
-0.3595
-0.3605
-0.363
-0.3665
-0.3645
-0.3625
-0.365
-0.364
-0.362
-0.3625
-0.361
-0.361
-0.362
-0.358
-0.3595
-0.3635
-0.3635
-0.3615
-0.3635
-0.3655
-0.364
-0.366
-0.3665
-0.3685
-0.369
-0.3645
-0.361
-0.358
-0.359
-0.3605
-0.3635
-0.361
-0.359
-0.3615
-0.3575
-0.357
-0.3585
-0.3595
-0.3575
-0.36
-0.364
-0.3575
-0.3575
-0.363
-0.3585
-0.355
-0.3585
-0.362
-0.362
-0.3625
-0.3625
-0.36
-0.364
-0.366
-0.3625
-0.366
-0.3705
-0.367
-0.365
-0.367
-0.367
-0.368
-0.367
-0.3635
-0.3625
-0.3635
-0.363
-0.362
-0.3645
-0.3665
-0.3645
-0.362
-0.362
-0.367
-0.367
-0.3635
-0.366
-0.3655
-0.3645
-0.3665
-0.3665
-0.3665
-0.3685
-0.3675
-0.368
-0.37
-0.3695
-0.3705
-0.3705
-0.365
-0.3645
-0.367
-0.368
-0.3685
-0.37
-0.37
-0.368
-0.3705
-0.371
-0.37
-0.3715
-0.372
-0.371
-0.3725
-0.371
-0.37
-0.372
-0.3715
-0.3725
-0.3725
-0.373
-0.3745
-0.3745
-0.373
-0.3735
-0.3745
-0.373
-0.372
-0.3735
-0.3735
-0.3725
-0.3745
-0.374
-0.3765
-0.3785
-0.3755
-0.3745
-0.3725
-0.372
-0.3745
-0.375
-0.3725
-0.3735
-0.3775
-0.3765
-0.3745
-0.3785
-0.378
-0.3775
-0.3785
-0.3775
-0.377
-0.378
-0.3785
-0.3735
-0.3765
-0.382
-0.38
-0.3775
-0.3775
-0.3775
-0.378
-0.3795
-0.3795
-0.378
-0.3765
-0.376
-0.3775
-0.3785
-0.3805
-0.383
-0.3815
-0.3825
-0.3855
-0.3825
-0.3805
-0.38
-0.379
-0.378
-0.3795
-0.3815
-0.378
-0.376
-0.382
-0.3825
-0.3775
-0.378
-0.379
-0.3785
-0.3775
-0.379
-0.379
-0.375
-0.375
-0.376
-0.376
-0.376
-0.3785
-0.3795
-0.3785
-0.3785
-0.376
-0.374
-0.3735
-0.376
-0.377
-0.377
-0.3775
-0.378
-0.3765
-0.3785
-0.3805
-0.375
-0.3715
-0.3735
-0.374
-0.3725
-0.375
-0.377
-0.376
-0.3765
-0.3765
-0.374
-0.374
-0.3765
-0.3765
-0.377
-0.3775
-0.377
-0.3745
-0.375
-0.378
-0.3765
-0.3765
-0.38
-0.3815
-0.3785
-0.377
-0.3775
-0.378
-0.3795
-0.38
-0.3815
-0.381
-0.3795
-0.379
-0.378
-0.379
-0.381
-0.3815
-0.381
-0.3795
-0.3785
-0.381
-0.38
-0.38
-0.3805
-0.38
-0.381
-0.3795
-0.382
-0.3845
-0.3835
-0.3855
-0.3855
-0.384
-0.385
-0.384
-0.382
-0.382
-0.3825
-0.385
-0.385
-0.3825
-0.3835
-0.3835
-0.3835
-0.3865
-0.3865
-0.3835
-0.3825
-0.383
-0.385
-0.3845
-0.3835
-0.3825
-0.3805
-0.3805
-0.381
-0.3805
-0.38
-0.38
-0.3805
-0.381
-0.383
-0.385
-0.3855
-0.384
-0.3805
-0.3805
-0.3825
-0.384
-0.3835
-0.3815
-0.381
-0.3815
-0.383
-0.381
-0.377
-0.3735
-0.372
-0.3715
-0.37
-0.369
-0.3665
-0.3645
-0.363
-0.364
-0.366
-0.365
-0.3655
-0.364
-0.3605
-0.3595
-0.3605
-0.3615
-0.362
-0.3635
-0.36
-0.3575
-0.355
-0.3565
-0.3555
-0.352
-0.3515
-0.352
-0.3545
-0.3525
-0.35
-0.348
-0.347
-0.346
-0.3445
-0.343
-0.338
-0.3355
-0.333
-0.33
-0.328
-0.322
-0.317
-0.3135
-0.31
-0.3085
-0.3085
-0.309
-0.3075
-0.3055
-0.299
-0.2925
-0.293
-0.2955
-0.2975
-0.3025
-0.302
-0.297
-0.2965
-0.2975
-0.297
-0.2985
-0.304
-0.31
-0.309
-0.312
-0.319
-0.3235
-0.326
-0.33
-0.338
-0.341
-0.3475
-0.357
-0.3595
-0.3605
-0.3605
-0.36
-0.364
-0.365
-0.3615
-0.3625
-0.365
-0.3665
-0.3675
-0.369
-0.3725
-0.3745
-0.3765
-0.379
-0.38
-0.379
-0.3795
-0.379
-0.3795
-0.3835
-0.382
-0.382
-0.3835
-0.3855
-0.3865
-0.387
-0.387
-0.3865
-0.39
-0.3935
-0.3965
-0.3985
-0.3985
-0.3985
-0.403
-0.406
-0.4005
-0.401
-0.4035
-0.402
-0.3985
-0.4
-0.4015
-0.4
-0.401
-0.3995
-0.398
-0.398
-0.398
-0.3965
-0.3955
-0.4005
-0.3995
-0.398
-0.399
-0.399
-0.4005
-0.399
-0.399
-0.4005
-0.402
-0.403
-0.403
-0.403
-0.407
-0.412
-0.4095
-0.4065
-0.405
-0.409
-0.4125
-0.4165
-0.421
-0.4225
-0.4315
-0.439
-0.4465
-0.4605
-0.4715
-0.482
-0.491
-0.4995
-0.5035
-0.5105
-0.514
-0.498
-0.476
-0.452
-0.4285
-0.397
-0.3565
-0.309
-0.257
-0.1915
-0.1125
-0.0385
0.027
0.0975
0.1725
0.2395
0.305
0.371
0.4385
0.487
0.521
0.547
0.5805
0.624
0.655
0.683
0.69
0.662
0.621
0.5765
0.518
0.467
0.419
0.364
0.2965
0.2205
0.1415
0.0595
-0.019
-0.0865
-0.122
-0.1545
-0.1875
-0.2045
-0.2125
-0.22
-0.224
-0.224
-0.231
-0.2395
-0.2425
-0.2455
-0.2495
-0.254
-0.26
-0.267
-0.275
-0.282
-0.29
-0.2965
-0.303
-0.309
-0.312
-0.32
-0.327
-0.3305
-0.333
-0.3365
-0.34
-0.3445
-0.349
-0.3505
-0.3555
-0.3595
-0.361
-0.3625
-0.363
-0.3635
-0.364
-0.3655
-0.3655
-0.368
-0.3695
-0.37
-0.37
-0.37
-0.3715
-0.3705
-0.3695
-0.3685
-0.37
-0.369
-0.368
-0.368
-0.3675
-0.3695
-0.369
-0.369
-0.368
-0.3675
-0.369
-0.37
-0.3685
-0.3695
-0.371
-0.367
-0.3655
-0.3645
-0.365
-0.366
-0.366
-0.3655
-0.3645
-0.367
-0.3685
-0.37
-0.3695
-0.3685
-0.369
-0.3685
-0.367
-0.3625
-0.3595
-0.36
-0.3585
-0.358
-0.356
-0.358
-0.3605
-0.359
-0.3565
-0.356
-0.3565
-0.3605
-0.3625
-0.3585
-0.356
-0.357
-0.36
-0.36
-0.3575
-0.356
-0.3565
-0.3615
-0.3625
-0.3605
-0.3605
-0.3605
-0.359
-0.3595
-0.3585
-0.3575
-0.3565
-0.3535
-0.3535
-0.354
-0.354
-0.353
-0.3545
-0.3565
-0.354
-0.3545
-0.354
-0.352
-0.35
-0.3485
-0.3495
-0.347
-0.348
-0.351
-0.3505
-0.3495
-0.348
-0.3495
-0.3505
-0.349
-0.3475
-0.3455
-0.344
-0.3425
-0.342
-0.341
-0.3415
-0.344
-0.3435
-0.344
-0.3435
-0.3415
-0.34
-0.3395
-0.342
-0.342
-0.3435
-0.342
-0.3395
-0.342
-0.3395
-0.336
-0.334
-0.3315
-0.331
-0.3295
-0.328
-0.3295
-0.3305
-0.3295
-0.327
-0.3255
-0.3245
-0.3235
-0.3235
-0.3225
-0.3215
-0.3185
-0.317
-0.3185
-0.318
-0.3205
-0.32
-0.3185
-0.3175
-0.315
-0.3145
-0.314
-0.313
-0.31
-0.312
-0.3135
-0.3125
-0.311
-0.308
-0.311
-0.306
-0.302
-0.3015
-0.2975
-0.2985
-0.2995
-0.3005
-0.299
-0.296
-0.294
-0.2915
-0.292
-0.29
-0.2875
-0.282
-0.28
-0.283
-0.28
-0.2775
-0.273
-0.269
-0.2705
-0.2705
-0.2695
-0.268
-0.2655
-0.2635
-0.2625
-0.2595
-0.2545
-0.253
-0.2545
-0.2535
-0.25
-0.2495
-0.25
-0.2495
-0.2495
-0.248
-0.243
-0.2385
-0.238
-0.2395
-0.2365
-0.2335
-0.2335
-0.2305
-0.227
-0.224
-0.222
-0.2235
-0.22
-0.218
-0.2195
-0.217
-0.2185
-0.214
-0.2105
-0.2085
-0.2075
-0.2085
-0.204
-0.203
-0.2
-0.198
-0.1985
-0.197
-0.1965
-0.195
-0.1915
-0.192
-0.192
-0.188
-0.186
-0.186
-0.1865
-0.1875
-0.187
-0.186
-0.1835
-0.182
-0.1805
-0.1815
-0.183
-0.182
-0.1835
-0.185
-0.186
-0.187
-0.1885
-0.189
-0.193
-0.1975
-0.1975
-0.1985
-0.198
-0.1995
-0.202
-0.2055
-0.211
-0.215
-0.2175
-0.2195
-0.224
-0.226
-0.227
-0.226
-0.227
-0.231
-0.235
-0.24
-0.244
-0.2445
-0.243
-0.2495
-0.255
-0.256
-0.2595
-0.2625
-0.2665
-0.2725
-0.276
-0.279
-0.2825
-0.283
-0.285
-0.2925
-0.297
-0.299
-0.301
-0.3055
-0.3105
-0.314
-0.317
-0.32
-0.3225
-0.3235
-0.3245
-0.3275
-0.331
-0.3335
-0.3365
-0.336
-0.336
-0.3365
-0.337
-0.339
-0.3385
-0.34
-0.342
-0.3445
-0.3445
-0.3445
-0.3455
-0.348
-0.3485
-0.3485
-0.351
-0.354
-0.355
-0.3535
-0.351
-0.3525
-0.358
-0.3595
-0.3575
-0.3565
-0.356
-0.3525
-0.3535
-0.356
-0.358
-0.3605
-0.361
-0.3605
-0.358
-0.3595
-0.362
-0.3625
-0.3615
-0.3615
-0.361
-0.3625
-0.3625
-0.358
-0.3575
-0.3585
-0.359
-0.359
-0.3585
-0.3575
-0.3585
-0.359
-0.36
-0.361
-0.36
-0.3605
-0.361
-0.363
-0.363
-0.3645
-0.3655
-0.362
-0.3625
-0.3625
-0.3625
-0.364
-0.3645
-0.3645
-0.3655
-0.365
-0.3645
-0.3665
-0.3665
-0.3675
-0.367
-0.364
-0.3605
-0.3625
-0.362
-0.3595
-0.359
-0.3585
-0.3605
-0.361
-0.3595
-0.362
-0.3615
-0.359
-0.3615
-0.3635
-0.362
-0.3615
-0.3595
-0.357
-0.357
-0.357
-0.359
-0.357
-0.354
-0.355
-0.3555
-0.3575
-0.356
-0.354
-0.3545
-0.354
-0.3545
-0.3535
-0.353
-0.3515
-0.352
-0.3535
-0.353
-0.354
-0.3535
-0.351
-0.351
-0.3515
-0.3505
-0.3505
-0.3505
-0.35
-0.352
-0.353
-0.3535
-0.352
-0.351
-0.353
-0.3545
-0.3545
-0.3535
-0.3525
-0.351
-0.35
-0.3525
-0.3515
-0.3485
-0.3525
-0.356
-0.3545
-0.3545
-0.3555
-0.3575
-0.3595
-0.362
-0.361
-0.358
-0.3575
-0.357
-0.358
-0.361
-0.3595
-0.359
-0.36
-0.361
-0.3585
-0.3545
-0.356
-0.3595
-0.3605
-0.358
-0.3595
-0.361
-0.359
-0.359
-0.3595
-0.3585
-0.3565
-0.3545
-0.358
-0.359
-0.357
-0.359
-0.3585
-0.353
-0.353
-0.3555
-0.355
-0.357
-0.3565
-0.3555
-0.3565
-0.3605
-0.3625
-0.3615
-0.3615
-0.3605
-0.3595
-0.359
-0.3585
-0.3585
-0.36
-0.362
-0.362
-0.3625
-0.3625
-0.363
-0.365
-0.3645
-0.3655
-0.366
-0.3665
-0.368
-0.367
-0.369
-0.3695
-0.3685
-0.368
-0.366
-0.365
-0.366
-0.366
-0.365
-0.365
-0.368
-0.37
-0.3685
-0.367
-0.37
-0.3735
-0.37
-0.368
-0.3705
-0.371
-0.3715
-0.372
-0.372
-0.3705
-0.3695
-0.3685
-0.3655
-0.3655
-0.369
-0.369
-0.366
-0.3675
-0.369
-0.37
-0.368
-0.3665
-0.368
-0.3685
-0.37
-0.3675
-0.3715
-0.371
-0.3685
-0.3735
-0.371
-0.3695
-0.368
-0.3675
-0.369
-0.373
-0.3775
-0.3765
-0.372
-0.3705
-0.3705
-0.372
-0.372
-0.369
-0.3685
-0.369
-0.371
-0.369
-0.3645
-0.3695
-0.3745
-0.374
-0.3735
-0.3705
-0.3705
-0.371
-0.3655
-0.3665
-0.3705
-0.372
-0.3705
-0.369
-0.3695
-0.37
-0.3705
-0.37
-0.368
-0.3695
-0.373
-0.372
-0.3695
-0.3695
-0.3715
-0.3715
-0.369
-0.3685
-0.3705
-0.3725
-0.3755
-0.378
-0.379
-0.379
-0.377
-0.376
-0.3755
-0.3745
-0.375
-0.374
-0.3725
-0.3725
-0.374
-0.373
-0.3715
-0.3745
-0.374
-0.3745
-0.3745
-0.371
-0.372
-0.3735
-0.3735
-0.3735
-0.373
-0.372
-0.3715
-0.371
-0.3685
-0.3685
-0.3695
-0.372
-0.3725
-0.372
-0.373
-0.374
-0.374
-0.373
-0.3705
-0.37
-0.37
-0.37
-0.3735
-0.371
-0.372
-0.374
-0.3725
-0.3745
-0.374
-0.3715
-0.373
-0.376
-0.376
-0.376
-0.3745
-0.3755
-0.375
-0.376
-0.379
-0.3785
-0.3755
-0.371
-0.3725
-0.3695
-0.366
-0.369
-0.369
-0.371
-0.372
-0.3705
-0.3685
-0.3715
-0.375
-0.3745
-0.372
-0.371
-0.3695
-0.3675
-0.3715
-0.374
-0.374
-0.373
-0.373
-0.3745
-0.3745
-0.3745
-0.374
-0.375
-0.3755
-0.376
-0.377
-0.3755
-0.374
-0.377
-0.38
-0.38
-0.38
-0.3785
-0.379
-0.378
-0.374
-0.375
-0.3745
-0.374
-0.3735
-0.3715
-0.374
-0.372
-0.3645
-0.3645
-0.364
-0.36
-0.3585
-0.3565
-0.356
-0.356
-0.3555
-0.354
-0.355
-0.3535
-0.351
-0.349
-0.3455
-0.345
-0.347
-0.349
-0.3475
-0.3455
-0.3455
-0.3475
-0.35
-0.35
-0.3485
-0.3455
-0.3425
-0.339
-0.334
-0.329
-0.326
-0.3215
-0.3175
-0.313
-0.308
-0.3015
-0.2955
-0.2915
-0.287
-0.288
-0.288
-0.286
-0.287
-0.284
-0.279
-0.276
-0.2775
-0.278
-0.2795
-0.281
-0.28
-0.281
-0.2805
-0.283
-0.287
-0.289
-0.2915
-0.293
-0.298
-0.302
-0.3045
-0.3115
-0.314
-0.3155
-0.3215
-0.327
-0.336
-0.3405
-0.34
-0.3435
-0.348
-0.3515
-0.3485
-0.343
-0.3465
-0.351
-0.352
-0.352
-0.3535
-0.354
-0.3535
-0.3565
-0.3575
-0.3565
-0.3555
-0.358
-0.358
-0.359
-0.3645
-0.3675
-0.3655
-0.363
-0.365
-0.3665
-0.3685
-0.3675
-0.369
-0.372
-0.373
-0.3735
-0.375
-0.3755
-0.376
-0.3785
-0.3785
-0.379
-0.3835
-0.3855
-0.3835
-0.383
-0.3835
-0.3855
-0.3875
-0.386
-0.3855
-0.3845
-0.3835
-0.385
-0.3865
-0.384
-0.384
-0.387
-0.387
-0.3865
-0.3845
-0.3845
-0.3875
-0.389
-0.387
-0.385
-0.3835
-0.3845
-0.3875
-0.3905
-0.392
-0.391
-0.3935
-0.393
-0.3915
-0.395
-0.394
-0.397
-0.4035
-0.4085
-0.414
-0.42
-0.4315
-0.4465
-0.458
-0.4675
-0.4785
-0.4895
-0.4965
-0.5
-0.4955
-0.4765
-0.451
-0.4305
-0.4065
-0.371
-0.324
-0.2755
-0.2225
-0.148
-0.066
0.007
0.0705
0.141
0.214
0.284
0.353
0.421
0.486
0.528
0.564
0.593
0.6335
0.676
0.7025
0.731
0.7315
0.6945
0.651
0.605
0.5475
0.494
0.442
0.383
0.312
0.233
0.1515
0.071
-0.0115
-0.0685
-0.096
-0.1285
-0.1555
-0.175
-0.1865
-0.1915
-0.195
-0.2005
-0.206
-0.2125
-0.22
-0.2215
-0.2245
-0.23
-0.2345
-0.2425
-0.2525
-0.2615
-0.268
-0.2745
-0.2815
-0.286
-0.2905
-0.296
-0.3005
-0.305
-0.31
-0.3145
-0.319
-0.3215
-0.3255
-0.328
-0.3295
-0.3335
-0.335
-0.337
-0.34
-0.3405
-0.344
-0.347
-0.3465
-0.3465
-0.345
-0.347
-0.348
-0.3465
-0.351
-0.349
-0.346
-0.347
-0.3455
-0.347
-0.3465
-0.3465
-0.3495
-0.351
-0.351
-0.352
-0.3525
-0.3545
-0.354
-0.349
-0.35
-0.3535
-0.352
-0.353
-0.353
-0.351
-0.3515
-0.3525
-0.3505
-0.3505
-0.352
-0.351
-0.3505
-0.349
-0.347
-0.3485
-0.3515
-0.351
-0.353
-0.353
-0.3505
-0.351
-0.3505
-0.35
-0.3495
-0.3505
-0.3505
-0.3505
-0.349
-0.3465
-0.3445
-0.3435
-0.3445
-0.3425
-0.343
-0.3435
-0.3425
-0.344
-0.344
-0.3425
-0.342
-0.3415
-0.3415
-0.3405
-0.337
-0.3395
-0.342
-0.34
-0.341
-0.3395
-0.3395
-0.34
-0.339
-0.3405
-0.3405
-0.34
-0.3395
-0.3385
-0.34
-0.339
-0.3395
-0.339
-0.338
-0.3385
-0.336
-0.3365
-0.337
-0.3345
-0.3305
-0.327
-0.33
-0.3315
-0.33
-0.3315
-0.332
-0.332
-0.3295
-0.328
-0.3295
-0.327
-0.327
-0.3255
-0.3285
-0.3315
-0.3285
-0.328
-0.3255
-0.324
-0.324
-0.324
-0.324
-0.321
-0.3205
-0.32
-0.317
-0.3165
-0.3165
-0.3165
-0.3155
-0.315
-0.317
-0.317
-0.3155
-0.3145
-0.313
-0.3105
-0.309
-0.31
-0.309
-0.308
-0.3115
-0.31
-0.3085
-0.3075
-0.3045
-0.3055
-0.3065
-0.309
-0.3095
-0.308
-0.307
-0.305
-0.304
-0.3025
-0.302
-0.301
-0.3
-0.2995
-0.2965
-0.295
-0.2955
-0.2945
-0.29
-0.29
-0.292
-0.291
-0.2905
-0.2905
-0.288
-0.284
-0.281
-0.279
-0.2785
-0.277
-0.277
-0.2785
-0.2765
-0.2745
-0.2725
-0.272
-0.273
-0.2715
-0.2705
-0.268
-0.2655
-0.265
-0.263
-0.263
-0.2615
-0.2565
-0.2545
-0.2555
-0.251
-0.2495
-0.251
-0.247
-0.2445
-0.243
-0.2425
-0.24
-0.2385
-0.238
-0.235
-0.2315
-0.228
-0.228
-0.225
-0.223
-0.222
-0.2195
-0.219
-0.2155
-0.215
-0.2155
-0.2115
-0.2105
-0.211
-0.2075
-0.2025
-0.202
-0.201
-0.1965
-0.1965
-0.1945
-0.1915
-0.192
-0.191
-0.1875
-0.1875
-0.1875
-0.1855
-0.1835
-0.18
-0.1785
-0.1805
-0.182
-0.1805
-0.1785
-0.175
-0.173
-0.1735
-0.173
-0.1735
-0.172
-0.1735
-0.174
-0.1725
-0.174
-0.175
-0.1765
-0.177
-0.1765
-0.1755
-0.178
-0.181
-0.1805
-0.184
-0.187
-0.189
-0.191
-0.195
-0.198
-0.1995
-0.2025
-0.2055
-0.21
-0.2155
-0.2185
-0.22
-0.225
-0.229
-0.2315
-0.2345
-0.238
-0.242
-0.2475
-0.2495
-0.25
-0.2555
-0.2575
-0.2605
-0.2625
-0.2655
-0.2735
-0.276
-0.278
-0.2805
-0.282
-0.2855
-0.2885
-0.293
-0.2945
-0.2975
-0.3005
-0.3005
-0.305
-0.3075
-0.309
-0.3095
-0.3135
-0.315
-0.3135
-0.317
-0.3185
-0.321
-0.325
-0.326
-0.3265
-0.331
-0.334
-0.3335
-0.333
-0.3335
-0.334
-0.333
-0.3345
-0.339
-0.3395
-0.3395
-0.3405
-0.3405
-0.34
-0.34
-0.3415
-0.342
-0.3425
-0.344
-0.3485
-0.35
-0.3465
-0.346
-0.3495
-0.351
-0.3495
-0.3495
-0.3485
-0.347
-0.347
-0.348
-0.3495
-0.3495
-0.351
-0.35
-0.347
-0.3465
-0.3485
-0.3475
-0.348
-0.351
-0.3515
-0.3525
-0.3525
-0.3535
-0.3555
-0.358
-0.358
-0.3565
-0.3575
-0.358
-0.36
-0.361
-0.3595
-0.3615
-0.362
-0.3615
-0.36
-0.36
-0.3605
-0.3575
-0.358
-0.358
-0.356
-0.3545
-0.355
-0.3545
-0.356
-0.356
-0.3555
-0.355
-0.354
-0.354
-0.3565
-0.358
-0.357
-0.3565
-0.356
-0.3565
-0.354
-0.3545
-0.3565
-0.3555
-0.3545
-0.354
-0.355
-0.3525
-0.354
-0.3555
-0.3565
-0.3585
-0.359
-0.36
-0.36
-0.361
-0.3615
-0.36
-0.3615
-0.364
-0.3605
-0.3575
-0.358
-0.3575
-0.3585
-0.3615
-0.3625
-0.361
-0.362
-0.3625
-0.36
-0.36
-0.362
-0.3605
-0.359
-0.3595
-0.355
-0.3555
-0.3595
-0.3615
-0.3615
-0.361
-0.365
-0.365
-0.365
-0.367
-0.361
-0.3595
-0.3635
-0.363
-0.362
-0.3595
-0.36
-0.3615
-0.362
-0.3565
-0.3575
-0.3595
-0.361
-0.362
-0.3555
-0.3555
-0.355
-0.3575
-0.3585
-0.3575
-0.3595
-0.3575
-0.355
-0.3525
-0.352
-0.352
-0.3535
-0.357
-0.3575
-0.3565
-0.355
-0.354
-0.355
-0.3545
-0.354
-0.3555
-0.355
-0.353
-0.3545
-0.361
-0.361
-0.3605
-0.363
-0.3605
-0.3605
-0.365
-0.364
-0.3605
-0.36
-0.3615
-0.363
-0.359
-0.3565
-0.359
-0.361
-0.361
-0.3615
-0.362
-0.362
-0.3605
-0.36
-0.3615
-0.359
-0.361
-0.363
-0.3635
-0.3635
-0.363
-0.363
-0.3625
-0.367
-0.3615
-0.362
-0.369
-0.3645
-0.362
-0.3665
-0.3665
-0.3635
-0.361
-0.3625
-0.366
-0.3635
-0.3655
-0.3655
-0.3605
-0.362
-0.3645
-0.3645
-0.363
-0.364
-0.364
-0.3635
-0.3645
-0.364
-0.37
-0.3715
-0.368
-0.365
-0.3635
-0.37
-0.367
-0.3665
-0.371
-0.3675
-0.3655
-0.3635
-0.3635
-0.363
-0.3635
-0.3665
-0.366
-0.3655
-0.361
-0.365
-0.37
-0.37
-0.3755
-0.3735
-0.3735
-0.372
-0.366
-0.369
-0.3695
-0.3665
-0.365
-0.359
-0.358
-0.3635
-0.3625
-0.3665
-0.368
-0.3605
-0.362
-0.368
-0.365
-0.364
-0.3685
-0.367
-0.368
-0.368
-0.3655
-0.365
-0.3645
-0.3675
-0.3655
-0.3655
-0.368
-0.3665
-0.364
-0.3655
-0.371
-0.368
-0.366
-0.366
-0.368
-0.37
-0.3655
-0.3645
-0.367
-0.366
-0.3625
-0.3645
-0.3685
-0.3705
-0.3705
-0.3645
-0.3615
-0.3655
-0.3665
-0.366
-0.3665
-0.3685
-0.366
-0.366
-0.3685
-0.3665
-0.3655
-0.365
-0.3655
-0.367
-0.3665
-0.365
-0.37
-0.371
-0.37
-0.3725
-0.372
-0.3675
-0.3635
-0.369
-0.371
-0.3625
-0.3635
-0.368
-0.3625
-0.36
-0.362
-0.3625
-0.3665
-0.3675
-0.364
-0.366
-0.367
-0.364
-0.3615
-0.3625
-0.3645
-0.3655
-0.364
-0.3675
-0.3695
-0.366
-0.365
-0.364
-0.362
-0.3615
-0.366
-0.366
-0.3665
-0.365
-0.3615
-0.363
-0.362
-0.367
-0.37
-0.367
-0.364
-0.368
-0.3715
-0.368
-0.3715
-0.3745
-0.369
-0.37
-0.3725
-0.372
-0.3735
-0.3705
-0.37
-0.371
-0.371
-0.3735
-0.37
-0.369
-0.367
-0.367
-0.374
-0.3735
-0.3725
-0.3675
-0.3655
-0.3705
-0.3705
-0.374
-0.3735
-0.368
-0.373
-0.374
-0.3705
-0.3715
-0.371
-0.37
-0.3725
-0.3725
-0.372
-0.369
-0.368
-0.369
-0.365
-0.3705
-0.373
-0.3585
-0.359
-0.362
-0.3615
-0.3595
-0.353
-0.3545
-0.352
-0.3485
-0.356
-0.3575
-0.353
-0.351
-0.3495
-0.3475
-0.346
-0.343
-0.339
-0.339
-0.3355
-0.337
-0.34
-0.341
-0.337
-0.329
-0.3295
-0.3365
-0.3445
-0.3415
-0.337
-0.3345
-0.3315
-0.332
-0.3295
-0.328
-0.3285
-0.3235
-0.3205
-0.316
-0.307
-0.2975
-0.2975
-0.297
-0.286
-0.2845
-0.2905
-0.2895
-0.2825
-0.2785
-0.2705
-0.267
-0.273
-0.273
-0.277
-0.277
-0.272
-0.272
-0.271
-0.277
-0.281
-0.2825
-0.2825
-0.2825
-0.295
-0.2975
-0.302
-0.3145
-0.31
-0.3125
-0.319
-0.3255
-0.3375
-0.3395
-0.3415
-0.3445
-0.345
-0.347
-0.341
-0.3415
-0.3455
-0.344
-0.3455
-0.3465
-0.349
-0.3495
-0.353
-0.358
-0.3575
-0.3565
-0.355
-0.361
-0.3615
-0.36
-0.36
-0.3585
-0.359
-0.364
-0.3685
-0.362
-0.362
-0.364
-0.3625
-0.359
-0.3565
-0.359
-0.3655
-0.37
-0.367
-0.365
-0.3655
-0.3695
-0.3725
-0.371
-0.3715
-0.37
-0.3715
-0.3725
-0.37
-0.3725
-0.371
-0.3735
-0.377
-0.3765
-0.376
-0.372
-0.375
-0.3725
-0.3695
-0.369
-0.3655
-0.3675
-0.369
-0.373
-0.3725
-0.3695
-0.369
-0.368
-0.3685
-0.3675
-0.369
-0.368
-0.374
-0.3815
-0.381
-0.38
-0.382
-0.385
-0.383
-0.3895
-0.397
-0.4025
-0.4145
-0.4265
-0.4385
-0.4475
-0.46
-0.4705
-0.4755
-0.48
-0.4745
-0.453
-0.433
-0.41
-0.3815
-0.3475
-0.3045
-0.257
-0.195
-0.1225
-0.0425
0.0305
0.096
0.1735
0.247
0.315
0.3785
0.449
0.5165
0.562
0.596
0.6215
0.662
0.701
0.73
0.7605
0.7495
0.707
0.6635
0.608
0.562
0.519
0.4665
0.398
0.3195
0.2315
0.1305
0.0415
-0.0425
-0.0985
-0.1195
-0.142
-0.1595
-0.1645
-0.1705
-0.1765
-0.1755
-0.1785
-0.1915
-0.199
-0.201
-0.201
-0.203
-0.2075
-0.2155
-0.224
-0.224
-0.2325
-0.2435
-0.2525
-0.2575
-0.2595
-0.268
-0.274
-0.2795
-0.284
-0.2875
-0.29
-0.2895
-0.298
-0.3045
-0.3045
-0.303
-0.3055
-0.3095
-0.306
-0.315
-0.323
-0.3175
-0.3125
-0.317
-0.322
-0.3215
-0.32
-0.322
-0.3295
-0.3295
-0.3265
-0.327
-0.328
-0.3305
-0.33
-0.329
-0.3315
-0.333
-0.3345
-0.334
-0.334
-0.3385
-0.3385
-0.334
-0.333
-0.3355
-0.337
-0.337
-0.3315
-0.329
-0.3315
-0.33
-0.332
-0.333
-0.333
-0.3355
-0.3355
-0.3355
-0.3375
-0.333
-0.327
-0.329
-0.325
-0.3245
-0.326
-0.3305
-0.3325
-0.326
-0.3315
-0.3295
-0.325
-0.323
-0.322
-0.328
-0.323
-0.318
-0.3245
-0.325
-0.328
-0.3275
-0.326
-0.3295
-0.3215
-0.322
-0.323
-0.3225
-0.3205
-0.3185
-0.3235
-0.322
-0.3165
-0.3145
-0.319
-0.321
-0.32
-0.3205
-0.322
-0.324
-0.325
-0.326
-0.323
-0.323
-0.321
-0.318
-0.3195
-0.318
-0.3135
-0.3135
-0.315
-0.316
-0.3125
-0.3115
-0.311
-0.307
-0.3095
-0.309
-0.3095
-0.311
-0.3085
-0.3095
-0.3105
-0.3075
-0.307
-0.303
-0.296
-0.301
-0.307
-0.3035
-0.298
-0.3005
-0.3065
-0.303
-0.297
-0.299
-0.3025
-0.304
-0.302
-0.297
-0.2935
-0.2955
-0.2935
-0.2885
-0.2935
-0.2985
-0.293
-0.291
-0.295
-0.296
-0.295
-0.285
-0.2855
-0.29
-0.286
-0.2895
-0.287
-0.2845
-0.288
-0.289
-0.2845
-0.2825
-0.288
-0.2795
-0.2785
-0.286
-0.282
-0.2875
-0.282
-0.277
-0.2825
-0.275
-0.2765
-0.2755
-0.269
-0.2695
-0.271
-0.273
-0.267
-0.2645
-0.266
-0.259
-0.259
-0.2625
-0.2555
-0.2505
-0.2505
-0.255
-0.2545
-0.249
-0.25
-0.2505
-0.2495
-0.2445
-0.241
-0.2465
-0.245
-0.2415
-0.25
-0.2475
-0.2455
-0.242
-0.2355
-0.239
-0.2355
-0.233
-0.2345
-0.231
-0.2285
-0.227
-0.227
-0.2295
-0.2255
-0.2205
-0.2205
-0.216
-0.2105
-0.209
-0.2095
-0.207
-0.2025
-0.2025
-0.2025
-0.202
-0.2015
-0.199
-0.1935
-0.188
-0.1935
-0.192
-0.1915
-0.1935
-0.1905
-0.1865
-0.178
-0.1835
-0.1865
-0.18
-0.1825
-0.179
-0.1755
-0.1725
-0.1715
-0.174
-0.1695
-0.1655
-0.1665
-0.168
-0.1685
-0.166
-0.1595
-0.1555
-0.154
-0.1545
-0.1455
-0.1445
-0.1505
-0.1445
-0.1425
-0.145
-0.147
-0.15
-0.155
-0.1525
-0.1475
-0.1485
-0.157
-0.1625
-0.158
-0.1575
-0.1545
-0.15
-0.153
-0.163
-0.17
-0.173
-0.168
-0.1665
-0.178
-0.175
-0.1705
-0.1795
-0.186
-0.195
-0.2015
-0.197
-0.2015
-0.2095
-0.207
-0.2145
-0.218
-0.2225
-0.229
-0.2305
-0.2415
-0.2435
-0.246
-0.251
-0.2525
-0.2595
-0.2605
-0.257
-0.253
-0.2625
-0.274
-0.2745
-0.2745
-0.2735
-0.2805
-0.2845
-0.2785
-0.282
-0.2935
-0.294
-0.2955
-0.2995
-0.3035
-0.3065
-0.311
-0.315
-0.3085
-0.3105
-0.311
-0.3155
-0.324
-0.322
-0.316
-0.3155
-0.3205
-0.3225
-0.325
-0.319
-0.319
-0.325
-0.325
-0.3305
-0.3335
-0.3305
-0.3245
-0.319
-0.323
-0.3295
-0.3305
-0.3285
-0.329
-0.338
-0.34
-0.3375
-0.3365
-0.3315
-0.333
-0.3375
-0.336
-0.3405
-0.344
-0.335
-0.331
-0.333
-0.33
-0.331
-0.3365
-0.337
-0.3375
-0.3355
-0.3355
-0.338
-0.3345
-0.3335
-0.34
-0.342
-0.336
-0.333
-0.339
-0.3415
-0.3405
-0.3365
-0.3395
-0.346
-0.3435
-0.3425
-0.3395
-0.338
-0.337
-0.339
-0.3415
-0.34
-0.3405
-0.337
-0.3365
-0.3385
-0.337
-0.335
-0.3365
-0.3405
-0.3365
-0.3345
-0.336
-0.3375
-0.3405
-0.34
-0.3415
-0.3395
-0.332
-0.333
-0.3395
-0.3365
-0.334
-0.3335
-0.325
-0.332
-0.3355
-0.332
-0.3395
-0.3395
-0.3395
-0.3415
-0.3415
-0.338
-0.3385
-0.3445
-0.3365
-0.328
-0.3315
-0.3335
-0.3295
-0.3275
-0.333
-0.3385
-0.3345
-0.342
-0.343
-0.335
-0.3365
-0.3315
-0.3365
-0.333
-0.329
-0.337
-0.3315
-0.334
-0.3345
-0.332
-0.339
-0.3435
-0.3405
-0.3345
-0.3355
-0.3435
-0.3455
-0.3415
-0.3425
-0.338
-0.336
-0.338
-0.338
-0.341
-0.33
-0.325
-0.322
-0.3215
-0.3345
-0.335
-0.3285
-0.329
-0.3245
-0.325
-0.332
-0.333
-0.334
-0.327
-0.3255
-0.335
-0.333
-0.3295
-0.333
-0.33
-0.335
-0.3425
-0.34
-0.3425
-0.339
-0.331
-0.3265
-0.3285
-0.34
-0.3365
-0.33
-0.3335
-0.3345
-0.3335
-0.332
-0.3325
-0.337
-0.3375
-0.333
-0.3425
-0.3505
-0.3455
-0.34
-0.3395
-0.3405
-0.3365
-0.3405
-0.349
-0.3465
-0.343
-0.344
-0.3485
-0.3455
-0.3425
-0.3485
-0.3515
-0.3515
-0.3445
-0.347
-0.353
-0.3515
-0.3515
-0.351
-0.3485
-0.351
-0.351
-0.346
-0.3485
-0.3505
-0.347
-0.3435
-0.3465
-0.347
-0.346
-0.349
-0.345
-0.3425
-0.35
-0.353
-0.342
-0.345
-0.3475
-0.339
-0.34
-0.34
-0.3465
-0.345
-0.338
-0.3445
-0.344
-0.3445
-0.344
-0.3425
-0.3475
-0.3435
-0.3455
-0.3475
-0.343
-0.341
-0.3385
-0.3455
-0.35
-0.3485
-0.3455
-0.3405
-0.3425
-0.3445
-0.3475
-0.3555
-0.354
-0.3495
-0.353
-0.3505
-0.345
-0.351
-0.3475
-0.3375
-0.34
-0.3445
-0.3405
-0.338
-0.3395
-0.339
-0.341
-0.3375
-0.3355
-0.343
-0.348
-0.3465
-0.345
-0.342
-0.3445
-0.349
-0.3445
-0.3405
-0.339
-0.343
-0.3445
-0.34
-0.3395
-0.3405
-0.34
-0.3415
-0.3435
-0.342
-0.345
-0.3465
-0.345
-0.3515
-0.356
-0.3485
-0.3375
-0.338
-0.3435
-0.348
-0.345
-0.3435
-0.357
-0.355
-0.3425
-0.342
-0.3425
-0.3395
-0.343
-0.352
-0.3475
-0.3415
-0.344
-0.34
-0.3405
-0.3495
-0.3455
-0.3395
-0.34
-0.3375
-0.3435
-0.351
-0.3515
-0.348
-0.3445
-0.3445
-0.341
-0.3485
-0.355
-0.346
-0.341
-0.345
-0.3505
-0.3495
-0.347
-0.3475
-0.351
-0.3455
-0.3425
-0.3465
-0.344
-0.3445
-0.3445
-0.3455
-0.3495
-0.351
-0.3525
-0.3565
-0.3535
-0.35
-0.3535
-0.346
-0.3525
-0.3665
-0.3585
-0.3525
-0.3535
-0.35
-0.348
-0.3525
-0.353
-0.3485
-0.349
-0.348
-0.342
-0.3455
-0.352
-0.356
-0.351
-0.344
-0.3495
-0.3455
-0.344
-0.3505
-0.351
-0.345
-0.338
-0.341
-0.3415
-0.342
-0.348
-0.3495
-0.353
-0.355
-0.354
-0.35
-0.346
-0.351
-0.355
-0.3545
-0.353
-0.3465
-0.342
-0.347
-0.352
-0.3495
-0.3465
-0.346
-0.3485
-0.3485
-0.3495
-0.3515
-0.3535
-0.3545
-0.3455
-0.3475
-0.351
-0.3485
-0.346
-0.341
-0.342
-0.34
-0.34
-0.341
-0.3345
-0.3335
-0.3315
-0.331
-0.3385
-0.339
-0.3275
-0.323
-0.33
-0.3295
-0.325
-0.3225
-0.317
-0.317
-0.3195
-0.317
-0.322
-0.32
-0.3125
-0.314
-0.3165
-0.3145
-0.3115
-0.3175
-0.316
-0.308
-0.3025
-0.3055
-0.307
-0.3035
-0.305
-0.299
-0.2935
-0.287
-0.285
-0.283
-0.279
-0.279
-0.272
-0.2745
-0.2725
-0.2585
-0.2555
-0.2535
-0.258
-0.257
-0.2585
-0.2655
-0.264
-0.269
-0.267
-0.2675
-0.2705
-0.268
-0.2745
-0.277
-0.2735
-0.275
-0.2785
-0.2875
-0.298
-0.296
-0.2995
-0.311
-0.317
-0.3175
-0.316
-0.315
-0.319
-0.3265
-0.328
-0.323
-0.321
-0.325
-0.3265
-0.332
-0.334
-0.33
-0.3375
-0.3435
-0.343
-0.3465
-0.345
-0.3455
-0.347
-0.3445
-0.347
-0.3435
-0.345
-0.344
-0.3415
-0.3445
-0.3425
-0.351
-0.351
-0.35
-0.3525
-0.35
-0.352
-0.348
-0.348
-0.353
-0.3515
-0.3555
-0.3555
-0.355
-0.357
-0.356
-0.3585
-0.357
-0.358
-0.3555
-0.358
-0.3565
-0.3585
-0.3645
-0.353
-0.351
-0.3545
-0.358
-0.3625
-0.362
-0.3625
-0.3635
-0.3645
-0.365
-0.358
-0.358
-0.365
-0.364
-0.3635
-0.3565
-0.3505
-0.352
-0.3545
-0.355
-0.3555
-0.3585
-0.3595
-0.3655
-0.374
-0.3775
-0.384
-0.39
-0.398
-0.41
-0.4185
-0.4325
-0.439
-0.448
-0.451
-0.4485
-0.457
-0.443
-0.4085
-0.3855
-0.38
-0.359
-0.312
-0.266
-0.2195
-0.1495
-0.0725
-0.0075
0.0595
0.129
0.1945
0.2695
0.3365
0.3905
0.446
0.4875
0.5215
0.549
0.5875
0.622
0.638
0.663
0.67
0.652
0.61
0.5505
0.5025
0.462
0.419
0.364
0.2855
0.199
0.104
-0.0045
-0.0965
-0.142
-0.1705
-0.198
-0.2015
-0.199
-0.1965
-0.1925
-0.1905
-0.193
-0.201
-0.2095
-0.213
-0.2085
-0.215
-0.222
-0.223
-0.23
-0.2315
-0.2365
-0.2525
-0.259
-0.2545
-0.2645
-0.275
-0.271
-0.278
-0.286
-0.293
-0.3065
-0.306
-0.3015
-0.304
-0.31
-0.316
-0.3135
-0.3125
-0.3175
-0.316
-0.318
-0.319
-0.3135
-0.319
-0.321
-0.3205
-0.321
-0.3215
-0.321
-0.319
-0.3185
-0.3215
-0.3235
-0.3175
-0.32
-0.33
-0.328
-0.325
-0.3285
-0.3245
-0.331
-0.3325
-0.329
-0.3325
-0.328
-0.333
-0.336
-0.332
-0.3265
-0.323
-0.3285
-0.3325
-0.3315
-0.3245
-0.322
-0.3195
-0.315
-0.318
-0.32
-0.3195
-0.3175
-0.318
-0.3195
-0.3165
-0.3165
-0.317
-0.313
-0.311
-0.3095
-0.3145
-0.3125
-0.3145
-0.322
-0.321
-0.323
-0.322
-0.331
-0.33
-0.321
-0.32
-0.321
-0.325
-0.321
-0.3195
-0.325
-0.3245
-0.323
-0.3215
-0.3195
-0.3195
-0.3155
-0.32
-0.3295
-0.324
-0.322
-0.322
-0.3215
-0.3275
-0.3305
-0.328
-0.319
-0.316
-0.312
-0.3105
-0.3155
-0.31
-0.3135
-0.3105
-0.305
-0.3165
-0.3085
-0.303
-0.31
-0.301
-0.302
-0.307
-0.306
-0.308
-0.307
-0.305
-0.3015
-0.31
-0.3195
-0.309
-0.304
-0.31
-0.3035
-0.3005
-0.3045
-0.2935
-0.292
-0.2995
-0.2995
-0.3005
-0.303
-0.2975
-0.294
-0.293
-0.2925
-0.292
-0.284
-0.2835
-0.287
-0.293
-0.29
-0.2845
-0.2955
-0.293
-0.2885
-0.2915
-0.2885
-0.2855
-0.2835
-0.2835
-0.2865
-0.286
-0.2845
-0.288
-0.2845
-0.282
-0.284
-0.286
-0.289
-0.2815
-0.2775
-0.2825
-0.2805
-0.28
-0.283
-0.2815
-0.2795
-0.2755
-0.2745
-0.275
-0.276
-0.276
-0.275
-0.2775
-0.278
-0.2685
-0.2665
-0.2655
-0.258
-0.263
-0.268
-0.2655
-0.2565
-0.251
-0.25
-0.245
-0.248
-0.249
-0.244
-0.2455
-0.2415
-0.2455
-0.2445
-0.234
-0.231
-0.2285
-0.2255
-0.2265
-0.2335
-0.2295
-0.225
-0.229
-0.229
-0.227
-0.2205
-0.2165
-0.2125
-0.2065
-0.209
-0.209
-0.206
-0.2075
-0.207
-0.202
-0.211
-0.2025
-0.1935
-0.1955
-0.191
-0.1915
-0.188
-0.187
-0.183
-0.179
-0.18
-0.182
-0.176
-0.168
-0.174
-0.1775
-0.1715
-0.172
-0.1775
-0.1745
-0.176
-0.1725
-0.1695
-0.168
-0.168
-0.1705
-0.165
-0.1655
-0.163
-0.159
-0.162
-0.164
-0.1595
-0.1615
-0.1565
-0.153
-0.159
-0.155
-0.1515
-0.1535
-0.151
-0.1495
-0.1565
-0.15
-0.1505
-0.1585
-0.153
-0.1585
-0.164
-0.168
-0.167
-0.1625
-0.167
-0.1595
-0.1605
-0.173
-0.1775
-0.183
-0.1825
-0.183
-0.185
-0.1885
-0.1925
-0.1925
-0.1995
-0.2105
-0.209
-0.208
-0.213
-0.214
-0.218
-0.2215
-0.2245
-0.231
-0.2305
-0.23
-0.238
-0.243
-0.243
-0.245
-0.251
-0.2445
-0.2435
-0.259
-0.258
-0.2615
-0.272
-0.2735
-0.273
-0.2745
-0.277
-0.2765
-0.282
-0.288
-0.277
-0.2745
-0.287
-0.2945
-0.2965
-0.297
-0.2995
-0.3
-0.3045
-0.304
-0.3035
-0.304
-0.3045
-0.3115
-0.311
-0.3045
-0.3055
-0.3095
-0.3095
-0.313
-0.3165
-0.319
-0.319
-0.3175
-0.3215
-0.325
-0.325
-0.324
-0.3175
-0.3195
-0.3265
-0.3245
-0.328
-0.337
-0.3355
-0.328
-0.3345
-0.3405
-0.336
-0.337
-0.3325
-0.335
-0.3355
-0.326
-0.3245
-0.323
-0.327
-0.3315
-0.3325
-0.33
-0.3275
-0.3305
-0.3325
-0.3345
-0.3345
-0.3295
-0.329
-0.338
-0.3365
-0.333
-0.3345
-0.3305
-0.33
-0.3335
-0.33
-0.325
-0.325
-0.333
-0.3275
-0.322
-0.3285
-0.331
-0.3285
-0.326
-0.325
-0.3245
-0.3265
-0.316
-0.322
-0.326
-0.314
-0.324
-0.3275
-0.3225
-0.3225
-0.3185
-0.317
-0.318
-0.32
-0.3205
-0.319
-0.3185
-0.3175
-0.322
-0.323
-0.326
-0.322
-0.3255
-0.3275
-0.3095
-0.314
-0.3225
-0.31
-0.3085
-0.321
-0.3205
-0.3185
-0.325
-0.323
-0.3135
-0.316
-0.3215
-0.3205
-0.319
-0.322
-0.3175
-0.315
-0.3195
-0.314
-0.3165
-0.321
-0.3205
-0.322
-0.314
-0.3135
-0.3205
-0.32
-0.319
-0.319
-0.3175
-0.3185
-0.3235
-0.319
-0.3155
-0.3145
-0.32
-0.3215
-0.318
-0.3195
-0.3165
-0.318
-0.3245
-0.327
-0.3185
-0.316
-0.316
-0.314
-0.3175
-0.3175
-0.3205
-0.3225
-0.3225
-0.3195
-0.319
-0.327
-0.326
-0.322
-0.324
-0.3285
-0.33
-0.3295
-0.322
-0.3185
-0.325
-0.326
-0.3295
-0.3345
-0.333
-0.332
-0.327
-0.3205
-0.3275
-0.3365
-0.336
-0.336
-0.3345
-0.3305
-0.3265
-0.319
-0.3205
-0.3245
-0.325
-0.3275
-0.328
-0.3285
-0.326
-0.3295
-0.336
-0.331
-0.326
-0.328
-0.328
-0.3305
-0.3345
-0.3345
-0.3295
-0.333
-0.336
-0.3315
-0.3335
-0.339
-0.335
-0.3285
-0.332
-0.34
-0.34
-0.335
-0.3405
-0.342
-0.3365
-0.339
-0.3395
-0.3365
-0.336
-0.3425
-0.34
-0.336
-0.3315
-0.3305
-0.3435
-0.3415
-0.339
-0.3405
-0.3325
-0.336
-0.334
-0.336
-0.347
-0.3345
-0.3365
-0.3475
-0.3355
-0.334
-0.339
-0.342
-0.3355
-0.332
-0.3345
-0.3345
-0.344
-0.3445
-0.333
-0.3395
-0.348
-0.3475
-0.351
-0.3475
-0.346
-0.341
-0.3435
-0.349
-0.3485
-0.346
-0.3425
-0.346
-0.3375
-0.332
-0.3415
-0.342
-0.336
-0.3405
-0.345
-0.339
-0.339
-0.3445
-0.338
-0.334
-0.3365
-0.342
-0.3475
-0.342
-0.3445
-0.3435
-0.342
-0.3365
-0.3355
-0.3445
-0.3455
-0.3465
-0.3405
-0.3405
-0.345
-0.3455
-0.3395
-0.3395
-0.3425
-0.3335
-0.338
-0.345
-0.3405
-0.34
-0.339
-0.337
-0.34
-0.3405
-0.33
-0.331
-0.3425
-0.338
-0.34
-0.345
-0.352
-0.3475
-0.3375
-0.3445
-0.3415
-0.3395
-0.345
-0.3445
-0.3435
-0.348
-0.3465
-0.3445
-0.346
-0.343
-0.3405
-0.3405
-0.3445
-0.3435
-0.344
-0.346
-0.342
-0.3415
-0.3425
-0.3445
-0.3445
-0.344
-0.3405
-0.339
-0.348
-0.3505
-0.343
-0.3395
-0.343
-0.344
-0.339
-0.3385
-0.338
-0.3355
-0.3365
-0.3345
-0.336
-0.3405
-0.3345
-0.335
-0.3355
-0.332
-0.345
-0.3455
-0.3405
-0.338
-0.3385
-0.345
-0.3405
-0.34
-0.3415
-0.344
-0.346
-0.3445
-0.3465
-0.3385
-0.339
-0.343
-0.3395
-0.339
-0.341
-0.344
-0.347
-0.3465
-0.3445
-0.344
-0.344
-0.346
-0.342
-0.343
-0.3425
-0.3365
-0.337
-0.3375
-0.3365
-0.3335
-0.3325
-0.334
-0.3345
-0.344
-0.3415
-0.334
-0.342
-0.339
-0.337
-0.3365
-0.3355
-0.335
-0.3285
-0.332
-0.3395
-0.3395
-0.337
-0.3305
-0.3285
-0.3295
-0.3305
-0.331
-0.3305
-0.3335
-0.3295
-0.3235
-0.3215
-0.326
-0.3275
-0.3215
-0.323
-0.3245
-0.316
-0.3125
-0.313
-0.3125
-0.3205
-0.322
-0.3175
-0.3155
-0.3135
-0.317
-0.3225
-0.3225
-0.3145
-0.3105
-0.3065
-0.303
-0.304
-0.3015
-0.2965
-0.2945
-0.2905
-0.282
-0.2785
-0.276
-0.271
-0.2665
-0.26
-0.259
-0.2625
-0.2575
-0.259
-0.2615
-0.254
-0.2565
-0.2645
-0.2655
-0.2665
-0.2705
-0.265
-0.26
-0.2585
-0.259
-0.2665
-0.2705
-0.27
-0.2665
-0.268
-0.281
-0.288
-0.292
-0.293
-0.293
-0.2995
-0.307
-0.315
-0.317
-0.3205
-0.321
-0.321
-0.325
-0.319
-0.3205
-0.331
-0.332
-0.325
-0.324
-0.3295
-0.3295
-0.3235
-0.331
-0.3435
-0.342
-0.3415
-0.339
-0.3355
-0.339
-0.3395
-0.341
-0.342
-0.3395
-0.3365
-0.3365
-0.345
-0.351
-0.3455
-0.345
-0.3545
-0.358
-0.36
-0.357
-0.349
-0.349
-0.3485
-0.3465
-0.3475
-0.3475
-0.353
-0.3575
-0.356
-0.3545
-0.3555
-0.3545
-0.3525
-0.3525
-0.3515
-0.351
-0.351
-0.35
-0.3465
-0.343
-0.346
-0.348
-0.3455
-0.343
-0.3435
-0.3455
-0.3505
-0.349
-0.348
-0.3545
-0.3515
-0.3515
-0.353
-0.3495
-0.3545
-0.3595
-0.36
-0.3555
-0.3565
-0.3605
-0.366
-0.3815
-0.388
-0.3955
-0.4065
-0.415
-0.424
-0.4325
-0.4425
-0.4465
-0.449
-0.4455
-0.43
-0.408
-0.3835
-0.365
-0.3415
-0.302
-0.257
-0.2075
-0.1435
-0.07
-0.005
0.057
0.1215
0.1845
0.253
0.308
0.3635
0.424
0.4665
0.493
0.5135
0.5545
0.587
0.604
0.63
0.633
0.603
0.565
0.52
0.4725
0.4335
0.3875
0.338
0.2775
0.191
0.099
0.006
-0.077
-0.1295
-0.1585
-0.173
-0.179
-0.184
-0.191
-0.1885
-0.187
-0.191
-0.1945
-0.2005
-0.2055
-0.211
-0.2115
-0.2165
-0.2175
-0.22
-0.231
-0.237
-0.243
-0.248
-0.2515
-0.2585
-0.271
-0.279
-0.2785
-0.277
-0.282
-0.2875
-0.292
-0.2985
-0.303
-0.3045
-0.3005
-0.308
-0.307
-0.302
-0.3125
-0.3155
-0.315
-0.3135
-0.312
-0.314
-0.3185
-0.316
-0.3145
-0.3255
-0.3255
-0.3225
-0.326
-0.3215
-0.3145
-0.319
-0.3195
-0.323
-0.3305
-0.3245
-0.3225
-0.321
-0.32
-0.322
-0.323
-0.32
-0.3135
-0.314
-0.3145
-0.3185
-0.317
-0.3155
-0.3205
-0.322
-0.32
-0.3155
-0.3165
-0.319
-0.321
-0.3185
-0.3135
-0.3175
-0.3195
-0.321
-0.3235
-0.3245
-0.322
-0.3155
-0.316
-0.3135
-0.3175
-0.3225
-0.316
-0.3165
-0.318
-0.318
-0.3195
-0.32
-0.3185
-0.3155
-0.3145
-0.318
-0.3145
-0.313
-0.315
-0.312
-0.315
-0.314
-0.3165
-0.317
-0.311
-0.3155
-0.3165
-0.316
-0.3165
-0.318
-0.315
-0.3165
-0.3155
-0.312
-0.315
-0.3095
-0.308
-0.313
-0.3105
-0.3035
-0.308
-0.3085
-0.3045
-0.31
-0.3065
-0.3065
-0.306
-0.3035
-0.302
-0.2955
-0.294
-0.2965
-0.2995
-0.302
-0.3015
-0.299
-0.2995
-0.302
-0.303
-0.302
-0.297
-0.3
-0.3035
-0.302
-0.302
-0.295
-0.2955
-0.2975
-0.2955
-0.2985
-0.2965
-0.2965
-0.296
-0.294
-0.2955
-0.292
-0.2895
-0.291
-0.2925
-0.2915
-0.2895
-0.287
-0.2865
-0.289
-0.2895
-0.2865
-0.2905
-0.2935
-0.287
-0.283
-0.2805
-0.28
-0.2775
-0.2735
-0.276
-0.2785
-0.2795
-0.2775
-0.2745
-0.275
-0.2735
-0.2695
-0.272
-0.273
-0.2685
-0.2655
-0.2655
-0.271
-0.2695
-0.2675
-0.272
-0.272
-0.27
-0.27
-0.267
-0.264
-0.263
-0.264
-0.2615
-0.255
-0.257
-0.255
-0.2515
-0.2535
-0.256
-0.255
-0.2545
-0.251
-0.244
-0.2405
-0.2385
-0.239
-0.2375
-0.2395
-0.24
-0.236
-0.235
-0.2335
-0.23
-0.229
-0.2275
-0.225
-0.2255
-0.227
-0.225
-0.221
-0.222
-0.224
-0.2185
-0.213
-0.214
-0.2135
-0.213
-0.208
-0.208
-0.2065
-0.2045
-0.206
-0.199
-0.199
-0.1995
-0.1995
-0.2015
-0.199
-0.196
-0.194
-0.19
-0.189
-0.1895
-0.1875
-0.185
-0.1825
-0.1815
-0.1815
-0.176
-0.172
-0.172
-0.1685
-0.167
-0.1685
-0.167
-0.1645
-0.162
-0.162
-0.16
-0.1605
-0.162
-0.157
-0.159
-0.1605
-0.1555
-0.157
-0.1565
-0.1545
-0.156
-0.156
-0.152
-0.1555
-0.162
-0.156
-0.155
-0.1575
-0.157
-0.159
-0.161
-0.163
-0.164
-0.1705
-0.171
-0.175
-0.1805
-0.1795
-0.1875
-0.189
-0.1905
-0.1905
-0.19
-0.194
-0.1935
-0.1985
-0.2035
-0.207
-0.2125
-0.2105
-0.214
-0.2175
-0.225
-0.2305
-0.228
-0.232
-0.235
-0.2395
-0.2425
-0.2435
-0.2455
-0.251
-0.256
-0.2565
-0.259
-0.26
-0.264
-0.2675
-0.2665
-0.2745
-0.2775
-0.273
-0.281
-0.2865
-0.289
-0.2895
-0.2875
-0.2925
-0.2965
-0.299
-0.3025
-0.3015
-0.304
-0.305
-0.3
-0.3075
-0.3115
-0.309
-0.3125
-0.312
-0.3135
-0.3125
-0.3165
-0.318
-0.32
-0.3245
-0.3215
-0.322
-0.322
-0.324
-0.324
-0.3245
-0.328
-0.328
-0.326
-0.324
-0.3265
-0.327
