ECG
-0.061
-0.0615
-0.064
-0.064
-0.061
-0.0605
-0.061
-0.0585
-0.0555
-0.0535
-0.053
-0.0525
-0.0535
-0.055
-0.0545
-0.059
-0.0595
-0.057
-0.0565
-0.0555
-0.055
-0.057
-0.0635
-0.062
-0.059
-0.055
-0.0525
-0.0565
-0.056
-0.0595
-0.0595
-0.054
-0.056
-0.058
-0.0575
-0.055
-0.0545
-0.0535
-0.0545
-0.0575
-0.057
-0.0555
-0.0555
-0.0545
-0.0495
-0.05
-0.0495
-0.055
-0.0615
-0.055
-0.0525
-0.053
-0.0525
-0.0545
-0.055
-0.0545
-0.0535
-0.052
-0.0535
-0.0555
-0.056
-0.056
-0.0545
-0.0575
-0.061
-0.0615
-0.0655
-0.0695
-0.071
-0.078
-0.088
-0.101
-0.1125
-0.118
-0.132
-0.1485
-0.1555
-0.1635
-0.174
-0.179
-0.179
-0.178
-0.1715
-0.1575
-0.142
-0.1295
-0.116
-0.099
-0.0905
-0.089
-0.0895
-0.087
-0.07
-0.06
-0.064
-0.0735
-0.081
-0.0865
-0.1105
-0.144
-0.1665
-0.1755
-0.1735
-0.1905
-0.195
-0.165
-0.153
-0.1575
-0.169
-0.176
-0.165
-0.1315
-0.0995
-0.092
-0.066
-0.0355
-0.034
-0.049
-0.0555
-0.0505
-0.062
-0.0745
-0.075
-0.0745
-0.0745
-0.077
-0.074
-0.059
-0.0375
-0.0195
-0.005
0.0095
0.0305
0.048
0.0655
0.086
0.1095
0.123
0.128
0.131
0.1245
0.1165
0.104
0.0905
0.081
0.0685
0.0535
0.042
0.036
0.0265
0.014
0.003
-0.0025
-0.0055
-0.013
-0.0205
-0.0255
-0.0285
-0.029
-0.0305
-0.032
-0.0345
-0.035
-0.0355
-0.036
-0.0355
-0.037
-0.041
-0.0485
-0.0525
-0.0505
-0.054
-0.0605
-0.0595
-0.0585
-0.0575
-0.0595
-0.0625
-0.061
-0.062
-0.062
-0.065
-0.072
-0.071
-0.0685
-0.07
-0.0695
-0.0715
-0.073
-0.0705
-0.072
-0.0725
-0.0715
-0.0715
-0.0725
-0.0735
-0.074
-0.075
-0.0745
-0.072
-0.072
-0.073
-0.07
-0.0695
-0.0705
-0.072
-0.073
-0.0685
-0.07
-0.0785
-0.0805
-0.08
-0.0805
-0.078
-0.0695
-0.069
-0.0745
-0.076
-0.078
-0.0795
-0.085
-0.086
-0.084
-0.085
-0.0865
-0.085
-0.0825
-0.0845
-0.0835
-0.0815
-0.0805
-0.0815
-0.0845
-0.0865
-0.091
-0.091
-0.0905
-0.0905
-0.0915
-0.0915
-0.091
-0.0905
-0.09
-0.09
-0.0895
-0.09
-0.09
-0.0875
-0.087
-0.083
-0.0805
-0.0795
-0.0775
-0.08
-0.082
-0.084
-0.0875
-0.0905
-0.093
-0.0945
-0.093
-0.0915
-0.0925
-0.092
-0.0915
-0.0915
-0.092
-0.0935
-0.0945
-0.0955
-0.098
-0.1025
-0.101
-0.0985
-0.097
-0.094
-0.0935
-0.094
-0.0965
-0.097
-0.0975
-0.0985
-0.097
-0.094
-0.091
-0.0915
-0.094
-0.0945
-0.092
-0.089
-0.0885
-0.093
-0.095
-0.0955
-0.0945
-0.0935
-0.0945
-0.0945
-0.0965
-0.094
-0.093
-0.0975
-0.0985
-0.1045
-0.106
-0.1015
-0.101
-0.1005
-0.1015
-0.1035
-0.1085
-0.11
-0.1095
-0.1135
-0.113
-0.11
-0.1135
-0.118
-0.118
-0.1195
-0.12
-0.1225
-0.1215
-0.1195
-0.121
-0.122
-0.1215
-0.1225
-0.121
-0.12
-0.1245
-0.1275
-0.13
-0.127
-0.127
-0.131
-0.1325
-0.1305
-0.13
-0.1365
-0.14
-0.144
-0.148
-0.151
-0.155
-0.155
-0.1565
-0.159
-0.1605
-0.162
-0.1625
-0.1635
-0.16
-0.166
-0.1755
-0.1755
-0.177
-0.181
-0.1875
-0.1895
-0.187
-0.19
-0.19
-0.1865
-0.1865
-0.188
-0.19
-0.19
-0.19
-0.191
-0.1885
-0.1865
-0.189
-0.1895
-0.186
-0.184
-0.1825
-0.1815
-0.1805
-0.18
-0.182
-0.182
-0.1785
-0.177
-0.175
-0.172
-0.1695
-0.166
-0.1655
-0.162
-0.161
-0.1615
-0.155
-0.1545
-0.1565
-0.1575
-0.1565
-0.156
-0.155
-0.1475
-0.144
-0.1455
-0.146
-0.144
-0.1405
-0.1395
-0.141
-0.14
-0.134
-0.1295
-0.129
-0.1285
-0.1295
-0.131
-0.1315
-0.1295
-0.1275
-0.125
-0.1205
-0.121
-0.1235
-0.1235
-0.123
-0.125
-0.125
-0.1185
-0.1185
-0.1185
-0.115
-0.1155
-0.1145
-0.116
-0.114
-0.1105
-0.1095
-0.1065
-0.1065
-0.109
-0.109
-0.104
-0.1075
-0.1115
-0.1075
-0.109
-0.1075
-0.1055
-0.1055
-0.1055
-0.106
-0.109
-0.1125
-0.112
-0.112
-0.1105
-0.107
-0.108
-0.1095
-0.108
-0.1085
-0.109
-0.11
-0.109
-0.109
-0.1075
-0.1065
-0.1065
-0.107
-0.11
-0.1105
-0.114
-0.1145
-0.112
-0.1115
-0.1105
-0.1105
-0.1105
-0.113
-0.114
-0.114
-0.111
-0.109
-0.109
-0.1075
-0.11
-0.1105
-0.1145
-0.121
-0.1215
-0.119
-0.1205
-0.1225
-0.119
-0.118
-0.1205
-0.1215
-0.121
-0.1205
-0.1205
-0.1245
-0.1245
-0.1195
-0.1205
-0.1225
-0.121
-0.1185
-0.1165
-0.1165
-0.1205
-0.1225
-0.123
-0.121
-0.121
-0.1285
-0.127
-0.1255
-0.128
-0.124
-0.1235
-0.125
-0.123
-0.1225
-0.121
-0.1175
-0.1165
-0.1155
-0.115
-0.114
-0.1135
-0.113
-0.1105
-0.113
-0.1115
-0.108
-0.109
-0.1115
-0.111
-0.112
-0.1155
-0.114
-0.1115
-0.1125
-0.115
-0.1185
-0.121
-0.118
-0.116
-0.1185
-0.1185
-0.1145
-0.1175
-0.1195
-0.116
-0.113
-0.1145
-0.119
-0.117
-0.1185
-0.121
-0.1195
-0.116
-0.115
-0.1175
-0.123
-0.1265
-0.1215
-0.122
-0.1275
-0.1205
-0.114
-0.117
-0.12
-0.1205
-0.1175
-0.1175
-0.12
-0.117
-0.116
-0.1195
-0.1175
-0.116
-0.1155
-0.115
-0.1175
-0.1165
-0.1135
-0.1125
-0.1125
-0.1145
-0.1175
-0.116
-0.114
-0.116
-0.1195
-0.12
-0.1205
-0.1195
-0.119
-0.122
-0.1215
-0.1225
-0.1225
-0.124
-0.124
-0.1265
-0.1275
-0.1265
-0.1285
-0.1275
-0.1275
-0.1275
-0.1295
-0.1295
-0.1245
-0.124
-0.121
-0.121
-0.1255
-0.126
-0.129
-0.1265
-0.126
-0.1325
-0.133
-0.13
-0.124
-0.1225
-0.1255
-0.1255
-0.124
-0.1245
-0.124
-0.123
-0.122
-0.1245
-0.124
-0.121
-0.121
-0.119
-0.1205
-0.119
-0.1155
-0.1185
-0.121
-0.1235
-0.1235
-0.122
-0.122
-0.1195
-0.12
-0.1235
-0.1265
-0.128
-0.1285
-0.129
-0.1285
-0.1275
-0.129
-0.1275
-0.1215
-0.1195
-0.121
-0.124
-0.1225
-0.1205
-0.123
-0.123
-0.123
-0.1235
-0.1245
-0.125
-0.124
-0.126
-0.1265
-0.128
-0.1315
-0.1325
-0.132
-0.1325
-0.133
-0.131
-0.129
-0.126
-0.1265
-0.1285
-0.1285
-0.131
-0.135
-0.136
-0.1355
-0.135
-0.13
-0.1295
-0.13
-0.1255
-0.13
-0.135
-0.1335
-0.1355
-0.136
-0.1345
-0.13
-0.1315
-0.139
-0.138
-0.1325
-0.1285
-0.1285
-0.128
-0.1315
-0.134
-0.132
-0.1265
-0.126
-0.125
-0.123
-0.126
-0.1255
-0.1255
-0.1255
-0.128
-0.129
-0.127
-0.125
-0.128
-0.1315
-0.126
-0.1275
-0.1325
-0.1315
-0.1335
-0.1335
-0.13
-0.1295
-0.131
-0.131
-0.1285
-0.1285
-0.126
-0.123
-0.126
-0.131
-0.134
-0.135
-0.1335
-0.1325
-0.1305
-0.128
-0.1275
-0.128
-0.125
-0.1275
-0.1315
-0.126
-0.119
-0.1235
-0.125
-0.1215
-0.1225
-0.122
-0.1235
-0.1265
-0.129
-0.1285
-0.1305
-0.1295
-0.128
-0.1285
-0.1275
-0.1315
-0.13
-0.1285
-0.1315
-0.131
-0.1305
-0.128
-0.1265
-0.1255
-0.1235
-0.124
-0.1225
-0.12
-0.121
-0.1235
-0.122
-0.12
-0.121
-0.1205
-0.1185
-0.121
-0.1225
-0.12
-0.1195
-0.1165
-0.1175
-0.121
-0.1235
-0.126
-0.126
-0.126
-0.1255
-0.128
-0.127
-0.125
-0.1295
-0.132
-0.1325
-0.1305
-0.1275
-0.1275
-0.1295
-0.131
-0.1305
-0.1305
-0.13
-0.13
-0.132
-0.1315
-0.129
-0.131
-0.132
-0.1305
-0.131
-0.1325
-0.1345
-0.138
-0.138
-0.1325
-0.133
-0.1365
-0.1395
-0.1445
-0.1475
-0.15
-0.15
-0.1515
-0.1595
-0.165
-0.167
-0.17
-0.173
-0.1745
-0.176
-0.1775
-0.183
-0.184
-0.183
-0.181
-0.184
-0.1925
-0.19
-0.188
-0.1905
-0.1895
-0.189
-0.195
-0.2015
-0.2055
-0.2085
-0.212
-0.216
-0.2155
-0.218
-0.216
-0.218
-0.229
-0.2315
-0.2315
-0.2295
-0.2295
-0.2295
-0.228
-0.227
-0.218
-0.2125
-0.211
-0.2105
-0.2125
-0.211
-0.206
-0.195
-0.1885
-0.189
-0.1855
-0.1835
-0.188
-0.1905
-0.1855
-0.1785
-0.177
-0.182
-0.186
-0.1915
-0.1935
-0.191
-0.1955
-0.195
-0.185
-0.1775
-0.176
-0.1695
-0.1575
-0.156
-0.1515
-0.1435
-0.1395
-0.1345
-0.1345
-0.1385
-0.1405
-0.1415
-0.1435
-0.148
-0.153
-0.1545
-0.1565
-0.1625
-0.1705
-0.167
-0.1525
-0.1445
-0.141
-0.138
-0.138
-0.1355
-0.134
-0.1365
-0.1365
-0.137
-0.1355
-0.1385
-0.1425
-0.137
-0.134
-0.1305
-0.124
-0.125
-0.1325
-0.133
-0.1305
-0.1335
-0.135
-0.131
-0.131
-0.1315
-0.127
-0.1265
-0.1295
-0.131
-0.129
-0.129
-0.1265
-0.1275
-0.129
-0.126
-0.1265
-0.1295
-0.1285
-0.1285
-0.1325
-0.135
-0.1345
-0.1325
-0.1315
-0.131
-0.129
-0.129
-0.1285
-0.131
-0.1345
-0.133
-0.1325
-0.132
-0.132
-0.1315
-0.1285
-0.131
-0.1335
-0.133
-0.137
-0.1385
-0.137
-0.1375
-0.139
-0.137
-0.1375
-0.136
-0.1355
-0.137
-0.1375
-0.138
-0.141
-0.1475
-0.1515
-0.163
-0.175
-0.189
-0.2045
-0.2185
-0.223
-0.2245
-0.239
-0.242
-0.24
-0.242
-0.238
-0.2205
-0.199
-0.183
-0.1675
-0.1505
-0.1455
-0.143
-0.137
-0.133
-0.1205
-0.1165
-0.1195
-0.128
-0.137
-0.1435
-0.172
-0.2
-0.216
-0.219
-0.212
-0.2315
-0.2305
-0.203
-0.195
-0.2025
-0.219
-0.222
-0.211
-0.179
-0.151
-0.1455
-0.12
-0.0875
-0.0795
-0.0845
-0.0845
-0.087
-0.1015
-0.109
-0.1075
-0.109
-0.111
-0.114
-0.1125
-0.0925
-0.0705
-0.0575
-0.044
-0.0265
-0.0055
0.016
0.0395
0.0645
0.0855
0.0995
0.1095
0.1095
0.1005
0.09
0.076
0.064
0.054
0.0375
0.022
0.0115
0.003
-0.0065
-0.0165
-0.0265
-0.037
-0.0475
-0.0535
-0.055
-0.062
-0.069
-0.068
-0.0725
-0.0785
-0.078
-0.083
-0.0855
-0.0865
-0.09
-0.09
-0.092
-0.096
-0.098
-0.0995
-0.1025
-0.0995
-0.098
-0.1035
-0.107
-0.11
-0.111
-0.1135
-0.114
-0.1125
-0.1095
-0.109
-0.115
-0.1165
-0.12
-0.1215
-0.1175
-0.1185
-0.1205
-0.1165
-0.118
-0.124
-0.1235
-0.1225
-0.123
-0.123
-0.1225
-0.1235
-0.1275
-0.1285
-0.125
-0.1255
-0.126
-0.123
-0.1235
-0.125
-0.122
-0.1205
-0.127
-0.126
-0.124
-0.1235
-0.1185
-0.12
-0.1205
-0.122
-0.1255
-0.1245
-0.1215
-0.121
-0.1195
-0.118
-0.123
-0.1255
-0.121
-0.1175
-0.1165
-0.1185
-0.1215
-0.1175
-0.1175
-0.1155
-0.112
-0.111
-0.11
-0.114
-0.113
-0.1115
-0.11
-0.106
-0.1055
-0.103
-0.103
-0.1045
-0.1025
-0.1015
-0.103
-0.1045
-0.102
-0.1015
-0.103
-0.104
-0.101
-0.099
-0.0995
-0.0955
-0.091
-0.0895
-0.0935
-0.096
-0.096
-0.0965
-0.094
-0.096
-0.097
-0.0985
-0.1015
-0.1
-0.1005
-0.102
-0.104
-0.1035
-0.1055
-0.1085
-0.1065
-0.107
-0.107
-0.108
-0.109
-0.11
-0.1115
-0.112
-0.1165
-0.116
-0.1165
-0.118
-0.113
-0.1095
-0.109
-0.109
-0.11
-0.11
-0.1105
-0.1125
-0.1085
-0.107
-0.107
-0.1075
-0.112
-0.108
-0.1155
-0.1215
-0.112
-0.111
-0.113
-0.1175
-0.1205
-0.121
-0.1215
-0.123
-0.1225
-0.1225
-0.124
-0.1215
-0.12
-0.124
-0.1295
-0.1265
-0.1195
-0.1175
-0.121
-0.1225
-0.1195
-0.12
-0.121
-0.1255
-0.1265
-0.1225
-0.123
-0.1225
-0.1235
-0.1275
-0.128
-0.125
-0.123
-0.123
-0.1265
-0.1315
-0.1325
-0.131
-0.128
-0.1265
-0.125
-0.123
-0.128
-0.1285
-0.127
-0.1265
-0.125
-0.126
-0.1235
-0.127
-0.1315
-0.13
-0.132
-0.133
-0.137
-0.1445
-0.1415
-0.1385
-0.1395
-0.1375
-0.1345
-0.1365
-0.138
-0.137
-0.1355
-0.135
-0.135
-0.131
-0.1305
-0.133
-0.1325
-0.1325
-0.1315
-0.129
-0.129
-0.1285
-0.124
-0.122
-0.12
-0.117
-0.116
-0.111
-0.108
-0.11
-0.1095
-0.106
-0.107
-0.108
-0.103
-0.0985
-0.0945
-0.0955
-0.095
-0.0885
-0.0885
-0.0875
-0.0815
-0.0765
-0.0755
-0.0735
-0.0735
-0.0755
-0.072
-0.0655
-0.0615
-0.061
-0.055
-0.053
-0.0555
-0.0535
-0.049
-0.044
-0.045
-0.0465
-0.044
-0.0415
-0.043
-0.044
-0.043
-0.0445
-0.044
-0.046
-0.0485
-0.0485
-0.0475
-0.0475
-0.046
-0.0445
-0.0435
-0.0455
-0.0455
-0.043
-0.043
-0.0385
-0.037
-0.0385
-0.0385
-0.0395
-0.0405
-0.0445
-0.0485
-0.041
-0.0325
-0.041
-0.041
-0.037
-0.036
-0.0345
-0.0305
-0.026
-0.0345
-0.038
-0.0425
-0.05
-0.0445
-0.0375
-0.0355
-0.036
-0.0385
-0.041
-0.041
-0.0365
-0.037
-0.043
-0.0425
-0.0435
-0.047
-0.0475
-0.0455
-0.0455
-0.0465
-0.046
-0.041
-0.041
-0.048
-0.049
-0.051
-0.0535
-0.05
-0.0515
-0.0545
-0.053
-0.052
-0.05
-0.05
-0.0525
-0.0535
-0.0535
-0.0545
-0.0535
-0.0535
-0.0525
-0.0525
-0.0555
-0.055
-0.054
-0.053
-0.054
-0.0535
-0.053
-0.0545
-0.053
-0.052
-0.0495
-0.0485
-0.049
-0.0455
-0.044
-0.046
-0.052
-0.0545
-0.055
-0.052
-0.05
-0.0515
-0.0535
-0.0495
-0.047
-0.052
-0.0515
-0.054
-0.055
-0.0555
-0.058
-0.058
-0.0575
-0.056
-0.052
-0.0565
-0.0585
-0.053
-0.054
-0.056
-0.0535
-0.046
-0.0465
-0.045
-0.0425
-0.0435
-0.0405
-0.0385
-0.036
-0.0375
-0.042
-0.045
-0.0435
-0.0445
-0.0455
-0.0455
-0.0505
-0.053
-0.0485
-0.0425
-0.0435
-0.047
-0.0435
-0.043
-0.0445
-0.041
-0.046
-0.0505
-0.0415
-0.0385
-0.041
-0.042
-0.0405
-0.0415
-0.047
-0.047
-0.045
-0.046
-0.0495
-0.0525
-0.051
-0.0495
-0.051
-0.049
-0.052
-0.0555
-0.055
-0.051
-0.0495
-0.0525
-0.0505
-0.0515
-0.0545
-0.0545
-0.0515
-0.053
-0.0575
-0.0545
-0.0495
-0.0485
-0.05
-0.0465
-0.0475
-0.052
-0.0525
-0.051
-0.0485
-0.0475
-0.045
-0.0445
-0.0435
-0.0405
-0.041
-0.04
-0.035
-0.03
-0.0285
-0.034
-0.037
-0.035
-0.037
-0.04
-0.0415
-0.0385
-0.042
-0.0445
-0.039
-0.0395
-0.0375
-0.035
-0.036
-0.0385
-0.0385
-0.039
-0.039
-0.0345
-0.0355
-0.0375
-0.039
-0.042
-0.0415
-0.04
-0.0375
-0.0385
-0.042
-0.0405
-0.041
-0.036
-0.028
-0.0245
-0.0265
-0.039
-0.0395
-0.035
-0.033
-0.03
-0.0375
-0.039
-0.035
-0.032
-0.0265
-0.026
-0.0285
-0.031
-0.03
-0.029
-0.032
-0.0305
-0.031
-0.0315
-0.029
-0.0295
-0.0345
-0.037
-0.0315
-0.0335
-0.0385
-0.0355
-0.0335
-0.0335
-0.0345
-0.0355
-0.032
-0.0295
-0.0305
-0.028
-0.031
-0.035
-0.0335
-0.0325
-0.033
-0.035
-0.036
-0.0335
-0.0335
-0.0345
-0.035
-0.036
-0.034
-0.034
-0.034
-0.031
-0.0315
-0.032
-0.031
-0.0305
-0.031
-0.032
-0.0325
-0.034
-0.037
-0.0375
-0.0385
-0.039
-0.038
-0.0345
-0.0285
-0.027
-0.0265
-0.028
-0.031
-0.031
-0.0285
-0.0275
-0.024
-0.0215
-0.0245
-0.0225
-0.0175
-0.0175
-0.021
-0.0225
-0.02
-0.018
-0.0185
-0.0185
-0.018
-0.016
-0.017
-0.017
-0.0175
-0.019
-0.017
-0.0135
-0.01
-0.009
-0.0095
-0.0115
-0.0135
-0.017
-0.016
-0.013
-0.01
-0.0045
-0.007
-0.008
-0.0095
-0.0125
-0.0145
-0.0165
-0.016
-0.02
-0.02
-0.018
-0.0185
-0.0135
-0.014
-0.018
-0.018
-0.014
-0.0135
-0.015
-0.014
-0.0165
-0.0135
-0.012
-0.017
-0.019
-0.018
-0.017
-0.0185
-0.016
-0.013
-0.0095
-0.009
-0.013
-0.01
-0.0125
-0.0165
-0.015
-0.0165
-0.017
-0.0155
-0.016
-0.0185
-0.0175
-0.0165
-0.0175
-0.015
-0.0155
-0.019
-0.019
-0.0205
-0.0205
-0.019
-0.02
-0.022
-0.024
-0.0185
-0.0185
-0.027
-0.0285
-0.0275
-0.0285
-0.03
-0.029
-0.0345
-0.039
-0.0405
-0.042
-0.0425
-0.046
-0.052
-0.052
-0.047
-0.051
-0.0555
-0.058
-0.0625
-0.0685
-0.0705
-0.073
-0.0755
-0.071
-0.067
-0.0655
-0.0705
-0.0775
-0.0855
-0.0875
-0.0905
-0.099
-0.1025
-0.0955
-0.0925
-0.1005
-0.1075
-0.1155
-0.1105
-0.103
-0.1065
-0.1105
-0.1125
-0.11
-0.1025
-0.0995
-0.094
-0.091
-0.091
-0.089
-0.0855
-0.079
-0.081
-0.075
-0.0715
-0.0795
-0.0815
-0.076
-0.065
-0.059
-0.061
-0.0665
-0.067
-0.071
-0.072
-0.067
-0.0655
-0.057
-0.0525
-0.0475
-0.036
-0.0315
-0.0255
-0.0215
-0.014
-0.0055
-0.006
-0.0105
-0.01
-0.0095
-0.016
-0.0185
-0.0185
-0.025
-0.0335
-0.038
-0.0365
-0.0365
-0.036
-0.03
-0.021
-0.0135
-0.0115
-0.0105
-0.0095
-0.0125
-0.013
-0.0115
-0.0135
-0.015
-0.0125
-0.0075
-0.003
-0.004
-0.007
-0.007
-0.0085
-0.012
-0.0135
-0.0135
-0.013
-0.013
-0.0105
-0.0075
-0.01
-0.0125
-0.0135
-0.0145
-0.0165
-0.0185
-0.0155
-0.02
-0.023
-0.0205
-0.025
-0.0275
-0.0265
-0.031
-0.0335
-0.031
-0.0325
-0.036
-0.0365
-0.0335
-0.0305
-0.0305
-0.032
-0.0305
-0.0245
-0.028
-0.0345
-0.0325
-0.0285
-0.0285
-0.037
-0.0385
-0.0335
-0.035
-0.039
-0.037
-0.0285
-0.0305
-0.036
-0.033
-0.0345
-0.0375
-0.0355
-0.032
-0.0315
-0.036
-0.0425
-0.0445
-0.0495
-0.0595
-0.0695
-0.0815
-0.088
-0.101
-0.118
-0.1225
-0.1265
-0.1355
-0.14
-0.14
-0.1385
-0.132
-0.12
-0.1075
-0.0905
-0.0725
-0.058
-0.0555
-0.0555
-0.053
-0.046
-0.031
-0.026
-0.0255
-0.0315
-0.039
-0.0495
-0.0845
-0.1125
-0.13
-0.135
-0.1385
-0.1575
-0.142
-0.115
-0.1075
-0.1095
-0.127
-0.144
-0.138
-0.108
-0.082
-0.069
-0.0535
-0.0365
-0.0345
-0.04
-0.0465
-0.055
-0.0655
-0.073
-0.081
-0.0925
-0.0865
-0.0785
-0.076
-0.0555
-0.032
-0.0135
0.008
0.023
0.0395
0.0645
0.083
0.105
0.1365
0.159
0.162
0.166
0.168
0.1655
0.158
0.1485
0.138
0.1165
0.101
0.0905
0.078
0.0745
0.068
0.054
0.042
0.037
0.036
0.031
0.0205
0.0165
0.017
0.0145
0.0135
0.0135
0.0155
0.0115
0.0075
0.009
0.002
-0.0025
-0.008
-0.0155
-0.019
-0.024
-0.024
-0.025
-0.028
-0.0285
-0.029
-0.035
-0.039
-0.0345
-0.033
-0.033
-0.04
-0.0465
-0.0385
-0.0375
-0.0355
-0.039
-0.049
-0.045
-0.042
-0.043
-0.0455
-0.047
-0.0445
-0.043
-0.041
-0.0435
-0.049
-0.0475
-0.041
-0.0395
-0.0415
-0.0375
-0.0365
-0.037
-0.0415
-0.047
-0.0415
-0.0435
-0.049
-0.047
-0.045
-0.0435
-0.051
-0.056
-0.0495
-0.047
-0.0445
-0.0405
-0.039
-0.0415
-0.0435
-0.0425
-0.0405
-0.0365
-0.036
-0.035
-0.0345
-0.032
-0.027
-0.0335
-0.0365
-0.033
-0.0325
-0.0325
-0.038
-0.0355
-0.0325
-0.0325
-0.03
-0.03
-0.028
-0.0305
-0.0335
-0.032
-0.03
-0.0285
-0.0285
-0.027
-0.025
-0.0265
-0.0285
-0.026
-0.0245
-0.0305
-0.0315
-0.0275
-0.026
-0.026
-0.028
-0.0285
-0.031
-0.0325
-0.033
-0.0295
-0.028
-0.0285
-0.0255
-0.0265
-0.0275
-0.0315
-0.031
-0.0305
-0.0345
-0.036
-0.044
-0.047
-0.043
-0.0425
-0.043
-0.044
-0.04
-0.04
-0.0445
-0.041
-0.041
-0.0405
-0.0405
-0.0415
-0.041
-0.0435
-0.0475
-0.049
-0.0525
-0.0525
-0.0505
-0.0555
-0.056
-0.055
-0.0545
-0.055
-0.055
-0.0545
-0.0575
-0.058
-0.0535
-0.051
-0.059
-0.0605
-0.053
-0.053
-0.053
-0.0515
-0.0525
-0.0545
-0.0565
-0.0495
-0.0485
-0.0575
-0.06
-0.062
-0.0615
-0.0605
-0.0625
-0.0595
-0.0595
-0.0625
-0.06
-0.0635
-0.0745
-0.0765
-0.0715
-0.072
-0.081
-0.0815
-0.078
-0.079
-0.0825
-0.0865
-0.087
-0.0895
-0.095
-0.0955
-0.098
-0.1015
-0.102
-0.1
-0.1
-0.1055
-0.1055
-0.1095
-0.1165
-0.1175
-0.116
-0.116
-0.116
-0.1145
-0.12
-0.1225
-0.121
-0.123
-0.1255
-0.1265
-0.1245
-0.127
-0.129
-0.127
-0.1285
-0.125
-0.1225
-0.126
-0.1235
-0.1195
-0.12
-0.1165
-0.1155
-0.119
-0.119
-0.1175
-0.112
-0.107
-0.107
-0.1095
-0.108
-0.103
-0.1005
-0.097
-0.094
-0.095
-0.094
-0.0935
-0.0935
-0.0915
-0.089
-0.0855
-0.085
-0.088
-0.0925
-0.0905
-0.086
-0.0835
-0.081
-0.082
-0.081
-0.0785
-0.0765
-0.075
-0.0725
-0.0645
-0.0595
-0.062
-0.06
-0.0555
-0.0525
-0.049
-0.048
-0.0495
-0.048
-0.044
-0.0425
-0.0385
-0.0375
-0.0355
-0.03
-0.0275
-0.0285
-0.032
-0.032
-0.0325
-0.0325
-0.0265
-0.0235
-0.029
-0.0315
-0.0275
-0.0265
-0.026
-0.026
-0.027
-0.026
-0.023
-0.0225
-0.0275
-0.03
-0.029
-0.0295
-0.0315
-0.031
-0.0315
-0.033
-0.031
-0.033
-0.0375
-0.0405
-0.0455
-0.046
-0.045
-0.047
-0.0475
-0.0465
-0.045
-0.04
-0.039
-0.0435
-0.045
-0.043
-0.0445
-0.0445
-0.043
-0.0435
-0.038
-0.043
-0.053
-0.051
-0.048
-0.045
-0.045
-0.046
-0.0445
-0.044
-0.042
-0.042
-0.044
-0.046
-0.047
-0.0435
-0.044
-0.0445
-0.045
-0.048
-0.0485
-0.049
-0.047
-0.0465
-0.0485
-0.051
-0.05
-0.0495
-0.0535
-0.0515
-0.0485
-0.05
-0.0475
-0.045
-0.044
-0.045
-0.0485
-0.049
-0.0445
-0.039
-0.04
-0.04
-0.043
-0.0505
-0.047
-0.0445
-0.044
-0.039
-0.0445
-0.047
-0.045
-0.0455
-0.044
-0.0485
-0.0525
-0.0485
-0.048
-0.0465
-0.0445
-0.046
-0.0445
-0.041
-0.0405
-0.0395
-0.039
-0.0375
-0.0365
-0.038
-0.0405
-0.039
-0.0385
-0.043
-0.0425
-0.047
-0.0495
-0.046
-0.0435
-0.0415
-0.042
-0.042
-0.0445
-0.045
-0.045
-0.044
-0.044
-0.0435
-0.048
-0.054
-0.053
-0.0505
-0.0455
-0.048
-0.047
-0.044
-0.0455
-0.0425
-0.043
-0.0465
-0.0465
-0.044
-0.0445
-0.0425
-0.044
-0.0445
-0.0405
-0.0405
-0.037
-0.04
-0.045
-0.0425
-0.042
-0.045
-0.046
-0.0445
-0.045
-0.043
-0.045
-0.0495
-0.053
-0.0515
-0.046
-0.0495
-0.048
-0.0445
-0.044
-0.044
-0.0455
-0.0455
-0.044
-0.04
-0.044
-0.0465
-0.0415
-0.0395
-0.036
-0.0375
-0.0425
-0.0435
-0.04
-0.0355
-0.0345
-0.0335
-0.0345
-0.035
-0.032
-0.031
-0.031
-0.03
-0.0295
-0.031
-0.031
-0.0295
-0.028
-0.029
-0.0335
-0.0355
-0.038
-0.041
-0.0415
-0.037
-0.037
-0.038
-0.0405
-0.0445
-0.0455
-0.0385
-0.035
-0.0385
-0.033
-0.0365
-0.0405
-0.0395
-0.041
-0.042
-0.046
-0.045
-0.044
-0.0465
-0.0485
-0.0485
-0.051
-0.0525
-0.048
-0.0475
-0.0495
-0.0525
-0.053
-0.0515
-0.052
-0.0535
-0.0525
-0.05
-0.0485
-0.0515
-0.058
-0.056
-0.0505
-0.0475
-0.045
-0.044
-0.044
-0.0445
-0.043
-0.0405
-0.046
-0.0515
-0.0485
-0.0475
-0.0485
-0.046
-0.0435
-0.045
-0.0465
-0.046
-0.045
-0.044
-0.0465
-0.0495
-0.047
-0.0435
-0.041
-0.0415
-0.042
-0.04
-0.0415
-0.0385
-0.0375
-0.038
-0.036
-0.038
-0.037
-0.036
-0.038
-0.0395
-0.039
-0.04
-0.042
-0.041
-0.0395
-0.0375
-0.0375
-0.036
-0.038
-0.0405
-0.039
-0.044
-0.042
-0.0385
-0.037
-0.034
-0.0355
-0.036
-0.034
-0.0345
-0.034
-0.036
-0.0385
-0.035
-0.0345
-0.0325
-0.031
-0.032
-0.0325
-0.0315
-0.029
-0.0265
-0.026
-0.029
-0.029
-0.031
-0.032
-0.033
-0.035
-0.0345
-0.0335
-0.032
-0.0355
-0.0405
-0.0415
-0.0405
-0.042
-0.041
-0.0425
-0.045
-0.042
-0.04
-0.0395
-0.041
-0.041
-0.044
-0.044
-0.044
-0.043
-0.0405
-0.0435
-0.0435
-0.044
-0.0435
-0.0425
-0.0445
-0.043
-0.0435
-0.0445
-0.045
-0.0475
-0.0465
-0.0475
-0.0535
-0.052
-0.0485
-0.0525
-0.054
-0.051
-0.0525
-0.0615
-0.069
-0.0695
-0.07
-0.074
-0.073
-0.0745
-0.0755
-0.077
-0.081
-0.079
-0.081
-0.0855
-0.087
-0.0825
-0.081
-0.0845
-0.086
-0.0865
-0.0855
-0.09
-0.096
-0.0935
-0.0945
-0.104
-0.108
-0.108
-0.1105
-0.1165
-0.1235
-0.125
-0.125
-0.121
-0.123
-0.132
-0.1355
-0.1315
-0.1215
-0.1175
-0.124
-0.126
-0.124
-0.125
-0.1165
-0.1085
-0.1125
-0.1155
-0.1125
-0.113
-0.1135
-0.1125
-0.1055
-0.1025
-0.107
-0.1055
-0.111
-0.117
-0.119
-0.1215
-0.1175
-0.105
-0.098
-0.101
-0.0975
-0.091
-0.0905
-0.087
-0.079
-0.073
-0.0665
-0.063
-0.0645
-0.0615
-0.06
-0.0705
-0.0775
-0.0755
-0.0765
-0.0795
-0.081
-0.08
-0.0785
-0.0745
-0.0685
-0.0665
-0.062
-0.058
-0.059
-0.063
-0.062
-0.0575
-0.0555
-0.056
-0.0605
-0.0605
-0.057
-0.0565
-0.0555
-0.0565
-0.059
-0.0605
-0.0615
-0.062
-0.0625
-0.0615
-0.058
-0.061
-0.0645
-0.0635
-0.0625
-0.0635
-0.0625
-0.061
-0.0615
-0.061
-0.063
-0.0625
-0.0615
-0.0615
-0.0605
-0.0595
-0.0625
-0.0635
-0.06
-0.062
-0.063
-0.0635
-0.0655
-0.0645
-0.0645
-0.067
-0.0685
-0.0715
-0.0735
-0.0705
-0.071
-0.0715
-0.069
-0.069
-0.067
-0.0715
-0.0745
-0.071
-0.0695
-0.073
-0.0755
-0.073
-0.072
-0.0725
-0.0725
-0.073
-0.0745
-0.0725
-0.073
-0.073
-0.081
-0.089
-0.093
-0.1085
-0.1245
-0.1385
-0.147
-0.1495
-0.16
-0.1665
-0.171
-0.1695
-0.166
-0.159
-0.1415
-0.127
-0.115
-0.096
-0.085
-0.0865
-0.0855
-0.083
-0.069
-0.0585
-0.0635
-0.069
-0.074
-0.079
-0.102
-0.1405
-0.165
-0.18
-0.179
-0.19
-0.1995
-0.173
-0.158
-0.1585
-0.169
-0.184
-0.1855
-0.1625
-0.126
-0.1095
-0.0905
-0.0605
-0.0495
-0.058
-0.0655
-0.062
-0.064
-0.075
-0.0795
-0.0845
-0.084
-0.0785
-0.0745
-0.061
-0.042
-0.024
-0.0055
0.0115
0.028
0.0515
0.0685
0.0825
0.107
0.125
0.132
0.136
0.1335
0.128
0.1205
0.11
0.096
0.081
0.0715
0.0605
0.049
0.0425
0.0335
0.0225
0.0115
0.003
-0.0025
-0.0055
-0.0105
-0.0155
-0.02
-0.025
-0.026
-0.0255
-0.0255
-0.026
-0.0265
-0.029
-0.033
-0.0405
-0.0465
-0.0495
-0.054
-0.0555
-0.057
-0.059
-0.0605
-0.061
-0.0605
-0.061
-0.065
-0.0685
-0.068
-0.07
-0.0745
-0.0755
-0.074
-0.073
-0.073
-0.073
-0.076
-0.0775
-0.0775
-0.081
-0.081
-0.0805
-0.0815
-0.087
-0.088
-0.087
-0.0865
-0.0885
-0.089
-0.088
-0.0945
-0.0925
-0.0925
-0.0955
-0.0965
-0.0965
-0.093
-0.094
-0.099
-0.0985
-0.0945
-0.096
-0.0955
-0.094
-0.0985
-0.104
-0.103
-0.102
-0.102
-0.099
-0.098
-0.0985
-0.097
-0.0965
-0.095
-0.093
-0.0905
-0.0895
-0.09
-0.093
-0.094
-0.0895
-0.088
-0.0875
-0.0875
-0.089
-0.087
-0.089
-0.0905
-0.087
-0.088
-0.0905
-0.0905
-0.085
-0.084
-0.0835
-0.082
-0.083
-0.0825
-0.085
-0.086
-0.0875
-0.0865
-0.0845
-0.088
-0.0915
-0.093
-0.094
-0.092
-0.091
-0.093
-0.0955
-0.097
-0.098
-0.099
-0.0985
-0.0995
-0.1015
-0.104
-0.1055
-0.1045
-0.108
-0.111
-0.107
-0.106
-0.1065
-0.108
-0.109
-0.104
-0.1015
-0.1035
-0.1035
-0.1015
-0.1025
-0.1025
-0.1005
-0.102
-0.1045
-0.106
-0.102
-0.0995
-0.101
-0.0995
-0.101
-0.099
-0.0995
-0.103
-0.1
-0.099
-0.099
-0.1005
-0.1045
-0.109
-0.1105
-0.108
-0.106
-0.1075
-0.1085
-0.1085
-0.1075
-0.1075
-0.108
-0.107
-0.107
-0.109
-0.1115
-0.1085
-0.108
-0.1105
-0.117
-0.122
-0.118
-0.1145
-0.1115
-0.1135
-0.1135
-0.113
-0.111
-0.1105
-0.12
-0.1195
-0.1175
-0.1185
-0.1175
-0.119
-0.1205
-0.1215
-0.1225
-0.1265
-0.129
-0.1275
-0.129
-0.133
-0.133
-0.134
-0.136
-0.136
-0.1385
-0.138
-0.139
-0.1435
-0.141
-0.136
-0.138
-0.1405
-0.139
-0.138
-0.1385
-0.1395
-0.143
-0.143
-0.143
-0.1485
-0.1495
-0.147
-0.149
-0.1485
-0.1485
-0.1475
-0.1485
-0.149
-0.1475
-0.147
-0.1465
-0.147
-0.1445
-0.1415
-0.1415
-0.1425
-0.1385
-0.134
-0.1325
-0.1295
-0.127
-0.1235
-0.121
-0.115
-0.112
-0.1105
-0.1095
-0.1075
-0.103
-0.1045
-0.101
-0.0955
-0.0985
-0.098
-0.098
-0.0965
-0.0935
-0.0925
-0.0905
-0.0885
-0.088
-0.0885
-0.0885
-0.087
-0.0845
-0.083
-0.079
-0.0755
-0.076
-0.0755
-0.081
-0.087
-0.083
-0.0805
-0.0815
-0.0785
-0.076
-0.077
-0.079
-0.077
-0.078
-0.079
-0.08
-0.0815
-0.0785
-0.077
-0.077
-0.0725
-0.0725
-0.0725
-0.073
-0.079
-0.079
-0.0745
-0.0745
-0.076
-0.078
-0.079
-0.0775
-0.078
-0.081
-0.083
-0.0875
-0.0885
-0.089
-0.0915
-0.09
-0.088
-0.0875
-0.087
-0.088
-0.0875
-0.0875
-0.0865
-0.085
-0.0875
-0.088
-0.086
-0.086
-0.0875
-0.088
-0.0925
-0.0945
-0.0935
-0.0965
-0.095
-0.092
-0.0935
-0.0945
-0.092
-0.0925
-0.0945
-0.0955
-0.1005
-0.1055
-0.1035
-0.0995
-0.1
-0.0985
-0.0975
-0.099
-0.1045
-0.1065
-0.1045
-0.101
-0.099
-0.1005
-0.099
-0.1
-0.101
-0.104
-0.105
-0.1055
-0.1055
-0.1065
-0.107
-0.1025
-0.105
-0.107
-0.1085
-0.1095
-0.1045
-0.1005
-0.1
-0.1005
-0.1005
-0.102
-0.102
-0.105
-0.105
-0.103
-0.1065
-0.1095
-0.11
-0.1085
-0.111
-0.1125
-0.1115
-0.1125
-0.112
-0.113
-0.1125
-0.112
-0.1105
-0.107
-0.1065
-0.1065
-0.106
-0.105
-0.104
-0.1045
-0.104
-0.102
-0.1015
-0.1025
-0.101
-0.099
-0.1005
-0.1025
-0.104
-0.1035
-0.099
-0.099
-0.1005
-0.102
-0.103
-0.0975
-0.0985
-0.0985
-0.0975
-0.1035
-0.106
-0.105
-0.106
-0.106
-0.1055
-0.106
-0.1055
-0.105
-0.1025
-0.1015
-0.1005
-0.1005
-0.1005
-0.0995
-0.0995
-0.097
-0.095
-0.096
-0.1005
-0.1005
-0.098
-0.1005
-0.095
-0.092
-0.093
-0.0925
-0.0915
-0.0895
-0.096
-0.099
-0.096
-0.095
-0.0975
-0.0985
-0.096
-0.098
-0.1
-0.102
-0.1045
-0.104
-0.1075
-0.108
-0.106
-0.1075
-0.1065
-0.1065
-0.106
-0.108
-0.1085
-0.1055
-0.105
-0.1035
-0.102
-0.1015
-0.099
-0.0985
-0.092
-0.09
-0.0975
-0.1045
-0.112
-0.109
-0.105
-0.107
-0.106
-0.106
-0.107
-0.108
-0.108
-0.106
-0.1055
-0.106
-0.106
-0.102
-0.0995
-0.1015
-0.099
-0.0975
-0.097
-0.0985
-0.098
-0.095
-0.096
-0.098
-0.101
-0.1005
-0.099
-0.1005
-0.1
-0.098
-0.099
-0.098
-0.097
-0.0985
-0.0995
-0.097
-0.096
-0.097
-0.097
-0.097
-0.091
-0.093
-0.099
-0.1015
-0.1015
-0.095
-0.0925
-0.092
-0.0935
-0.096
-0.094
-0.0915
-0.0905
-0.091
-0.0945
-0.096
-0.0955
-0.096
-0.0935
-0.09
-0.089
-0.0885
-0.088
-0.0915
-0.0895
-0.093
-0.101
-0.1005
-0.099
-0.0955
-0.096
-0.1
-0.097
-0.095
-0.0985
-0.102
-0.0995
-0.0975
-0.0985
-0.093
-0.095
-0.098
-0.098
-0.098
-0.0925
-0.0935
-0.096
-0.096
-0.1
-0.099
-0.0985
-0.1005
-0.1005
-0.0985
-0.0995
-0.1015
-0.0975
-0.0955
-0.0955
-0.097
-0.096
-0.093
-0.093
-0.1015
-0.1045
-0.1
-0.105
-0.1075
-0.1065
-0.1045
-0.1025
-0.1045
-0.1055
-0.108
-0.1085
-0.1085
-0.11
-0.114
-0.115
-0.1115
-0.1105
-0.1065
-0.1045
-0.103
-0.099
-0.102
-0.104
-0.1035
-0.103
-0.1005
-0.0965
-0.094
-0.1
-0.104
-0.105
-0.11
-0.1085
-0.11
-0.116
-0.118
-0.12
-0.118
-0.117
-0.1175
-0.1155
-0.117
-0.1135
-0.1115
-0.113
-0.112
-0.117
-0.12
-0.1165
-0.115
-0.118
-0.1195
-0.12
-0.12
-0.1195
-0.1215
-0.122
-0.1195
-0.1155
-0.1145
-0.1145
-0.1105
-0.109
-0.109
-0.1155
-0.12
-0.1165
-0.114
-0.1135
-0.115
-0.117
-0.117
-0.121
-0.1245
-0.127
-0.135
-0.1375
-0.137
-0.1395
-0.141
-0.141
-0.141
-0.1425
-0.1435
-0.147
-0.1525
-0.154
-0.156
-0.159
-0.1585
-0.1565
-0.156
-0.1585
-0.16
-0.1625
-0.167
-0.168
-0.173
-0.1795
-0.181
-0.183
-0.1865
-0.1895
-0.189
-0.189
-0.189
-0.1935
-0.1975
-0.1985
-0.1965
-0.194
-0.1875
-0.1845
-0.1845
-0.176
-0.1745
-0.172
-0.167
-0.1685
-0.168
-0.1675
-0.168
-0.1615
-0.1555
-0.153
-0.143
-0.1405
-0.142
-0.144
-0.153
-0.155
-0.155
-0.157
-0.154
-0.1495
-0.149
-0.144
-0.1335
-0.129
-0.129
-0.1235
-0.1135
-0.106
-0.1005
-0.0995
-0.1
-0.095
-0.096
-0.1025
-0.1055
-0.109
-0.1135
-0.1185
-0.1225
-0.116
-0.1105
-0.1045
-0.0975
-0.091
-0.0875
-0.087
-0.083
-0.083
-0.089
-0.089
-0.0825
-0.081
-0.082
-0.0815
-0.0835
-0.0875
-0.0865
-0.084
-0.0835
-0.0835
-0.0855
-0.085
-0.0855
-0.0885
-0.0895
-0.095
-0.095
-0.0915
-0.091
-0.0895
-0.0925
-0.0895
-0.088
-0.0905
-0.091
-0.0895
-0.088
-0.091
-0.09
-0.093
-0.092
-0.091
-0.094
-0.0915
-0.0925
-0.092
-0.093
-0.094
-0.0955
-0.0975
-0.0955
-0.096
-0.097
-0.1015
-0.1025
-0.102
-0.102
-0.099
-0.1015
-0.1025
-0.098
-0.0925
-0.091
-0.0915
-0.0905
-0.091
-0.091
-0.0925
-0.092
-0.091
-0.0945
-0.0965
-0.098
-0.102
-0.112
-0.125
-0.141
-0.1565
-0.171
-0.18
-0.1825
-0.195
-0.2
-0.197
-0.2015
-0.2015
-0.186
-0.168
-0.154
-0.1385
-0.119
-0.107
-0.1075
-0.1035
-0.1045
-0.097
-0.0855
-0.0895
-0.0935
-0.1
-0.1125
-0.141
-0.177
-0.193
-0.203
-0.201
-0.207
-0.22
-0.196
-0.179
-0.1785
-0.191
-0.203
-0.2025
-0.184
-0.145
-0.1315
-0.1135
-0.0815
-0.0705
-0.074
-0.084
-0.0815
-0.0845
-0.0975
-0.101
-0.1
-0.1
-0.1
-0.101
-0.088
-0.0675
-0.0535
-0.039
-0.0275
-0.0095
0.0115
0.031
0.0535
0.0755
0.0905
0.0985
0.102
0.099
0.092
0.0805
0.0665
0.052
0.04
0.0255
0.012
0.004
-0.0035
-0.012
-0.0215
-0.0295
-0.037
-0.044
-0.0505
-0.058
-0.0625
-0.066
-0.07
-0.069
-0.073
-0.079
-0.0815
-0.0875
-0.0935
-0.098
-0.098
-0.102
-0.1085
-0.1095
-0.1135
-0.117
-0.1175
-0.1165
-0.1165
-0.118
-0.12
-0.119
-0.1205
-0.1215
-0.119
-0.1195
-0.1195
-0.1175
-0.116
-0.117
-0.1175
-0.1175
-0.122
-0.1205
-0.119
-0.1225
-0.1195
-0.119
-0.121
-0.123
-0.124
-0.125
-0.124
-0.122
-0.1235
-0.125
-0.126
-0.128
-0.1285
-0.1295
-0.1275
-0.125
-0.128
-0.1315
-0.135
-0.1315
-0.1265
-0.124
-0.1205
-0.1215
-0.1265
-0.1305
-0.1325
-0.134
-0.132
-0.129
-0.124
-0.1225
-0.124
-0.1245
-0.1265
-0.126
-0.1255
-0.128
-0.133
-0.135
-0.131
-0.1275
-0.1265
-0.1255
-0.1265
-0.128
-0.127
-0.1275
-0.125
-0.126
-0.1275
-0.1215
-0.1215
-0.123
-0.122
-0.1225
-0.121
-0.1205
-0.1195
-0.118
-0.1215
-0.124
-0.122
-0.123
-0.124
-0.122
-0.1205
-0.1175
-0.119
-0.1215
-0.1245
-0.1285
-0.129
-0.134
-0.1375
-0.1355
-0.137
-0.138
-0.138
-0.142
-0.145
-0.1475
-0.1455
-0.146
-0.147
-0.1465
-0.147
-0.1455
-0.1475
-0.1495
-0.1485
-0.1485
-0.1485
-0.144
-0.141
-0.144
-0.1445
-0.148
-0.1575
-0.156
-0.1535
-0.156
-0.1555
-0.1565
-0.1595
-0.16
-0.1545
-0.1555
-0.1565
-0.154
-0.158
-0.1605
-0.162
-0.1635
-0.161
-0.1595
-0.1585
-0.157
-0.155
-0.1555
-0.155
-0.1535
-0.1565
-0.1565
-0.156
-0.155
-0.156
-0.156
-0.154
-0.154
-0.1555
-0.1575
-0.159
-0.163
-0.1575
-0.1515
-0.151
-0.1515
-0.152
-0.1515
-0.151
-0.152
-0.151
-0.151
-0.152
-0.1495
-0.152
-0.1535
-0.1525
-0.1545
-0.1565
-0.157
-0.158
-0.1585
-0.1585
-0.162
-0.163
-0.163
-0.167
-0.168
-0.1675
-0.17
-0.17
-0.167
-0.171
-0.174
-0.1745
-0.178
-0.179
-0.1775
-0.1775
-0.176
-0.171
-0.1685
-0.171
-0.173
-0.1745
-0.176
-0.1765
-0.1785
-0.1745
-0.1735
-0.176
-0.1755
-0.1755
-0.1755
-0.174
-0.1715
-0.1695
-0.1665
-0.1645
-0.164
-0.1635
-0.1595
-0.155
-0.156
-0.1595
-0.1585
-0.1545
-0.153
-0.1495
-0.1515
-0.151
-0.145
-0.1435
-0.145
-0.146
-0.144
-0.1425
-0.14
-0.143
-0.1395
-0.134
-0.1305
-0.125
-0.124
-0.127
-0.123
-0.119
-0.1195
-0.115
-0.115
-0.111
-0.108
-0.108
-0.1095
-0.1135
-0.111
-0.112
-0.1145
-0.1145
-0.111
-0.109
-0.1085
-0.1075
-0.107
-0.106
-0.104
-0.1055
-0.105
-0.103
-0.109
-0.1075
-0.102
-0.1005
-0.1025
-0.1065
-0.106
-0.107
-0.107
-0.109
-0.1085
-0.107
-0.1075
-0.1065
-0.106
-0.1095
-0.112
-0.1105
-0.1125
-0.114
-0.1105
-0.109
-0.112
-0.113
-0.1105
-0.1095
-0.11
-0.1115
-0.113
-0.1155
-0.1155
-0.1145
-0.114
-0.116
-0.117
-0.1155
-0.118
-0.117
-0.114
-0.1155
-0.115
-0.114
-0.1155
-0.1145
-0.1125
-0.1105
-0.1095
-0.106
-0.102
-0.1055
-0.1085
-0.1055
-0.1045
-0.107
-0.1075
-0.104
-0.1035
-0.1065
-0.107
-0.107
-0.106
-0.106
-0.1065
-0.106
-0.105
-0.1025
-0.1
-0.0985
-0.0965
-0.0945
-0.095
-0.0955
-0.096
-0.0985
-0.099
-0.0965
-0.094
-0.092
-0.0925
-0.095
-0.0965
-0.0925
-0.0885
-0.089
-0.0925
-0.0905
-0.087
-0.084
-0.08
-0.079
-0.0765
-0.0795
-0.0825
-0.082
-0.08
-0.078
-0.074
-0.073
-0.0765
-0.0765
-0.0745
-0.074
-0.073
-0.0735
-0.0785
-0.08
-0.0795
-0.082
-0.0805
-0.082
-0.0825
-0.081
-0.0835
-0.0855
-0.0925
-0.088
-0.0855
-0.0925
-0.0915
-0.0925
-0.087
-0.086
-0.0905
-0.0915
-0.0915
-0.091
-0.0885
-0.089
-0.0905
-0.0905
-0.092
-0.0885
-0.0845
-0.0855
-0.0905
-0.0905
-0.089
-0.0895
-0.092
-0.0965
-0.096
-0.098
-0.0995
-0.1005
-0.103
-0.1035
-0.1045
-0.099
-0.0985
-0.102
-0.1025
-0.103
-0.099
-0.0955
-0.092
-0.09
-0.0955
-0.0975
-0.0955
-0.094
-0.093
-0.091
-0.0895
-0.0875
-0.0855
-0.087
-0.0855
-0.0815
-0.0795
-0.076
-0.0745
-0.073
-0.07
-0.067
-0.065
-0.0615
-0.0575
-0.054
-0.053
-0.056
-0.055
-0.0545
-0.0545
-0.0545
-0.0545
-0.053
-0.0525
-0.0515
-0.0505
-0.052
-0.0525
-0.0535
-0.0545
-0.0545
-0.0555
-0.054
-0.0535
-0.0535
-0.0525
-0.0535
-0.0525
-0.049
-0.05
-0.054
-0.055
-0.053
-0.0535
-0.054
-0.05
-0.048
-0.0495
-0.0545
-0.0535
-0.048
-0.047
-0.0485
-0.0485
-0.0485
-0.0495
-0.0515
-0.0525
-0.0505
-0.0505
-0.0505
-0.0475
-0.046
-0.048
-0.05
-0.0515
-0.0545
-0.0555
-0.055
-0.055
-0.055
-0.055
-0.056
-0.058
-0.0575
-0.0545
-0.052
-0.0535
-0.058
-0.059
-0.0575
-0.057
-0.058
-0.0585
-0.0595
-0.06
-0.0625
-0.0645
-0.062
-0.0615
-0.0625
-0.061
-0.06
-0.06
-0.058
-0.0595
-0.0645
-0.0655
-0.069
-0.074
-0.077
-0.0775
-0.0735
-0.0695
-0.0685
-0.0695
-0.068
-0.0675
-0.0685
-0.0705
-0.071
-0.0715
-0.072
-0.0705
-0.0695
-0.0665
-0.067
-0.0715
-0.0755
-0.076
-0.0735
-0.074
-0.075
-0.0745
-0.072
-0.0715
-0.072
-0.07
-0.07
-0.071
-0.0695
-0.0675
-0.0675
-0.0675
-0.07
-0.0715
-0.0725
-0.075
-0.0735
-0.07
-0.0725
-0.0735
-0.073
-0.0725
-0.072
-0.0695
-0.066
-0.068
-0.0715
-0.0675
-0.0655
-0.0685
-0.068
-0.0685
-0.067
-0.068
-0.0735
-0.0745
-0.07
-0.07
-0.0675
-0.065
-0.066
-0.0645
-0.065
-0.067
-0.064
-0.062
-0.0655
-0.068
-0.0655
-0.063
-0.0655
-0.0685
-0.069
-0.069
-0.069
-0.068
-0.0685
-0.0675
-0.064
-0.065
-0.068
-0.0715
-0.072
-0.0685
-0.067
-0.0685
-0.066
-0.0665
-0.0715
-0.07
-0.0655
-0.0615
-0.0605
-0.0605
-0.0595
-0.059
-0.062
-0.067
-0.069
-0.07
-0.0725
-0.0715
-0.0695
-0.0695
-0.07
-0.075
-0.0785
-0.08
-0.086
-0.0905
-0.092
-0.0935
-0.094
-0.095
-0.096
-0.097
-0.1
-0.105
-0.1115
-0.1135
-0.1105
-0.1115
-0.1125
-0.1095
-0.1095
-0.112
-0.1145
-0.1135
-0.1115
-0.114
-0.118
-0.1195
-0.1195
-0.1245
-0.128
-0.129
-0.1325
-0.1365
-0.136
-0.1315
-0.1295
-0.1295
-0.13
-0.128
-0.1235
-0.1185
-0.115
-0.1135
-0.1085
-0.1065
-0.105
-0.102
-0.101
-0.099
-0.0995
-0.0985
-0.0975
-0.093
-0.0835
-0.081
-0.0865
-0.0965
-0.102
-0.103
-0.1025
-0.1015
-0.099
-0.0915
-0.0915
-0.09
-0.0775
-0.0725
-0.068
-0.0635
-0.0625
-0.058
-0.056
-0.0555
-0.0545
-0.056
-0.0615
-0.0675
-0.0715
-0.074
-0.0775
-0.0815
-0.084
-0.083
-0.0775
-0.075
-0.0705
-0.065
-0.0655
-0.068
-0.0695
-0.0725
-0.0715
-0.0685
-0.069
-0.067
-0.0625
-0.0565
-0.0585
-0.0645
-0.067
-0.068
-0.068
-0.065
-0.065
-0.071
-0.071
-0.073
-0.074
-0.0765
-0.08
-0.077
-0.077
-0.079
-0.081
-0.0795
-0.079
-0.0755
-0.0745
-0.08
-0.0795
-0.079
-0.0755
-0.0745
-0.077
-0.078
-0.0775
-0.0765
-0.0825
-0.0865
-0.08
-0.078
-0.0845
-0.091
-0.093
-0.0905
-0.087
-0.0875
-0.0895
-0.085
-0.084
-0.0845
-0.0845
-0.0865
-0.0875
-0.088
-0.085
-0.0825
-0.081
-0.08
-0.0785
-0.077
-0.0795
-0.08
-0.084
-0.09
-0.0925
-0.0995
-0.112
-0.1215
-0.13
-0.145
-0.161
-0.1655
-0.1755
-0.191
-0.1915
-0.193
-0.19
-0.1825
-0.1695
-0.15
-0.1325
-0.119
-0.107
-0.0995
-0.1005
-0.101
-0.0965
-0.0815
-0.076
-0.083
-0.091
-0.1015
-0.1055
-0.1315
-0.166
-0.183
-0.189
-0.1845
-0.201
-0.199
-0.167
-0.1545
-0.1645
-0.183
-0.1905
-0.1905
-0.1645
-0.1275
-0.1205
-0.101
-0.0695
-0.062
-0.067
-0.068
-0.067
-0.078
-0.0905
-0.092
-0.0935
-0.0925
-0.092
-0.094
-0.082
-0.06
-0.042
-0.028
-0.0105
0.011
0.0295
0.047
0.0665
0.0915
0.108
0.114
0.116
0.113
0.105
0.093
0.0785
0.062
0.048
0.036
0.0235
0.0115
0.0015
-0.0045
-0.014
-0.026
-0.0315
-0.036
-0.038
-0.041
-0.049
-0.051
-0.0515
-0.051
-0.052
-0.055
-0.059
-0.0615
-0.064
-0.0675
-0.073
-0.0775
-0.081
-0.0815
-0.0815
-0.0845
-0.086
-0.087
-0.0895
-0.09
-0.0895
-0.087
-0.088
-0.0925
-0.0915
-0.09
-0.0895
-0.0885
-0.088
-0.0875
-0.0885
-0.0895
-0.0915
-0.092
-0.09
-0.0905
-0.092
-0.092
-0.096
-0.096
-0.0945
-0.0955
-0.094
-0.0955
-0.0985
-0.095
-0.091
-0.0915
-0.087
-0.0855
-0.0855
-0.084
-0.087
-0.0905
-0.096
-0.097
-0.096
-0.099
-0.099
-0.099
-0.097
-0.097
-0.0975
-0.092
-0.0885
-0.088
-0.09
-0.09
-0.088
-0.088
-0.088
-0.09
-0.0895
-0.0885
-0.0885
-0.0885
-0.089
-0.089
-0.0895
-0.0875
-0.085
-0.085
-0.085
-0.083
-0.0795
-0.079
-0.0795
-0.0775
-0.079
-0.077
-0.0785
-0.0775
-0.074
-0.077
-0.0765
-0.0765
-0.077
-0.0815
-0.0885
-0.085
-0.0835
-0.0845
-0.0825
-0.0805
-0.08
-0.0795
-0.0775
-0.0755
-0.076
-0.078
-0.08
-0.0815
-0.0815
-0.082
-0.082
-0.0795
-0.0765
-0.0745
-0.073
-0.072
-0.073
-0.073
-0.072
-0.0745
-0.077
-0.071
-0.0695
-0.074
-0.072
-0.069
-0.072
-0.079
-0.0825
-0.0865
-0.0825
-0.0775
-0.084
-0.085
-0.0805
-0.082
-0.086
-0.088
-0.0865
-0.0845
-0.0845
-0.085
-0.088
-0.0885
-0.0865
-0.088
-0.0905
-0.088
-0.0865
-0.089
-0.087
-0.0835
-0.082
-0.0845
-0.09
-0.088
-0.086
-0.087
-0.086
-0.084
-0.084
-0.0835
-0.081
-0.0835
-0.084
-0.085
-0.0845
-0.0855
-0.088
-0.088
-0.0875
-0.0855
-0.0885
-0.092
-0.089
-0.094
-0.0995
-0.098
-0.0995
-0.0995
-0.102
-0.107
-0.1085
-0.1105
-0.1145
-0.114
-0.1125
-0.1155
-0.1185
-0.118
-0.1195
-0.1235
-0.126
-0.13
-0.1325
-0.1355
-0.1375
-0.137
-0.14
-0.142
-0.142
-0.1415
-0.1435
-0.146
-0.1475
-0.145
-0.144
-0.144
-0.14
-0.1375
-0.138
-0.137
-0.1375
-0.14
-0.137
-0.1355
-0.132
-0.127
-0.1275
-0.129
-0.1255
-0.123
-0.1215
-0.117
-0.1195
-0.116
-0.112
-0.111
-0.1065
-0.1045
-0.104
-0.1055
-0.104
-0.1
-0.099
-0.103
-0.101
-0.0935
-0.0945
-0.0925
-0.094
-0.0945
-0.092
-0.0925
-0.088
-0.0865
-0.085
-0.0805
-0.0785
-0.081
-0.078
-0.0805
-0.0855
-0.084
-0.086
-0.0835
-0.0835
-0.086
-0.085
-0.0815
-0.08
-0.0815
-0.0805
-0.078
-0.0785
-0.0795
-0.079
-0.0755
-0.0755
-0.0735
-0.0735
-0.0745
-0.0745
-0.0745
-0.075
-0.08
-0.082
-0.082
-0.0835
-0.0815
-0.0825
-0.0825
-0.0815
-0.0795
-0.078
-0.082
-0.0845
-0.084
-0.0825
-0.0795
-0.0745
-0.0735
-0.076
-0.077
-0.079
-0.0765
-0.0755
-0.0765
-0.0795
-0.0765
-0.0725
-0.0745
-0.0775
-0.0825
-0.08
-0.078
-0.0775
-0.0775
-0.08
-0.0765
-0.0745
-0.076
-0.0765
-0.076
-0.0765
-0.078
-0.074
-0.07
-0.068
-0.0615
-0.0625
-0.067
-0.065
-0.064
-0.065
-0.0695
-0.0735
-0.073
-0.0715
-0.072
-0.069
-0.0625
-0.067
-0.0705
-0.065
-0.065
-0.067
-0.069
-0.0665
-0.0645
-0.067
-0.0695
-0.07
-0.065
-0.065
-0.063
-0.0615
-0.065
-0.064
-0.061
-0.058
-0.0585
-0.0585
-0.0575
-0.057
-0.055
-0.053
-0.0535
-0.0525
-0.0505
-0.054
-0.0525
-0.055
-0.057
-0.054
-0.0545
-0.0545
-0.0515
-0.048
-0.0525
-0.056
-0.055
-0.053
-0.054
-0.052
-0.0495
-0.052
-0.0495
-0.0485
-0.048
-0.0505
-0.0545
-0.053
-0.05
-0.0495
-0.0515
-0.0565
-0.062
-0.0625
-0.06
-0.0585
-0.0595
-0.0605
-0.058
-0.0565
-0.0545
-0.0555
-0.0625
-0.062
-0.06
-0.0665
-0.0675
-0.062
-0.0605
-0.062
-0.06
-0.0585
-0.0605
-0.059
-0.0575
-0.0505
-0.049
-0.052
-0.0465
-0.046
-0.048
-0.0485
-0.048
-0.0505
-0.052
-0.0495
-0.0445
-0.044
-0.0445
-0.041
-0.04
-0.036
-0.0325
-0.029
-0.0305
-0.0335
-0.0285
-0.026
-0.025
-0.024
-0.025
-0.026
-0.0245
-0.017
-0.017
-0.017
-0.019
-0.0245
-0.0245
-0.023
-0.0175
-0.019
-0.017
-0.0145
-0.0185
-0.016
-0.015
-0.0125
-0.009
-0.0075
-0.0075
-0.008
-0.0105
-0.0125
-0.012
-0.0095
-0.008
-0.0075
-0.0055
-0.0105
-0.0135
-0.01
-0.01
-0.0095
-0.0065
-0.012
-0.018
-0.0145
-0.0195
-0.0255
-0.021
-0.0215
-0.021
-0.0205
-0.02
-0.02
-0.025
-0.0215
-0.0205
-0.022
-0.024
-0.0275
-0.03
-0.03
-0.03
-0.0295
-0.028
-0.032
-0.0305
-0.03
-0.0315
-0.0295
-0.029
-0.031
-0.0365
-0.0365
-0.03
-0.027
-0.0245
-0.025
-0.027
-0.028
-0.0285
-0.0265
-0.0285
-0.0325
-0.032
-0.029
-0.0265
-0.027
-0.028
-0.0295
-0.029
-0.027
-0.029
-0.0315
-0.03
-0.0275
-0.026
-0.0255
-0.0235
-0.0185
-0.0175
-0.017
-0.0185
-0.0255
-0.029
-0.0285
-0.0245
-0.0245
-0.025
-0.0185
-0.017
-0.0165
-0.0125
-0.0135
-0.021
-0.024
-0.021
-0.018
-0.015
-0.014
-0.016
-0.018
-0.02
-0.024
-0.026
-0.0235
-0.0235
-0.026
-0.0285
-0.0315
-0.029
-0.0235
-0.02
-0.025
-0.0275
-0.026
-0.026
-0.0195
-0.017
-0.0205
-0.0255
-0.0285
-0.0255
-0.0215
-0.0185
-0.0175
-0.0165
-0.017
-0.0175
-0.015
-0.0135
-0.0155
-0.0155
-0.0135
-0.013
-0.0165
-0.0195
-0.0185
-0.0165
-0.009
-0.0105
-0.0155
-0.013
-0.0135
-0.0155
-0.016
-0.016
-0.0205
-0.0205
-0.0175
-0.018
-0.0265
-0.0325
-0.0305
-0.028
-0.0225
-0.022
-0.0235
-0.025
-0.024
-0.024
-0.0245
-0.0205
-0.023
-0.0205
-0.016
-0.0165
-0.013
-0.0105
-0.013
-0.0185
-0.0165
-0.011
-0.0115
-0.015
-0.0175
-0.014
-0.0125
-0.015
-0.0145
-0.0145
-0.015
-0.0155
-0.02
-0.0205
-0.0175
-0.016
-0.0165
-0.0195
-0.018
-0.0185
-0.0255
-0.032
-0.034
-0.0355
-0.038
-0.0395
-0.0405
-0.039
-0.038
-0.04
-0.0445
-0.045
-0.0485
-0.052
-0.0465
-0.0495
-0.0525
-0.048
-0.0445
-0.0465
-0.0495
-0.049
-0.0535
-0.053
-0.0515
-0.058
-0.063
-0.063
-0.0635
-0.0675
-0.068
-0.0725
-0.076
-0.072
-0.071
-0.0745
-0.078
-0.071
-0.0625
-0.0565
-0.055
-0.051
-0.047
-0.052
-0.048
-0.048
-0.0485
-0.051
-0.0555
-0.053
-0.055
-0.0565
-0.0475
-0.041
-0.0425
-0.043
-0.0485
-0.051
-0.055
-0.056
-0.05
-0.0465
-0.0435
-0.044
-0.0405
-0.0345
-0.0335
-0.026
-0.02
-0.015
-0.0105
-0.0145
-0.0095
-0.0065
-0.0095
-0.014
-0.019
-0.024
-0.025
-0.022
-0.025
-0.024
-0.022
-0.018
-0.012
-0.0075
-0.004
-0.004
-0.0095
-0.013
-0.011
-0.013
-0.0145
-0.013
-0.0115
-0.013
-0.0155
-0.012
-0.005
0.0005
0.002
0.0025
0.002
0.0
0.0025
0.0045
0.0065
0.0075
0.007
0.0065
0.001
-0.0005
-0.0015
0.0005
0.005
-0.001
0.0005
0.006
0.0
0.0025
0.006
0.004
0.002
-0.002
-0.0015
0.005
0.008
0.0065
0.006
0.007
0.0055
0.0
-0.003
-0.0025
-0.001
-0.005
-0.0035
0.0005
-0.0035
-0.001
-0.005
-0.0075
-0.004
-0.008
-0.0095
-0.009
-0.0025
-0.0005
-0.004
-0.0025
-0.005
-0.005
-0.006
-0.0075
-0.0065
-0.0155
-0.026
-0.035
-0.045
-0.061
-0.0755
-0.076
-0.0815
-0.092
-0.1005
-0.105
-0.1035
-0.093
-0.0765
-0.059
-0.0415
-0.033
-0.0215
-0.0185
-0.016
-0.009
-0.001
0.0145
0.011
0.0055
0.002
-0.004
-0.015
-0.0545
-0.079
-0.0915
-0.099
-0.103
-0.1245
-0.1125
-0.0875
-0.0795
-0.0805
-0.101
-0.1245
-0.1195
-0.0855
-0.056
-0.0485
-0.038
-0.0135
-0.007
-0.0185
-0.022
-0.021
-0.0345
-0.0455
-0.05
-0.06
-0.057
-0.0515
-0.049
-0.036
-0.012
0.0055
0.023
0.044
0.0655
0.088
0.103
0.128
0.1555
0.168
0.1785
0.185
0.187
0.1775
0.163
0.155
0.1425
0.127
0.1115
0.1025
0.0945
0.0885
0.081
0.071
0.067
0.0625
0.062
0.058
0.0525
0.053
0.0515
0.0495
0.0445
0.0465
0.045
0.0345
0.032
0.0355
0.036
0.034
0.031
0.021
0.0185
0.014
0.008
0.011
0.005
0.0
-0.004
-0.0055
-0.0065
-0.009
-0.009
-0.0115
-0.0135
-0.0125
-0.011
-0.0085
-0.007
-0.011
-0.0135
-0.011
-0.0165
-0.0235
-0.019
-0.014
-0.0165
-0.0225
-0.029
-0.028
-0.024
-0.0295
-0.031
-0.032
-0.0305
-0.027
-0.0275
-0.0305
-0.0345
-0.034
-0.036
-0.039
-0.039
-0.0355
-0.0335
-0.0385
-0.041
-0.0405
-0.042
-0.0445
-0.0435
-0.041
-0.041
-0.041
-0.0405
-0.0365
-0.034
-0.0325
-0.0315
-0.0355
-0.037
-0.0335
-0.0335
-0.0345
-0.035
-0.033
-0.028
-0.0285
-0.024
-0.021
-0.0245
-0.03
-0.0365
-0.0335
-0.0335
-0.035
-0.032
-0.031
-0.031
-0.031
-0.0315
-0.0245
-0.0245
-0.027
-0.0285
-0.032
-0.0225
-0.0205
-0.024
-0.0275
-0.0285
-0.028
-0.029
-0.0275
-0.028
-0.0265
-0.022
-0.0175
-0.0195
-0.0235
-0.0245
-0.0255
-0.022
-0.0235
-0.0295
-0.0315
-0.0345
-0.034
-0.035
-0.032
-0.0305
-0.0325
-0.029
-0.0325
-0.0345
-0.033
-0.0345
-0.0355
-0.0355
-0.037
-0.041
-0.0395
-0.0385
-0.0385
-0.0395
-0.0415
-0.0415
-0.044
-0.0465
-0.0435
-0.046
-0.0525
-0.0545
-0.0535
-0.0515
-0.055
-0.058
-0.059
-0.0625
-0.0615
-0.0615
-0.0625
-0.0635
-0.0645
-0.063
-0.065
-0.064
-0.059
-0.0615
-0.0635
-0.0635
-0.062
-0.063
-0.0635
-0.057
-0.06
-0.066
-0.0635
-0.0625
-0.0635
-0.062
-0.0645
-0.066
-0.0665
-0.067
-0.066
-0.069
-0.0695
-0.0665
-0.071
-0.0735
-0.069
-0.074
-0.0805
-0.0775
-0.0775
-0.0825
-0.0835
-0.0885
-0.095
-0.094
-0.096
-0.1005
-0.1035
-0.1105
-0.1115
-0.1075
-0.1115
-0.115
-0.1155
-0.113
-0.1145
-0.117
-0.1175
-0.121
-0.123
-0.1245
-0.1225
-0.124
-0.1245
-0.1225
-0.1185
-0.1155
-0.116
-0.116
-0.1165
-0.116
-0.115
-0.1135
-0.111
-0.1055
-0.1065
-0.113
-0.113
-0.1095
-0.1045
-0.102
-0.0995
-0.1
-0.1035
-0.1025
-0.099
-0.0965
-0.094
-0.0885
-0.0895
-0.093
-0.091
-0.0835
-0.084
-0.086
-0.0815
-0.08
-0.0785
-0.0755
-0.069
-0.066
-0.0645
-0.0635
-0.065
-0.066
-0.0635
-0.0615
-0.0625
-0.0595
-0.0615
-0.061
-0.057
-0.0555
-0.0545
-0.055
-0.052
-0.0505
-0.049
-0.0445
-0.0465
-0.0515
-0.051
-0.047
-0.0445
-0.044
-0.045
-0.0465
-0.0445
-0.048
-0.048
-0.045
-0.0485
-0.048
-0.051
-0.0565
-0.06
-0.0615
-0.0585
-0.055
-0.053
-0.053
-0.049
-0.0505
-0.0505
-0.049
-0.0495
-0.049
-0.053
-0.0555
-0.0555
-0.0535
-0.047
-0.045
-0.0465
-0.0475
-0.0485
-0.0415
-0.0415
-0.043
-0.0375
-0.036
-0.0375
-0.039
-0.04
-0.04
-0.0365
-0.0345
-0.037
-0.0395
-0.0395
-0.044
-0.0445
-0.042
-0.0465
-0.0445
-0.0415
-0.044
-0.044
-0.0435
-0.04
-0.0385
-0.039
-0.0395
-0.039
-0.037
-0.032
-0.03
-0.0305
-0.0335
-0.0355
-0.033
-0.034
-0.0345
-0.0355
-0.0335
-0.0305
-0.035
-0.0355
-0.032
-0.0315
-0.034
-0.036
-0.0335
-0.031
-0.032
-0.0305
-0.027
-0.026
-0.021
-0.0195
-0.023
-0.0255
-0.0265
-0.0245
-0.0255
-0.026
-0.0265
-0.027
-0.027
-0.026
-0.024
-0.023
-0.019
-0.0175
-0.017
-0.0165
-0.0155
-0.013
-0.0125
-0.0125
-0.014
-0.0125
-0.0105
-0.0115
-0.0135
-0.014
-0.014
-0.0175
-0.0205
-0.023
-0.0265
-0.028
-0.0275
-0.0295
-0.029
-0.0275
-0.0285
-0.0285
-0.0295
-0.0295
-0.0285
-0.0325
-0.036
-0.033
-0.033
-0.033
-0.0355
-0.0395
-0.0385
-0.041
-0.041
-0.041
-0.0415
-0.041
-0.042
-0.041
-0.04
-0.0445
-0.0485
-0.052
-0.05
-0.044
-0.045
-0.0425
-0.0385
-0.0385
-0.0385
-0.047
-0.0495
-0.0425
-0.0435
-0.045
-0.045
-0.0465
-0.0475
-0.0465
-0.0445
-0.0445
-0.046
-0.0485
-0.0455
-0.0425
-0.042
-0.0405
-0.0425
-0.0465
-0.0465
-0.0455
-0.0465
-0.0465
-0.047
-0.0455
-0.0455
-0.0465
-0.0455
-0.0435
-0.045
-0.0405
-0.0365
-0.036
-0.034
-0.0335
-0.0295
-0.026
-0.03
-0.0345
-0.0335
-0.0285
-0.0265
-0.0305
-0.029
-0.0275
-0.028
-0.0295
-0.0285
-0.0275
-0.028
-0.0255
-0.0245
-0.0275
-0.0305
-0.029
-0.0285
-0.0275
-0.025
-0.0235
-0.0215
-0.022
-0.0275
-0.025
-0.0235
-0.0265
-0.0275
-0.0265
-0.0235
-0.0275
-0.0345
-0.0375
-0.0325
-0.029
-0.031
-0.03
-0.028
-0.0275
-0.0265
-0.0265
-0.0265
-0.0255
-0.0235
-0.023
-0.0245
-0.027
-0.027
-0.027
-0.029
-0.0275
-0.03
-0.0305
-0.0305
-0.0275
-0.022
-0.0225
-0.023
-0.019
-0.018
-0.023
-0.028
-0.024
-0.0185
-0.018
-0.0165
-0.018
-0.016
-0.0135
-0.0145
-0.016
-0.0195
-0.021
-0.0185
-0.0175
-0.016
-0.012
-0.0125
-0.014
-0.012
-0.0135
-0.016
-0.0175
-0.018
-0.0145
-0.0145
-0.015
-0.0155
-0.0225
-0.0185
-0.017
-0.019
-0.016
-0.019
-0.02
-0.017
-0.015
-0.014
-0.015
-0.0165
-0.0185
-0.018
-0.0185
-0.025
-0.0265
-0.025
-0.0215
-0.0175
-0.015
-0.014
-0.0195
-0.0195
-0.018
-0.019
-0.0195
-0.0195
-0.02
-0.0255
-0.025
-0.0205
-0.0215
-0.027
-0.028
-0.025
-0.0265
-0.0285
-0.03
-0.0295
-0.0285
-0.0285
-0.0305
-0.034
-0.034
-0.035
-0.035
-0.034
-0.034
-0.035
-0.0345
-0.0365
-0.0395
-0.043
-0.0505
-0.056
-0.059
-0.0565
-0.055
-0.0575
-0.0605
-0.065
-0.0675
-0.072
-0.0775
-0.081
-0.0805
-0.083
-0.0845
-0.083
-0.0845
-0.0875
-0.091
-0.09
-0.0925
-0.0945
-0.094
-0.101
-0.1095
-0.113
-0.1125
-0.1135
-0.12
-0.1245
-0.1215
-0.117
-0.1235
-0.1265
-0.126
-0.1265
-0.1245
-0.123
-0.117
-0.1175
-0.1155
-0.1095
-0.1055
-0.103
-0.1045
-0.1035
-0.0995
-0.097
-0.0965
-0.0955
-0.0955
-0.0945
-0.088
-0.0925
-0.096
-0.093
-0.097
-0.1005
-0.0975
-0.089
-0.083
-0.083
-0.0775
-0.071
-0.0645
-0.059
-0.055
-0.048
-0.0455
-0.0405
-0.0395
-0.038
-0.035
-0.0405
-0.0465
-0.049
-0.0545
-0.063
-0.0735
-0.081
-0.068
-0.0575
-0.056
-0.05
-0.048
-0.044
-0.0425
-0.043
-0.0405
-0.0405
-0.039
-0.037
-0.0355
-0.0335
-0.0325
-0.034
-0.036
-0.0355
-0.0365
-0.035
-0.0345
-0.0345
-0.0345
-0.038
-0.0375
-0.0365
-0.0355
-0.0355
-0.033
-0.0315
-0.0345
-0.0335
-0.0325
-0.035
-0.035
-0.035
-0.035
-0.036
-0.038
-0.038
-0.0375
-0.0375
-0.0385
-0.035
-0.032
-0.032
-0.0325
-0.0355
-0.035
-0.0325
-0.03
-0.0295
-0.029
-0.0325
-0.0345
-0.035
-0.0385
-0.037
-0.0355
-0.031
-0.0265
-0.029
-0.029
-0.0285
-0.0325
-0.032
-0.0325
-0.0305
-0.0285
-0.032
-0.0345
-0.041
-0.0475
-0.048
-0.0545
-0.066
-0.078
-0.089
-0.103
-0.113
-0.1175
-0.129
-0.135
-0.135
-0.1375
-0.136
-0.1255
-0.1105
-0.097
-0.0865
-0.073
-0.063
-0.0615
-0.0595
-0.056
-0.0455
-0.034
-0.036
-0.043
-0.05
-0.0565
-0.0785
-0.116
-0.14
-0.1535
-0.155
-0.1675
-0.1835
-0.1615
-0.141
-0.1385
-0.141
-0.156
-0.171
-0.1595
-0.1215
-0.0965
-0.0875
-0.061
-0.041
-0.042
-0.046
-0.047
-0.052
-0.0675
-0.07
-0.074
-0.0735
-0.062
-0.0605
-0.0505
-0.0305
-0.0075
0.0125
0.028
0.048
0.072
0.09
0.106
0.1305
0.1505
0.161
0.167
0.1735
0.172
0.16
0.147
0.136
0.1285
0.113
0.096
0.083
0.072
0.0645
0.052
0.042
0.035
0.0285
0.027
0.024
0.0205
0.0185
0.0135
0.008
0.008
0.0055
0.0035
0.003
0.003
0.0045
0.0
-0.0005
-0.0085
-0.019
-0.0215
-0.026
-0.025
-0.0235
-0.0235
-0.024
-0.026
-0.025
-0.0285
-0.033
-0.036
-0.039
-0.0395
-0.041
-0.039
-0.0355
-0.0365
-0.038
-0.0365
-0.038
-0.042
-0.0435
-0.044
-0.046
-0.0495
-0.0475
-0.05
-0.0545
-0.054
-0.0545
-0.056
-0.0565
-0.053
-0.054
-0.053
-0.0495
-0.0495
-0.051
-0.0535
-0.052
-0.0525
-0.055
-0.055
-0.0535
-0.0565
-0.058
-0.0545
-0.0545
-0.0545
-0.054
-0.0525
-0.049
-0.0475
-0.048
-0.0475
-0.0465
-0.047
-0.0465
-0.047
-0.048
-0.0445
-0.044
-0.0455
-0.045
-0.049
-0.0505
-0.05
-0.052
-0.052
-0.048
-0.0455
-0.047
-0.0475
-0.047
-0.0465
-0.0465
-0.0495
-0.053
-0.051
-0.052
-0.0515
-0.0485
-0.0505
-0.0505
-0.0495
-0.049
-0.0485
-0.0475
-0.046
-0.048
-0.051
-0.049
-0.047
-0.0455
-0.045
-0.0465
-0.047
-0.047
-0.0445
-0.045
-0.043
-0.043
-0.045
-0.045
-0.0465
-0.0445
-0.0465
-0.0475
-0.0465
-0.0475
-0.0475
-0.046
-0.047
-0.0515
-0.0525
-0.0475
-0.0455
-0.0515
-0.055
-0.0575
-0.0585
-0.0545
-0.052
-0.0525
-0.055
-0.0585
-0.0595
-0.0595
-0.0615
-0.062
-0.0595
-0.06
-0.0595
-0.06
-0.067
-0.0695
-0.0715
-0.072
-0.0685
-0.0665
-0.068
-0.0685
-0.067
-0.0725
-0.0735
-0.0715
-0.072
-0.0755
-0.0815
-0.08
-0.0775
-0.0795
-0.081
-0.0825
-0.084
-0.084
-0.0825
-0.083
-0.0835
-0.084
-0.085
-0.0885
-0.0935
-0.0955
-0.094
-0.09
-0.094
-0.098
-0.0985
-0.098
-0.0965
-0.098
-0.098
-0.097
-0.0975
-0.1035
-0.1085
-0.1095
-0.111
-0.112
-0.1095
-0.11
-0.1155
-0.1165
-0.116
-0.117
-0.1205
-0.1215
-0.121
-0.123
-0.1255
-0.1275
-0.128
-0.1295
-0.1305
-0.1275
-0.1275
-0.13
-0.1275
-0.126
-0.124
-0.1245
-0.1245
-0.126
-0.128
-0.124
-0.122
-0.1215
-0.119
-0.1165
-0.114
-0.1115
-0.1085
-0.106
-0.106
-0.1035
-0.0995
-0.102
-0.1015
-0.1
-0.101
-0.1005
-0.099
-0.096
-0.094
-0.095
-0.0925
-0.0905
-0.0865
-0.082
-0.0815
-0.081
-0.082
-0.083
-0.081
-0.0785
-0.076
-0.074
-0.0715
-0.072
-0.071
-0.067
-0.0675
-0.067
-0.0675
-0.0695
-0.0635
-0.062
-0.061
-0.0595
-0.0625
-0.062
-0.0615
-0.062
-0.061
-0.059
-0.0565
-0.054
-0.0535
-0.0525
-0.052
-0.0525
-0.053
-0.051
-0.0485
-0.049
-0.047
-0.0475
-0.05
-0.048
-0.047
-0.046
-0.047
-0.046
-0.046
-0.0515
-0.0555
-0.057
-0.0555
-0.054
-0.0535
-0.052
-0.0515
-0.0485
-0.043
-0.044
-0.0505
-0.0535
-0.054
-0.0525
-0.0515
-0.05
-0.048
-0.0465
-0.0465
-0.049
-0.0525
-0.056
-0.055
-0.054
-0.055
-0.0565
-0.054
-0.052
-0.0565
-0.0605
-0.0625
-0.06
-0.06
-0.064
-0.0635
-0.06
-0.0555
-0.055
-0.0575
-0.059
-0.06
-0.056
-0.053
-0.055
-0.055
-0.054
-0.055
-0.054
-0.051
-0.052
-0.054
-0.055
-0.054
-0.0555
-0.0555
-0.054
-0.055
-0.054
-0.05
-0.0485
-0.0515
-0.053
-0.0545
-0.0535
-0.0525
-0.054
-0.052
-0.0525
-0.0525
-0.051
-0.054
-0.0565
-0.055
-0.0545
-0.0535
-0.052
-0.051
-0.052
-0.051
-0.05
-0.0475
-0.0445
-0.0425
-0.0395
-0.039
-0.0425
-0.0445
-0.04
-0.0365
-0.0335
-0.037
-0.0425
-0.04
-0.036
-0.034
-0.033
-0.032
-0.0355
-0.034
-0.031
-0.0295
-0.028
-0.029
-0.0285
-0.028
-0.0295
-0.029
-0.028
-0.028
-0.026
-0.027
-0.0275
-0.0245
-0.0235
-0.025
-0.023
-0.026
-0.0315
-0.0305
-0.034
-0.033
-0.034
-0.035
-0.034
-0.034
-0.032
-0.0345
-0.036
-0.0385
-0.039
-0.039
-0.0385
-0.037
-0.036
-0.036
-0.033
-0.031
-0.0345
-0.034
-0.0365
-0.037
-0.0375
-0.0405
-0.043
-0.043
-0.042
-0.0405
-0.0415
-0.043
-0.0405
-0.041
-0.0425
-0.0435
-0.042
-0.0385
-0.04
-0.0435
-0.0435
-0.0435
-0.0455
-0.0485
-0.0505
-0.0455
-0.0415
-0.0425
-0.043
-0.0465
-0.0545
-0.0555
-0.0555
-0.056
-0.053
-0.0515
-0.052
-0.05
-0.047
-0.048
-0.0485
-0.049
-0.048
-0.0465
-0.045
-0.0445
-0.046
-0.047
-0.046
-0.041
-0.0425
-0.0435
-0.0425
-0.0445
-0.0505
-0.0525
-0.0485
-0.0505
-0.05
-0.0495
-0.053
-0.0535
-0.0545
-0.054
-0.054
-0.0525
-0.0525
-0.054
-0.0505
-0.0465
-0.0455
-0.0445
-0.0395
-0.038
-0.038
-0.037
-0.038
-0.038
-0.036
-0.036
-0.0375
-0.038
-0.038
-0.035
-0.037
-0.04
-0.038
-0.035
-0.0335
-0.031
-0.031
-0.03
-0.0295
-0.034
-0.0345
-0.037
-0.0385
-0.039
-0.039
-0.035
-0.037
-0.04
-0.0405
-0.041
-0.037
-0.035
-0.033
-0.0335
-0.035
-0.031
-0.0315
-0.03
-0.028
-0.0295
-0.033
-0.037
-0.0355
-0.0335
-0.033
-0.0335
-0.0315
-0.0295
-0.0285
-0.028
-0.0275
-0.027
-0.0255
-0.0275
-0.0275
-0.019
-0.0185
-0.022
-0.028
-0.034
-0.038
-0.037
-0.035
-0.0345
-0.031
-0.031
-0.029
-0.0285
-0.03
-0.0285
-0.031
-0.0315
-0.0265
-0.025
-0.025
-0.0255
-0.0235
-0.022
-0.0245
-0.026
-0.026
-0.026
-0.0245
-0.0225
-0.0225
-0.0205
-0.021
-0.02
-0.0195
-0.0195
-0.017
-0.0205
-0.021
-0.019
-0.02
-0.017
-0.016
-0.019
-0.019
-0.0215
-0.024
-0.023
-0.0225
-0.0235
-0.027
-0.0275
-0.0265
-0.03
-0.0345
-0.036
-0.0365
-0.038
-0.0385
-0.038
-0.038
-0.039
-0.0435
-0.048
-0.049
-0.05
-0.054
-0.0605
-0.0665
-0.069
-0.0675
-0.0685
-0.07
-0.0745
-0.0805
-0.084
-0.087
-0.091
-0.097
-0.1005
-0.101
-0.102
-0.101
-0.0965
-0.0955
-0.0945
-0.0925
-0.093
-0.096
-0.104
-0.1105
-0.1155
-0.118
-0.1225
-0.124
-0.123
-0.129
-0.132
-0.1285
-0.1275
-0.1305
-0.1355
-0.1415
-0.143
-0.1395
-0.132
-0.1275
-0.1275
-0.125
-0.123
-0.1205
-0.121
-0.1225
-0.1185
-0.118
-0.1175
-0.114
-0.1075
-0.104
-0.1045
-0.1
-0.0995
-0.1005
-0.1015
-0.1025
-0.104
-0.103
-0.093
-0.0865
-0.085
-0.0795
-0.07
-0.0665
-0.0655
-0.063
-0.06
-0.051
-0.046
-0.043
-0.0415
-0.042
-0.0445
-0.052
-0.0595
-0.061
-0.0575
-0.062
-0.0675
-0.068
-0.0595
-0.055
-0.056
-0.053
-0.047
-0.036
-0.031
-0.027
-0.0195
-0.014
-0.014
-0.011
-0.0115
-0.0125
-0.0135
-0.0145
-0.01
-0.0105
-0.0125
-0.012
-0.015
-0.0175
-0.018
-0.015
-0.0115
-0.0125
-0.0145
-0.017
-0.018
-0.0185
-0.0165
-0.015
-0.016
-0.0145
-0.016
-0.015
-0.0145
-0.017
-0.0175
-0.023
-0.0255
-0.0225
-0.0205
-0.021
-0.0215
-0.022
-0.0235
-0.024
-0.023
-0.024
-0.025
-0.0255
-0.0235
-0.021
-0.023
-0.0225
-0.02
-0.0185
-0.019
-0.0205
-0.022
-0.0215
-0.0275
-0.0325
-0.028
-0.0235
-0.022
-0.0275
-0.031
-0.0295
-0.0325
-0.0405
-0.047
-0.055
-0.063
-0.0745
-0.09
-0.1035
-0.1115
-0.117
-0.1305
-0.137
-0.1395
-0.14
-0.1325
-0.117
-0.0965
-0.082
-0.072
-0.0575
-0.049
-0.0475
-0.046
-0.0455
-0.0335
-0.0235
-0.027
-0.0325
-0.038
-0.044
-0.07
-0.107
-0.128
-0.137
-0.136
-0.152
-0.1595
-0.1315
-0.1155
-0.117
-0.13
-0.1415
-0.136
-0.11
-0.0775
-0.0725
-0.06
-0.0325
-0.0205
-0.024
-0.0315
-0.0265
-0.032
-0.0445
-0.0435
-0.0425
-0.0395
-0.0365
-0.0375
-0.0255
-0.0065
0.0095
0.024
0.042
0.067
0.087
0.103
0.1185
0.139
0.1525
0.1595
0.1645
0.163
0.1575
0.1445
0.1325
0.117
0.1005
0.0885
0.078
0.073
0.0645
0.0555
0.0515
0.046
0.0395
0.034
0.0305
0.028
0.0245
0.02
0.017
0.0145
0.012
0.0115
0.009
0.005
0.003
0.003
0.0
-0.003
-0.0045
-0.008
-0.0115
-0.0135
-0.0105
-0.008
-0.0105
-0.0125
-0.0125
-0.0165
-0.018
-0.017
-0.014
-0.0135
-0.017
-0.014
-0.0155
-0.0185
-0.024
-0.027
-0.0275
-0.0275
-0.0285
-0.0285
-0.027
-0.031
-0.036
-0.036
-0.0345
-0.035
-0.036
-0.0375
-0.0395
-0.0395
-0.0385
-0.0395
-0.0405
-0.0425
-0.0435
-0.0415
-0.041
-0.044
-0.0445
-0.045
-0.05
-0.053
-0.0525
-0.048
-0.047
-0.047
-0.046
-0.049
-0.0505
-0.0495
-0.0515
-0.054
-0.056
-0.0555
-0.0545
-0.0535
-0.0535
-0.055
-0.0605
-0.067
-0.0655
-0.063
-0.061
-0.0625
-0.0615
-0.06
-0.065
-0.0665
-0.0635
-0.0625
-0.062
-0.0635
-0.065
-0.0645
-0.066
-0.064
-0.062
-0.062
-0.0625
-0.0645
-0.066
-0.069
-0.0675
-0.0655
-0.067
-0.0635
-0.062
-0.062
-0.0615
-0.062
-0.0625
-0.064
-0.0635
-0.0615
-0.0615
-0.065
-0.0645
-0.0595
-0.056
-0.054
-0.0565
-0.059
-0.058
-0.058
-0.0585
-0.061
-0.064
-0.0635
-0.0645
-0.0665
-0.069
-0.0685
-0.065
-0.068
-0.071
-0.0705
-0.0705
-0.072
-0.072
-0.0715
-0.071
-0.0705
-0.072
-0.076
-0.0805
-0.0835
-0.086
-0.086
-0.0855
-0.087
-0.088
-0.086
-0.0875
-0.089
-0.0885
-0.086
-0.083
-0.087
-0.0875
-0.083
-0.082
-0.088
-0.093
-0.093
-0.092
-0.09
-0.089
-0.0885
-0.088
-0.09
-0.0935
-0.0915
-0.0915
-0.0955
-0.0955
-0.095
-0.096
-0.093
-0.089
-0.0885
-0.089
-0.0885
-0.089
-0.095
-0.0975
-0.0955
-0.098
-0.1025
-0.103
-0.1025
-0.1045
-0.1005
-0.1025
-0.11
-0.108
-0.1075
-0.109
-0.1075
-0.1045
-0.106
-0.1055
-0.106
-0.106
-0.1035
-0.104
-0.103
-0.11
-0.115
-0.1125
-0.11
-0.1115
-0.1135
-0.1065
-0.1035
-0.1055
-0.1075
-0.107
-0.1045
-0.105
-0.1045
-0.105
-0.1025
-0.1
-0.0965
-0.097
-0.1
-0.0955
-0.0925
-0.09
-0.0895
-0.091
-0.091
-0.091
-0.0885
-0.0865
-0.0855
-0.082
-0.08
-0.0775
-0.0735
-0.072
-0.0735
-0.073
-0.0695
-0.064
-0.057
-0.054
-0.0545
-0.055
-0.0545
-0.051
-0.0485
-0.049
-0.05
-0.0495
-0.049
-0.0485
-0.046
-0.0435
-0.0415
-0.039
-0.04
-0.0405
-0.037
-0.035
-0.034
-0.0345
-0.0335
-0.032
-0.0345
-0.036
-0.0345
-0.0305
-0.0335
-0.036
-0.0375
-0.037
-0.034
-0.038
-0.0375
-0.0335
-0.0325
-0.033
-0.032
-0.0275
-0.0275
-0.0275
-0.028
-0.0285
-0.028
-0.0285
-0.026
-0.0245
-0.0235
-0.02
-0.0175
-0.0225
-0.0245
-0.022
-0.024
-0.026
-0.026
-0.025
-0.0235
-0.0245
-0.025
-0.023
-0.023
-0.022
-0.0215
-0.022
-0.021
-0.0245
-0.0265
-0.026
-0.0235
-0.026
-0.029
-0.0265
-0.024
-0.025
-0.027
-0.0285
-0.0275
-0.0245
-0.022
-0.02
-0.02
-0.02
-0.018
-0.0195
-0.0235
-0.0265
-0.0255
-0.0245
-0.0265
-0.0255
-0.025
-0.0245
-0.027
-0.027
-0.023
-0.022
-0.025
-0.0315
-0.031
-0.032
-0.0345
-0.0325
-0.0305
-0.0285
-0.0265
-0.0235
-0.0265
-0.028
-0.0315
-0.0305
-0.026
-0.0285
-0.027
-0.0285
-0.029
-0.0265
-0.0285
-0.0315
-0.0325
-0.032
-0.0335
-0.0305
-0.029
-0.0275
-0.026
-0.0285
-0.0275
-0.027
-0.0275
-0.027
-0.0255
-0.025
-0.025
-0.0245
-0.027
-0.0285
-0.0275
-0.026
-0.0265
-0.0265
-0.0235
-0.022
-0.018
-0.0155
-0.02
-0.0245
-0.026
-0.0245
-0.023
-0.023
-0.024
-0.026
-0.023
-0.0145
-0.013
-0.017
-0.0185
-0.018
-0.019
-0.018
-0.0155
-0.0145
-0.0125
-0.015
-0.0205
-0.021
-0.0195
-0.0215
-0.022
-0.0185
-0.016
-0.016
-0.014
-0.014
-0.0145
-0.0125
-0.012
-0.0135
-0.0145
-0.0125
-0.0175
-0.022
-0.0235
-0.025
-0.0265
-0.0255
-0.022
-0.0235
-0.0255
-0.0255
-0.022
-0.0205
-0.021
-0.021
-0.025
-0.025
-0.0235
-0.0255
-0.025
-0.026
-0.0275
-0.028
-0.0275
-0.026
-0.0245
-0.023
-0.021
-0.019
-0.0215
-0.0195
-0.0155
-0.016
-0.014
-0.0145
-0.0165
-0.017
-0.0175
-0.0145
-0.008
-0.0075
-0.0095
-0.009
-0.0085
-0.0115
-0.0165
-0.013
-0.0085
-0.0095
-0.0125
-0.016
-0.015
-0.014
-0.0115
-0.0115
-0.0135
-0.014
-0.017
-0.017
-0.0175
-0.017
-0.0165
-0.0175
-0.014
-0.0135
-0.0175
-0.019
-0.017
-0.0145
-0.0175
-0.0165
-0.0145
-0.0165
-0.0145
-0.016
-0.0175
-0.0145
-0.016
-0.0205
-0.0195
-0.0205
-0.0255
-0.0245
-0.025
-0.0265
-0.0255
-0.023
-0.0255
-0.032
-0.036
-0.039
-0.0355
-0.032
-0.0315
-0.032
-0.0315
-0.03
-0.0295
-0.029
-0.026
-0.0245
-0.025
-0.0245
-0.0255
-0.0255
-0.0255
-0.0265
-0.024
-0.024
-0.027
-0.024
-0.024
-0.0275
-0.0305
-0.033
-0.0325
-0.031
-0.0265
-0.022
-0.0185
-0.018
-0.018
-0.0195
-0.025
-0.023
-0.017
-0.018
-0.0205
-0.021
-0.017
-0.0135
-0.015
-0.0145
-0.014
-0.0115
-0.008
-0.009
-0.0085
-0.008
-0.008
-0.007
-0.007
-0.0065
-0.005
-0.0035
-0.0035
-0.002
-0.002
-0.0035
-0.0015
-0.0015
-0.003
-0.0015
-0.0015
-0.0045
-0.0065
-0.007
-0.005
-0.0055
-0.0055
-0.003
-0.004
-0.005
-0.005
-0.0035
-0.0045
-0.0035
-0.003
-0.005
-0.0085
-0.013
-0.0095
-0.008
-0.008
-0.007
-0.0115
-0.012
-0.009
-0.0075
-0.0105
-0.012
-0.0125
-0.013
-0.012
-0.0135
-0.0155
-0.0165
-0.0165
-0.0175
-0.019
-0.0205
-0.023
-0.0255
-0.029
-0.029
-0.0275
-0.0255
-0.0265
-0.03
-0.0295
-0.026
-0.0245
-0.028
-0.028
-0.026
-0.027
-0.026
-0.0265
-0.0295
-0.031
-0.031
-0.0325
-0.0305
-0.025
-0.0235
-0.0235
-0.0255
-0.026
-0.026
-0.027
-0.0275
-0.0315
-0.033
-0.035
-0.032
-0.03
-0.0315
-0.0305
-0.033
-0.027
-0.025
-0.025
-0.0225
-0.0295
-0.0325
-0.0315
-0.0305
-0.0285
-0.0285
-0.0315
-0.033
-0.037
-0.0405
-0.0385
-0.039
-0.0415
-0.047
-0.0505
-0.052
-0.0555
-0.0575
-0.0585
-0.0635
-0.068
-0.067
-0.0725
-0.079
-0.081
-0.082
-0.083
-0.086
-0.0875
-0.085
-0.08
-0.0815
-0.0855
-0.0875
-0.089
-0.092
-0.0975
-0.103
-0.1015
-0.107
-0.1155
-0.1145
-0.116
-0.114
-0.1105
-0.1115
-0.1115
-0.11
-0.1075
-0.107
-0.103
-0.0985
-0.098
-0.095
-0.0935
-0.09
-0.0865
-0.089
-0.0875
-0.0835
-0.085
-0.088
-0.0875
-0.0805
-0.073
-0.071
-0.0695
-0.0745
-0.0865
-0.096
-0.099
-0.0925
-0.083
-0.0805
-0.0785
-0.0725
-0.0625
-0.0585
-0.058
-0.0515
-0.047
-0.038
-0.0345
-0.037
-0.033
-0.027
-0.032
-0.044
-0.0455
-0.0495
-0.0555
-0.058
-0.06
-0.0575
-0.0515
-0.0455
-0.0425
-0.038
-0.0395
-0.0405
-0.0395
-0.04
-0.0415
-0.041
-0.0355
-0.033
-0.0315
-0.029
-0.026
-0.024
-0.0235
-0.026
-0.032
-0.035
-0.0345
-0.0325
-0.034
-0.036
-0.035
-0.034
-0.031
-0.0325
-0.0335
-0.033
-0.036
-0.0395
-0.041
-0.0365
-0.0345
-0.0365
-0.035
-0.036
-0.0405
-0.0415
-0.041
-0.0415
-0.0435
-0.0455
-0.0475
-0.0485
-0.048
-0.0485
-0.0465
-0.047
-0.049
-0.0515
-0.0535
-0.0535
-0.054
-0.0535
-0.0545
-0.0555
-0.055
-0.0545
-0.0555
-0.0585
-0.0555
-0.0555
-0.0575
-0.057
-0.0565
-0.055
-0.057
-0.059
-0.063
-0.0695
-0.0705
-0.0765
-0.09
-0.101
-0.111
-0.1225
-0.1365
-0.14
-0.145
-0.1565
-0.1575
-0.157
-0.1535
-0.148
-0.131
-0.112
-0.1005
-0.086
-0.071
-0.0625
-0.06
-0.0555
-0.046
-0.032
-0.0275
-0.03
-0.0375
-0.0505
-0.06
-0.09
-0.1205
-0.1365
-0.1445
-0.141
-0.1575
-0.1535
-0.1245
-0.1205
-0.1325
-0.1455
-0.1495
-0.1405
-0.107
-0.08
-0.0745
-0.048
-0.02
-0.0185
-0.023
-0.0215
-0.019
-0.0295
-0.041
-0.0395
-0.037
-0.037
-0.0365
-0.034
-0.021
-0.002
0.0155
0.0265
0.0445
0.0675
0.087
0.1055
0.1245
0.1455
0.158
0.1635
0.1615
0.16
0.1555
0.1415
0.131
0.1185
0.105
0.0895
0.074
0.065
0.059
0.055
0.049
0.041
0.031
0.026
0.0245
0.0225
0.023
0.0175
0.0115
0.009
0.0025
0.002
0.002
0.001
-0.0005
-0.003
-0.001
-0.004
-0.008
-0.013
-0.013
-0.0115
-0.0205
-0.0275
-0.0275
-0.026
-0.0275
-0.029
-0.029
-0.032
-0.0375
-0.0375
-0.036
-0.038
-0.038
-0.038
-0.0405
-0.0405
-0.0425
-0.0445
-0.044
-0.045
-0.0455
-0.0465
-0.0465
-0.047
-0.05
-0.045
-0.04
-0.0405
-0.044
-0.044
-0.0405
-0.0445
-0.05
-0.0495
-0.05
-0.053
-0.053
-0.05
-0.0495
-0.0525
-0.055
-0.0525
-0.0455
-0.0445
-0.047
-0.0495
-0.049
-0.047
-0.047
-0.0445
-0.0435
-0.0385
-0.0375
-0.04
-0.0425
-0.047
-0.0455
-0.0415
-0.04
-0.038
-0.04
-0.0415
-0.0395
-0.0375
-0.0355
-0.0375
-0.038
-0.038
-0.039
-0.038
-0.036
-0.0345
-0.0375
-0.0375
-0.0335
-0.0315
-0.029
-0.0275
-0.03
-0.03
-0.0295
-0.029
-0.028
-0.0305
-0.0335
-0.0355
-0.0355
-0.0385
-0.0395
-0.039
-0.0395
-0.039
-0.0405
-0.0415
-0.0455
-0.048
-0.0485
-0.049
-0.048
-0.0505
-0.05
-0.0485
-0.052
-0.0535
-0.051
-0.0495
-0.0525
-0.057
-0.057
-0.0555
-0.0555
-0.06
-0.06
-0.055
-0.0575
-0.06
-0.062
-0.0625
-0.059
-0.055
-0.0565
-0.0635
-0.062
-0.063
-0.065
-0.0605
-0.0595
-0.0635
-0.0645
-0.062
-0.06
-0.0565
-0.053
-0.048
-0.0485
-0.05
-0.0485
-0.0475
-0.0505
-0.0555
-0.0575
-0.061
-0.0615
-0.0615
-0.0625
-0.064
-0.067
-0.0675
-0.067
-0.0655
-0.0665
-0.0675
-0.071
-0.0735
-0.0755
-0.078
-0.0775
-0.079
-0.079
-0.0785
-0.08
-0.084
-0.0865
-0.0885
-0.0885
-0.0905
-0.095
-0.0965
-0.0975
-0.0975
-0.0965
-0.097
-0.1
-0.1015
-0.1025
-0.1035
-0.1035
-0.1055
-0.1045
-0.105
-0.106
-0.1055
-0.105
-0.108
-0.1115
-0.1105
-0.1105
-0.109
-0.1085
-0.111
-0.111
-0.109
-0.106
-0.1035
-0.1015
-0.1015
-0.1035
-0.104
-0.103
-0.103
-0.104
-0.101
-0.0965
-0.094
-0.087
-0.0825
-0.085
-0.0925
-0.0965
-0.095
-0.0875
-0.08
-0.08
-0.078
-0.079
-0.079
-0.079
-0.079
-0.078
-0.076
-0.0725
-0.071
-0.0695
-0.0705
-0.07
-0.0675
-0.0685
-0.0705
-0.071
-0.069
-0.066
-0.0635
-0.0635
-0.061
-0.0595
-0.0605
-0.0575
-0.0555
-0.0545
-0.0545
-0.054
-0.054
-0.0515
-0.052
-0.053
-0.0535
-0.053
-0.051
-0.051
-0.0485
-0.045
-0.0455
-0.0455
-0.0445
-0.0425
-0.0415
-0.0435
-0.0395
-0.037
-0.0395
-0.041
-0.044
-0.043
-0.0395
-0.036
-0.035
-0.039
-0.038
-0.0395
-0.043
-0.037
-0.0325
-0.0335
-0.0355
-0.035
-0.0345
-0.0385
-0.041
-0.0385
-0.0335
-0.0325
-0.036
-0.037
-0.038
-0.04
-0.043
-0.0455
-0.042
-0.0395
-0.042
-0.044
-0.0425
-0.043
-0.0435
-0.0415
-0.0415
-0.0395
-0.0425
-0.045
-0.046
-0.0425
-0.039
-0.0425
-0.0455
-0.049
-0.0485
-0.0475
-0.0445
-0.0415
-0.044
-0.0425
-0.0415
-0.043
-0.044
-0.0405
-0.034
-0.033
-0.0335
-0.032
-0.031
-0.031
-0.0335
-0.034
-0.0345
-0.0335
-0.0325
-0.0325
-0.031
-0.031
-0.032
-0.033
-0.0355
-0.0395
-0.04
-0.0385
-0.0365
-0.035
-0.036
-0.036
-0.0365
-0.0365
-0.037
-0.037
-0.039
-0.0385
-0.036
-0.0325
-0.0335
-0.04
-0.038
-0.0355
-0.035
-0.0355
-0.0365
-0.035
-0.0305
-0.0265
-0.025
-0.0245
-0.0315
-0.04
-0.0405
-0.0385
-0.0375
-0.038
-0.039
-0.0395
-0.041
-0.0385
-0.0365
-0.0405
-0.041
-0.043
-0.044
-0.0465
-0.047
-0.0445
-0.045
-0.046
-0.0495
-0.049
-0.048
-0.052
-0.0515
-0.049
-0.0515
-0.0495
-0.0485
-0.0535
-0.0495
-0.044
-0.0435
-0.05
-0.0525
-0.0445
-0.0425
-0.042
-0.046
-0.0465
-0.042
-0.044
-0.0435
-0.0405
-0.043
-0.045
-0.045
-0.044
-0.042
-0.0445
-0.043
-0.042
-0.0455
-0.045
-0.042
-0.038
-0.038
-0.0385
-0.038
-0.037
-0.035
-0.0345
-0.0345
-0.034
-0.0345
-0.034
-0.032
-0.0295
-0.0315
-0.0355
-0.0355
-0.038
-0.036
-0.0325
-0.0335
-0.0315
-0.033
-0.035
-0.029
-0.0265
-0.0255
-0.022
-0.0235
-0.028
-0.0305
-0.0295
-0.028
-0.029
-0.0275
-0.028
-0.032
-0.03
-0.027
-0.027
-0.0265
-0.0245
-0.021
-0.0205
-0.0205
-0.0215
-0.0265
-0.026
-0.023
-0.0235
-0.022
-0.019
-0.017
-0.0195
-0.0215
-0.018
-0.0155
-0.0165
-0.015
-0.0125
-0.012
-0.0165
-0.0165
-0.015
-0.016
-0.013
-0.0145
-0.0145
-0.017
-0.019
-0.0195
-0.0185
-0.013
-0.017
-0.0195
-0.0155
-0.0125
-0.013
-0.018
-0.0185
-0.018
-0.017
-0.02
-0.023
-0.0185
-0.0185
-0.017
-0.0165
-0.0205
-0.024
-0.026
-0.026
-0.024
-0.023
-0.026
-0.029
-0.033
-0.0325
-0.031
-0.0295
-0.028
-0.03
-0.029
-0.026
-0.0255
-0.0295
-0.0325
-0.0325
-0.0295
-0.0275
-0.0245
-0.024
-0.021
-0.0205
-0.027
-0.028
-0.029
-0.029
-0.0285
-0.03
-0.0285
-0.0245
-0.02
-0.0225
-0.025
-0.023
-0.0245
-0.0215
-0.018
-0.0165
-0.017
-0.0195
-0.0235
-0.028
-0.026
-0.023
-0.0205
-0.0255
-0.03
-0.028
-0.026
-0.0215
-0.018
-0.02
-0.0225
-0.0225
-0.0205
-0.0145
-0.017
-0.02
-0.015
-0.0135
-0.0135
-0.016
-0.02
-0.021
-0.0215
-0.0245
-0.0255
-0.0225
-0.0255
-0.03
-0.0295
-0.0285
-0.0265
-0.026
-0.03
-0.0335
-0.036
-0.037
-0.0385
-0.0405
-0.0425
-0.045
-0.0465
-0.047
-0.046
-0.045
-0.044
-0.0405
-0.038
-0.041
-0.045
-0.044
-0.0415
-0.043
-0.043
-0.047
-0.0505
-0.0515
-0.052
-0.049
-0.0495
-0.051
-0.051
-0.05
-0.0505
-0.0505
-0.047
-0.0465
-0.0465
-0.0475
-0.0465
-0.0445
-0.047
-0.0445
-0.0445
-0.0455
-0.0445
-0.0475
-0.052
-0.054
-0.0515
-0.05
-0.0515
-0.0515
-0.048
-0.0455
-0.045
-0.0415
-0.04
-0.0435
-0.0435
-0.0465
-0.052
-0.0475
-0.047
-0.0495
-0.05
-0.0515
-0.0505
-0.0475
-0.0465
-0.051
-0.0535
-0.05
-0.049
-0.0485
-0.044
-0.041
-0.0395
-0.047
-0.0505
-0.0475
-0.051
-0.048
-0.0435
-0.0415
-0.046
-0.0475
-0.0445
-0.0465
-0.051
-0.0575
-0.056
-0.0555
-0.06
-0.0645
-0.072
-0.0765
-0.077
-0.0775
-0.0805
-0.0865
-0.0875
-0.0865
-0.093
-0.0955
-0.0985
-0.106
-0.1085
-0.1065
-0.1055
-0.106
-0.1055
-0.1105
-0.111
-0.1095
-0.1145
-0.115
-0.1155
-0.1165
-0.118
-0.1225
-0.1225
-0.122
-0.1265
-0.1325
-0.136
-0.1335
-0.1315
-0.1285
-0.129
-0.1315
-0.1275
-0.1225
-0.118
-0.116
-0.114
-0.1165
-0.1135
-0.1075
-0.1105
-0.1105
-0.111
-0.1135
-0.1115
-0.1085
-0.103
-0.0955
-0.095
-0.0945
-0.0955
-0.1035
-0.1045
-0.106
-0.103
-0.092
-0.087
-0.086
-0.082
-0.0765
-0.073
-0.0675
-0.0665
-0.06
-0.05
-0.048
-0.0475
-0.0485
-0.0495
-0.051
-0.0545
-0.061
-0.0625
-0.065
-0.0715
-0.0695
-0.0695
-0.0665
-0.0595
-0.0575
-0.0565
-0.0585
-0.063
-0.064
-0.0635
-0.0625
-0.063
-0.0605
-0.0615
-0.061
-0.0585
-0.0605
-0.0545
-0.056
-0.0585
-0.055
-0.058
-0.057
-0.0555
-0.0555
-0.0505
-0.0475
-0.054
-0.0605
-0.064
-0.0625
-0.0585
-0.0575
-0.059
-0.0595
-0.0585
-0.061
-0.0635
-0.0625
-0.062
-0.061
-0.0575
-0.0565
-0.062
-0.064
-0.0635
-0.062
-0.0575
-0.0595
-0.0575
-0.0565
-0.058
-0.0555
-0.0565
-0.06
-0.059
-0.054
-0.049
-0.041
-0.045
-0.0555
-0.0565
-0.0535
-0.05
-0.053
-0.057
-0.058
-0.059
-0.0585
-0.0565
-0.057
-0.055
-0.056
-0.061
-0.0615
-0.0665
-0.0795
-0.0925
-0.109
-0.1275
-0.1355
-0.137
-0.137
-0.143
-0.1535
-0.1595
-0.1595
-0.1495
-0.1335
-0.1145
-0.103
-0.088
-0.0695
-0.063
-0.0615
-0.062
-0.0535
-0.04
-0.0395
-0.0455
-0.056
-0.058
-0.0695
-0.1115
-0.1355
-0.1495
-0.158
-0.1605
-0.1735
-0.1575
-0.1385
-0.133
-0.138
-0.159
-0.1705
-0.158
-0.1255
-0.1005
-0.092
-0.0735
-0.049
-0.0505
-0.063
-0.0615
-0.0625
-0.0735
-0.076
-0.0815
-0.089
-0.084
-0.081
-0.0745
-0.0535
-0.0315
-0.0145
0.0055
0.023
0.048
0.071
0.084
0.1075
0.131
0.147
0.157
0.1515
0.1505
0.1515
0.1425
0.1275
0.1065
0.095
0.083
0.071
0.0685
0.059
0.046
0.033
0.024
0.023
0.016
0.012
0.0115
0.006
0.002
-0.0015
-0.006
-0.007
-0.0055
-0.0045
-0.01
-0.016
-0.019
-0.025
-0.03
-0.0325
-0.036
-0.0415
-0.045
-0.0475
-0.049
-0.051
-0.055
-0.0585
-0.061
-0.062
-0.066
-0.0685
-0.0685
-0.069
-0.076
-0.073
-0.0675
-0.076
-0.08
-0.0805
-0.0785
-0.0835
-0.088
-0.087
-0.0905
-0.0885
-0.089
-0.088
-0.086
-0.087
-0.0865
-0.0865
-0.0855
-0.086
-0.0915
-0.0945
-0.094
-0.094
-0.091
-0.093
-0.099
-0.097
-0.093
-0.097
-0.1
-0.0965
-0.0945
-0.09
-0.089
-0.0845
-0.0825
-0.086
-0.085
-0.088
-0.0885
-0.0855
-0.086
-0.0875
-0.083
-0.0815
-0.0825
-0.0875
-0.0915
-0.086
-0.0855
-0.0845
-0.0805
-0.078
-0.0815
-0.0895
-0.093
-0.091
-0.087
-0.0895
-0.088
-0.0835
-0.091
-0.0955
-0.0935
-0.0925
-0.093
-0.096
-0.0945
-0.0905
-0.089
-0.092
-0.0965
-0.096
-0.092
-0.088
-0.0935
-0.099
-0.0965
-0.0965
-0.0975
-0.0995
-0.1085
-0.11
-0.105
-0.1015
-0.1005
-0.1015
-0.096
-0.101
-0.1085
-0.109
-0.1115
-0.1125
-0.112
-0.1085
-0.1065
-0.106
-0.1115
-0.111
-0.1055
-0.1035
-0.104
-0.1125
-0.1225
-0.125
-0.122
-0.123
-0.125
-0.125
-0.122
-0.1235
-0.1275
-0.1275
-0.1295
-0.1285
-0.128
-0.1295
-0.118
-0.115
-0.1265
-0.1255
-0.122
-0.123
-0.12
-0.121
-0.1275
-0.128
-0.1245
-0.123
-0.126
-0.1285
-0.1255
-0.1255
-0.1255
-0.1235
-0.1175
-0.1215
-0.1325
-0.132
-0.131
-0.1285
-0.1255
-0.128
-0.135
-0.136
-0.132
-0.1365
-0.138
-0.135
-0.1385
-0.1425
-0.1405
-0.141
-0.142
-0.1425
-0.141
-0.1375
-0.139
-0.1405
-0.14
-0.144
-0.148
-0.1515
-0.1545
-0.1535
-0.1535
-0.159
-0.1605
-0.163
-0.162
-0.1565
-0.162
-0.1655
-0.164
-0.163
-0.1655
-0.1665
-0.164
-0.168
-0.176
-0.175
-0.172
-0.1735
-0.177
-0.173
-0.1675
-0.167
-0.161
-0.1625
-0.162
-0.158
-0.1625
-0.1625
-0.1615
-0.1575
-0.154
-0.1555
-0.1565
-0.157
-0.1535
-0.1505
-0.148
-0.1465
-0.1465
-0.1455
-0.143
-0.144
-0.1485
-0.1465
-0.1345
-0.132
-0.132
-0.131
-0.1345
-0.131
-0.1345
-0.1355
-0.1345
-0.1345
-0.1265
-0.122
-0.117
-0.1125
-0.1135
-0.1115
-0.1095
-0.1125
-0.113
-0.1105
-0.1065
-0.1045
-0.1015
-0.1025
-0.106
-0.102
-0.0965
-0.0915
-0.093
-0.096
-0.0955
-0.092
-0.093
-0.094
-0.0885
-0.084
-0.083
-0.0885
-0.0915
-0.0915
-0.089
-0.0895
-0.092
-0.089
-0.0855
-0.0835
-0.0855
-0.0785
-0.0725
-0.08
-0.076
-0.0715
-0.0745
-0.0735
-0.072
-0.073
-0.077
-0.0785
-0.0755
-0.0795
-0.0835
-0.082
-0.0805
-0.079
-0.0815
-0.0805
-0.078
-0.0795
-0.079
-0.077
-0.0735
-0.0765
-0.079
-0.077
-0.075
-0.0785
-0.0845
-0.0835
-0.083
-0.083
-0.083
-0.0805
-0.0845
-0.088
-0.083
-0.085
-0.0855
-0.0855
-0.0915
-0.089
-0.0865
-0.094
-0.0945
-0.0905
-0.0895
-0.095
-0.0985
-0.0905
-0.0905
-0.092
-0.092
-0.099
-0.0965
-0.094
-0.0955
-0.095
-0.0975
-0.093
-0.086
-0.087
-0.092
-0.0905
-0.0855
-0.086
-0.0895
-0.094
-0.0925
-0.088
-0.0935
-0.098
-0.0925
-0.0925
-0.0935
-0.089
-0.085
-0.0855
-0.0875
-0.0875
-0.087
-0.0855
-0.083
-0.0835
-0.086
-0.0885
-0.089
-0.0875
-0.0875
-0.089
-0.09
-0.089
-0.089
-0.092
-0.0915
-0.087
-0.085
-0.0885
-0.092
-0.09
-0.0865
-0.085
-0.089
-0.0925
-0.092
-0.0925
-0.093
-0.0895
-0.0875
-0.092
-0.092
-0.0875
-0.0855
-0.0855
-0.0885
-0.0855
-0.0825
-0.085
-0.0885
-0.09
-0.0945
-0.0995
-0.0995
-0.0945
-0.095
-0.0995
-0.096
-0.094
-0.097
-0.0965
-0.0985
-0.1045
-0.1035
-0.097
-0.0915
-0.0925
-0.097
-0.099
-0.098
-0.0985
-0.1005
-0.101
-0.1
-0.0975
-0.1015
-0.103
-0.1035
-0.1035
-0.1035
-0.1025
-0.098
-0.1045
-0.109
-0.1055
-0.0995
-0.1015
-0.102
-0.097
-0.0955
-0.094
-0.095
-0.0955
-0.0915
-0.087
-0.0945
-0.0915
-0.0925
-0.101
-0.089
-0.0845
-0.0875
-0.0885
-0.0905
-0.0875
-0.096
-0.0995
-0.0915
-0.0935
-0.0975
-0.0965
-0.0955
-0.0965
-0.097
-0.099
-0.103
-0.1015
-0.097
-0.0975
-0.1015
-0.102
-0.099
-0.101
-0.101
-0.101
-0.103
-0.099
-0.0965
-0.0975
-0.099
-0.098
-0.0955
-0.0965
-0.099
-0.0975
-0.096
-0.0985
-0.102
-0.1035
-0.0995
-0.0965
-0.0955
-0.096
-0.1005
-0.0995
-0.1
-0.0995
-0.1005
-0.1055
-0.102
-0.103
-0.1035
-0.1015
-0.099
-0.0945
-0.096
-0.099
-0.1005
-0.095
-0.0935
-0.0955
-0.0955
-0.097
-0.092
-0.0885
-0.091
-0.092
-0.099
-0.1035
-0.1045
-0.1045
-0.099
-0.1005
-0.1035
-0.101
-0.0985
-0.0965
-0.097
-0.101
-0.1
-0.099
-0.1035
-0.1005
-0.099
-0.104
-0.1035
-0.0995
-0.0945
-0.0935
-0.091
-0.0915
-0.09
-0.087
-0.088
-0.0865
-0.087
-0.088
-0.0895
-0.089
-0.084
-0.083
-0.086
-0.0875
-0.0895
-0.0915
-0.087
-0.083
-0.084
-0.085
-0.083
-0.085
-0.0915
-0.0895
-0.086
-0.0855
-0.0815
-0.08
-0.082
-0.0815
-0.08
-0.0825
-0.079
-0.0745
-0.0735
-0.0775
-0.083
-0.0755
-0.074
-0.076
-0.075
-0.0755
-0.076
-0.078
-0.0805
-0.0845
-0.082
-0.0805
-0.085
-0.085
-0.0815
-0.0835
-0.086
-0.0805
-0.077
-0.074
-0.0775
-0.079
-0.0745
-0.08
-0.0805
-0.08
-0.076
-0.0745
-0.0795
-0.0765
-0.076
-0.0745
-0.076
-0.077
-0.074
-0.08
-0.0835
-0.085
-0.0915
-0.096
-0.098
-0.0995
-0.0955
-0.0925
-0.102
-0.1075
-0.1055
-0.1075
-0.104
-0.103
-0.107
-0.112
-0.1185
-0.124
-0.13
-0.1315
-0.134
-0.136
-0.1395
-0.1385
-0.129
-0.1295
-0.1335
-0.133
-0.1325
-0.1355
-0.1335
-0.1285
-0.13
-0.1365
-0.141
-0.1435
-0.1435
-0.1465
-0.151
-0.1525
-0.153
-0.147
-0.149
-0.155
-0.1585
-0.1625
-0.1615
-0.1595
-0.156
-0.1565
-0.154
-0.15
-0.147
-0.1435
-0.1425
-0.1405
-0.146
-0.1525
-0.1535
-0.153
-0.148
-0.1435
-0.141
-0.1455
-0.1525
-0.1515
-0.15
-0.1515
-0.1495
-0.145
-0.1385
-0.1315
-0.1275
-0.1175
-0.105
-0.1055
-0.1115
-0.106
-0.099
-0.0945
-0.0925
-0.094
-0.0895
-0.0895
-0.0885
-0.0925
-0.106
-0.1075
-0.108
-0.107
-0.1065
-0.1035
-0.094
-0.093
-0.092
-0.0915
-0.087
-0.087
-0.0935
-0.0965
-0.0985
-0.0945
-0.0895
-0.0875
-0.0895
-0.088
-0.086
-0.0905
-0.0885
-0.089
-0.0915
-0.0905
-0.0935
-0.0975
-0.0975
-0.098
-0.096
-0.096
-0.099
-0.1005
-0.106
-0.1075
-0.1055
-0.105
-0.1045
-0.1035
-0.104
-0.1095
-0.111
-0.109
-0.109
-0.1085
-0.1075
-0.1075
-0.111
-0.1145
-0.114
-0.116
-0.1205
-0.1205
-0.1185
-0.1125
-0.1125
-0.1155
-0.114
-0.1135
-0.1155
-0.1145
-0.107
-0.109
-0.107
-0.1045
-0.113
-0.116
-0.1205
-0.118
-0.115
-0.1135
-0.111
-0.112
-0.112
-0.1125
-0.1115
-0.119
-0.1295
-0.133
-0.1415
-0.1515
-0.163
-0.1755
-0.178
-0.186
-0.201
-0.2055
-0.206
-0.2015
-0.189
-0.18
-0.1655
-0.1475
-0.134
-0.1185
-0.115
-0.116
-0.1125
-0.1035
-0.093
-0.0965
-0.101
-0.1025
-0.11
-0.128
-0.1655
-0.194
-0.2085
-0.218
-0.2285
-0.243
-0.2275
-0.2065
-0.206
-0.2045
-0.218
-0.248
-0.24
-0.202
-0.1755
-0.1615
-0.144
-0.1255
-0.126
-0.1325
-0.134
-0.137
-0.145
-0.153
-0.1595
-0.1625
-0.1605
-0.156
-0.1475
-0.1335
-0.109
-0.0845
-0.0635
-0.049
-0.0325
-0.013
0.002
0.0275
0.052
0.066
0.078
0.083
0.085
0.0795
0.0685
0.0615
0.0495
0.0265
0.0055
-0.002
-0.007
-0.0125
-0.022
-0.036
-0.043
-0.046
-0.048
-0.051
-0.055
-0.0585
-0.0595
-0.063
-0.068
-0.068
-0.0715
-0.0755
-0.0755
-0.076
-0.079
-0.083
-0.086
-0.0885
-0.092
-0.0955
-0.099
-0.1045
-0.107
-0.106
-0.1065
-0.11
-0.112
-0.115
-0.116
-0.1155
-0.1165
-0.1175
-0.1225
-0.124
-0.125
-0.121
-0.119
-0.1225
-0.1195
-0.1215
-0.1225
-0.1215
-0.1225
-0.123
-0.121
-0.1195
-0.1205
-0.117
-0.118
-0.1195
-0.1175
-0.1185
-0.118
-0.118
-0.121
-0.1185
-0.12
-0.1235
-0.121
-0.122
-0.1235
-0.125
-0.129
-0.131
-0.1305
-0.1325
-0.1335
-0.1275
-0.1285
-0.13
-0.1245
-0.123
-0.124
-0.123
-0.1235
-0.128
-0.1345
-0.134
-0.13
-0.129
-0.129
-0.128
-0.1275
-0.1285
-0.127
-0.125
-0.122
-0.118
-0.117
-0.1185
-0.1215
-0.121
-0.122
-0.124
-0.121
-0.1175
-0.118
-0.1195
-0.115
-0.1125
-0.112
-0.111
-0.108
-0.109
-0.1165
-0.1145
-0.1185
-0.121
-0.1185
-0.1235
-0.123
-0.1235
-0.121
-0.118
-0.1195
-0.1195
-0.1205
-0.118
-0.1185
-0.1225
-0.1275
-0.1275
-0.1245
-0.1265
-0.1265
-0.1235
-0.1195
-0.121
-0.1215
-0.1185
-0.1185
-0.115
-0.1125
-0.112
-0.1125
-0.1115
-0.1065
-0.101
-0.0995
-0.1
-0.1075
-0.111
-0.107
-0.1105
-0.113
-0.112
-0.1115
-0.1105
-0.114
-0.11
-0.1105
-0.116
-0.1145
-0.1135
-0.1105
-0.109
-0.1065
-0.1065
-0.109
-0.11
-0.1125
-0.115
-0.118
-0.12
-0.12
-0.1185
-0.119
-0.1185
-0.1175
-0.1165
-0.115
-0.1175
-0.1215
-0.1215
-0.126
-0.129
-0.128
-0.127
-0.125
-0.125
-0.1305
-0.1345
-0.131
-0.1295
-0.129
-0.131
-0.1325
-0.1305
-0.1295
-0.126
-0.1255
-0.1325
-0.1395
-0.139
-0.141
-0.1455
-0.147
-0.142
-0.1395
-0.1425
-0.144
-0.148
-0.1475
-0.1485
-0.1535
-0.152
-0.1495
-0.1505
-0.1555
-0.156
-0.155
-0.1575
-0.1585
-0.158
-0.1595
-0.1595
-0.1565
-0.155
-0.1535
-0.1525
-0.153
-0.153
-0.1475
-0.145
-0.147
-0.145
-0.1415
-0.138
-0.134
-0.1305
-0.1295
-0.13
-0.1315
-0.1255
-0.1235
-0.127
-0.127
-0.1265
-0.126
-0.1245
-0.125
-0.125
-0.1225
-0.1225
-0.12
-0.1155
-0.115
-0.119
-0.119
-0.115
-0.1115
-0.11
-0.11
-0.1105
-0.1125
-0.1105
-0.1055
-0.104
-0.1025
-0.101
-0.098
-0.0955
-0.093
-0.0895
-0.0905
-0.0915
-0.087
-0.083
-0.0855
-0.082
-0.079
-0.0815
-0.08
-0.081
-0.0845
-0.082
-0.079
-0.0805
-0.0795
-0.0765
-0.077
-0.079
-0.079
-0.0765
-0.076
-0.077
-0.075
-0.0785
-0.0785
-0.0735
-0.0765
-0.0775
-0.078
-0.077
-0.072
-0.074
-0.0785
-0.082
-0.0825
-0.082
-0.08
-0.0775
-0.079
-0.079
-0.08
-0.081
-0.0825
-0.08
-0.0745
-0.0735
-0.0715
-0.0715
-0.0735
-0.078
-0.0825
-0.0815
-0.078
-0.0755
-0.078
-0.0775
-0.076
-0.0765
-0.0765
-0.0755
-0.075
-0.074
-0.0735
-0.0715
-0.068
-0.0675
-0.0705
-0.0705
-0.0695
-0.0715
-0.069
-0.073
-0.075
-0.066
-0.0675
-0.07
-0.07
-0.073
-0.0735
-0.077
-0.0785
-0.0775
-0.078
-0.0755
-0.074
-0.072
-0.0735
-0.081
-0.0805
-0.0775
-0.075
-0.077
-0.0775
-0.0765
-0.077
-0.0755
-0.075
-0.0755
-0.0815
-0.0835
-0.082
-0.082
-0.082
-0.083
-0.0825
-0.081
-0.082
-0.0775
-0.076
-0.08
-0.0735
-0.073
-0.0745
-0.074
-0.073
-0.0715
-0.073
-0.0685
-0.0715
-0.0775
-0.077
-0.0765
-0.076
-0.0765
-0.0775
-0.0785
-0.078
-0.0795
-0.0775
-0.076
-0.074
-0.073
-0.074
-0.0705
-0.071
-0.073
-0.0715
-0.073
-0.073
-0.072
-0.0755
-0.0755
-0.074
-0.077
-0.0795
-0.077
-0.0785
-0.081
-0.079
-0.077
-0.0775
-0.0805
-0.078
-0.074
-0.0745
-0.0805
-0.0825
-0.0795
-0.0815
-0.0825
-0.0825
-0.0845
-0.0855
-0.084
-0.0865
-0.088
-0.0885
-0.092
-0.0925
-0.092
-0.089
-0.091
-0.0975
-0.094
-0.089
-0.088
-0.09
-0.0945
-0.094
-0.092
-0.0925
-0.0925
-0.096
-0.0975
-0.0945
-0.0955
-0.0945
-0.092
-0.095
-0.0965
-0.094
-0.0925
-0.092
-0.0925
-0.09
-0.0885
-0.0905
-0.09
-0.092
-0.0945
-0.092
-0.0905
-0.0965
-0.096
-0.088
-0.09
-0.0965
-0.0985
-0.1
-0.098
-0.0935
-0.092
-0.092
-0.094
-0.0965
-0.0945
-0.0895
-0.087
-0.086
-0.088
-0.089
-0.093
-0.0965
-0.092
-0.087
-0.085
-0.0835
-0.0815
-0.085
-0.0885
-0.0945
-0.0995
-0.099
-0.1015
-0.0995
-0.1
-0.1005
-0.1
-0.102
-0.0995
-0.1015
-0.103
-0.1025
-0.099
-0.098
-0.098
-0.097
-0.098
-0.0975
-0.0975
-0.099
-0.0995
-0.0965
-0.0945
-0.0985
-0.098
-0.093
-0.093
-0.0935
-0.0935
-0.0905
-0.0905
-0.094
-0.096
-0.0955
-0.095
-0.094
-0.095
-0.1
-0.099
-0.096
-0.095
-0.0935
-0.093
-0.091
-0.09
-0.0955
-0.0975
-0.095
-0.0945
-0.0905
-0.092
-0.0955
-0.094
-0.0895
-0.0895
-0.09
-0.0905
-0.0915
-0.0905
-0.091
-0.0915
-0.0915
-0.089
-0.085
-0.0895
-0.092
-0.092
-0.0965
-0.0965
-0.096
-0.0965
-0.097
-0.097
-0.0955
-0.0955
-0.0975
-0.0975
-0.0965
-0.1
-0.104
-0.1065
-0.1055
-0.107
-0.1085
-0.1055
-0.106
-0.106
-0.1055
-0.1035
-0.103
-0.108
-0.106
-0.1025
-0.1055
-0.111
-0.114
-0.111
-0.1095
-0.1085
-0.1075
-0.11
-0.1125
-0.113
-0.117
-0.118
-0.1155
-0.117
-0.116
-0.113
-0.116
-0.1225
-0.1275
-0.1265
-0.1345
-0.141
-0.141
-0.144
-0.142
-0.144
-0.146
-0.1485
-0.1475
-0.1465
-0.153
-0.155
-0.156
-0.1575
-0.1605
-0.1625
-0.1655
-0.1655
-0.1655
-0.163
-0.164
-0.1675
-0.166
-0.1695
-0.1705
-0.173
-0.1785
-0.1825
-0.1895
-0.195
-0.199
-0.194
-0.1905
-0.1945
-0.195
-0.1955
-0.199
-0.199
-0.1945
-0.197
-0.1985
-0.196
-0.1965
-0.1945
-0.2
-0.2025
-0.1935
-0.1925
-0.2005
-0.2005
-0.1915
-0.186
-0.182
-0.1805
-0.18
-0.185
-0.1955
-0.1935
-0.1855
-0.174
-0.1675
-0.1685
-0.1635
-0.156
-0.149
-0.148
-0.149
-0.145
-0.139
-0.138
-0.1425
-0.143
-0.1345
-0.131
-0.134
-0.1395
-0.147
-0.1545
-0.1595
-0.161
-0.1625
-0.16
-0.153
-0.1445
-0.1385
-0.1395
-0.1425
-0.144
-0.1435
-0.1445
-0.145
-0.144
-0.145
-0.142
-0.1375
-0.1335
-0.134
-0.137
-0.1335
-0.134
-0.1355
-0.1325
-0.1295
-0.1275
-0.126
-0.127
-0.126
-0.1245
-0.1245
-0.125
-0.1235
-0.122
-0.123
-0.121
-0.123
-0.123
-0.127
-0.129
-0.126
-0.1265
-0.122
-0.121
-0.123
-0.1245
-0.1255
-0.1225
-0.1225
-0.1245
-0.125
-0.1245
-0.1235
-0.121
-0.12
-0.1215
-0.1235
-0.126
-0.126
-0.127
-0.1265
-0.125
-0.1245
-0.123
-0.122
-0.124
-0.1245
-0.125
-0.126
-0.1215
-0.12
-0.1215
-0.123
-0.1255
-0.129
-0.134
-0.1415
-0.148
-0.1565
-0.1765
-0.191
-0.196
-0.1965
-0.208
-0.219
-0.219
-0.2225
-0.2225
-0.215
-0.195
-0.1745
-0.165
-0.147
-0.1345
-0.136
-0.1335
-0.1355
-0.1275
-0.112
-0.11
-0.115
-0.125
-0.129
-0.1415
-0.1755
-0.2005
-0.2135
-0.215
-0.219
-0.2395
-0.224
-0.1995
-0.197
-0.204
-0.2175
-0.225
-0.213
-0.1745
-0.1515
-0.1375
-0.106
-0.0895
-0.0855
-0.087
-0.0895
-0.0905
-0.105
-0.114
-0.1155
-0.115
-0.109
-0.107
-0.097
-0.0755
-0.06
-0.0465
-0.0285
-0.008
0.0145
0.0315
0.046
0.0695
0.0925
0.102
0.103
0.101
0.0965
0.0895
0.0795
0.068
0.0595
0.044
0.027
0.0165
0.013
0.007
-0.005
-0.0165
-0.026
-0.033
-0.0375
-0.0405
-0.046
-0.0485
-0.051
-0.056
-0.0585
-0.06
-0.062
-0.064
-0.065
-0.0685
-0.0735
-0.079
-0.086
-0.0895
-0.0895
-0.088
-0.0905
-0.092
-0.0915
-0.093
-0.0915
-0.0905
-0.091
-0.0915
-0.0915
-0.09
-0.089
-0.0885
-0.089
-0.088
-0.0875
-0.0915
-0.0955
-0.096
-0.0935
-0.0945
-0.094
-0.0935
-0.097
-0.094
-0.092
-0.092
-0.089
-0.091
-0.0905
-0.0905
-0.091
-0.092
-0.095
-0.0955
-0.0955
-0.097
-0.097
-0.096
-0.093
-0.0925
-0.094
-0.0945
-0.0955
-0.0965
-0.0965
-0.0985
-0.0985
-0.098
-0.101
-0.099
-0.0985
-0.099
-0.0945
-0.0975
-0.103
-0.097
-0.0955
-0.097
-0.0985
-0.1025
-0.1025
-0.101
-0.103
-0.107
-0.108
-0.106
-0.1025
-0.104
-0.1075
-0.107
-0.1065
-0.106
-0.106
-0.1065
-0.106
-0.1065
-0.1035
-0.103
-0.105
-0.107
-0.1075
-0.1035
-0.101
-0.1
-0.1015
-0.1005
-0.096
-0.094
-0.0945
-0.096
-0.0975
-0.0975
-0.0965
-0.0975
-0.096
-0.0945
-0.094
-0.0935
-0.093
-0.096
-0.096
-0.0955
-0.095
-0.0945
-0.095
-0.0925
-0.0985
-0.1
-0.098
-0.1
-0.101
-0.103
-0.103
-0.105
-0.108
-0.1085
-0.1065
-0.1035
-0.106
-0.107
-0.1065
-0.1085
-0.1115
-0.11
-0.111
-0.1105
-0.1085
-0.1135
-0.1145
-0.1115
-0.1105
-0.1135
-0.1155
-0.1205
-0.1205
-0.115
-0.116
-0.1125
-0.1145
-0.1185
-0.1215
-0.1255
-0.1265
-0.1275
-0.126
-0.125
-0.124
-0.1245
-0.129
-0.133
-0.1365
-0.1375
-0.1365
-0.141
-0.1435
-0.143
-0.1465
-0.1465
-0.143
-0.143
-0.1455
-0.1455
-0.144
-0.1405
-0.14
-0.142
-0.1445
-0.1465
-0.1465
-0.15
-0.1505
-0.1495
-0.148
-0.151
-0.1555
-0.1545
-0.1535
-0.154
-0.155
-0.155
-0.156
-0.158
-0.163
-0.1665
-0.168
-0.1695
-0.167
-0.1675
-0.1665
-0.167
-0.168
-0.1695
-0.1765
-0.182
-0.1785
-0.1735
-0.1705
-0.1675
-0.168
-0.1695
-0.1685
-0.1655
-0.164
-0.1615
-0.161
-0.1625
-0.159
-0.1575
-0.157
-0.1525
-0.1495
-0.151
-0.151
-0.1475
-0.148
-0.1495
-0.15
-0.146
-0.1415
-0.14
-0.1385
-0.135
-0.1315
-0.1305
-0.1265
-0.125
-0.1275
-0.13
-0.1285
-0.125
-0.122
-0.119
-0.1165
-0.113
-0.111
-0.1085
-0.108
-0.107
-0.106
-0.1025
-0.0995
-0.1005
-0.101
-0.102
-0.101
-0.098
-0.098
-0.099
-0.0965
-0.094
-0.089
-0.0875
-0.0895
-0.088
-0.094
-0.094
-0.091
-0.0915
-0.092
-0.092
-0.0905
-0.09
-0.0885
-0.0915
-0.0905
-0.089
-0.089
-0.0875
-0.0875
-0.087
-0.088
-0.088
-0.0875
-0.089
-0.091
-0.0905
-0.093
-0.096
-0.094
-0.093
-0.093
-0.0915
-0.091
-0.0875
-0.087
-0.087
-0.0835
-0.0825
-0.0805
-0.0765
-0.0735
-0.0765
-0.0755
-0.074
-0.0745
-0.0725
-0.0725
-0.0725
-0.0755
-0.077
-0.074
-0.0745
-0.075
-0.0765
-0.0795
-0.0795
-0.078
-0.077
-0.0795
-0.0795
-0.077
-0.0765
-0.0735
-0.072
-0.075
-0.077
-0.0755
-0.0745
-0.0745
-0.0715
-0.0715
-0.072
-0.0695
-0.0675
-0.0655
-0.069
-0.0725
-0.07
-0.068
-0.0695
-0.073
-0.073
-0.073
-0.074
-0.074
-0.074
-0.076
-0.076
-0.075
-0.077
-0.0755
-0.0775
-0.081
-0.079
-0.0795
-0.083
-0.0835
-0.08
-0.0805
-0.082
-0.0825
-0.085
-0.0855
-0.0855
-0.084
-0.083
-0.083
-0.0795
-0.0805
-0.0785
-0.075
-0.0805
-0.084
-0.083
-0.08
-0.079
-0.0795
-0.077
-0.0775
-0.0765
-0.0755
-0.0755
-0.074
-0.0745
-0.0755
-0.0745
-0.0745
-0.0755
-0.073
-0.073
-0.0755
-0.0745
-0.0715
-0.073
-0.0715
-0.071
-0.0805
-0.0755
-0.0705
-0.077
-0.0745
-0.069
-0.073
-0.079
-0.0815
-0.082
-0.081
-0.081
-0.08
-0.079
-0.0815
-0.083
-0.082
-0.082
-0.083
-0.0865
-0.087
-0.0845
-0.083
-0.081
-0.078
-0.079
-0.081
-0.0815
-0.0825
-0.0835
-0.084
-0.085
-0.0885
-0.0875
-0.083
-0.0795
-0.084
-0.0875
-0.0855
-0.085
-0.0845
-0.086
-0.086
-0.0875
-0.091
-0.088
-0.086
-0.087
-0.0885
-0.0915
-0.091
-0.0875
-0.088
-0.088
-0.0865
-0.0845
-0.0815
-0.0805
-0.079
-0.079
-0.078
-0.079
-0.0795
-0.077
-0.079
-0.08
-0.0785
-0.077
-0.08
-0.0805
-0.079
-0.082
-0.0795
-0.078
-0.077
-0.078
-0.082
-0.0795
-0.0775
-0.0755
-0.073
-0.0705
-0.0745
-0.08
-0.077
-0.075
-0.0785
-0.08
-0.0805
-0.0815
-0.082
-0.083
-0.0825
-0.0815
-0.0805
-0.0815
-0.0875
-0.0885
-0.0885
-0.0895
-0.087
-0.084
-0.083
-0.085
-0.083
-0.0815
-0.0845
-0.085
-0.0845
-0.0845
-0.084
-0.0835
-0.081
-0.0805
-0.086
-0.087
-0.085
-0.0885
-0.089
-0.088
-0.0865
-0.085
-0.0855
-0.0855
-0.087
-0.0885
-0.0925
-0.0915
-0.0865
-0.091
-0.0945
-0.094
-0.0915
-0.0875
-0.086
-0.0875
-0.0965
-0.1065
-0.1095
-0.1065
-0.105
-0.104
-0.098
-0.0995
-0.104
-0.1035
-0.102
-0.0975
-0.0995
-0.1025
-0.103
-0.102
-0.1
-0.097
-0.0935
-0.0955
-0.096
-0.096
-0.094
-0.09
-0.0915
-0.0925
-0.092
-0.091
-0.09
-0.0915
-0.091
-0.091
-0.093
-0.09
-0.088
-0.087
-0.082
-0.0815
-0.084
-0.0835
-0.083
-0.088
-0.09
-0.087
-0.084
-0.0815
-0.085
-0.0885
-0.089
-0.087
-0.0875
-0.0915
-0.089
-0.0835
-0.087
-0.0945
-0.0925
-0.0865
-0.0885
-0.089
-0.086
-0.089
-0.0885
-0.09
-0.09
-0.087
-0.089
-0.0885
-0.087
-0.0865
-0.086
-0.084
-0.083
-0.086
-0.086
-0.0895
-0.0945
-0.0955
-0.102
-0.1055
-0.105
-0.1075
-0.1075
-0.107
-0.1105
-0.117
-0.1205
-0.122
-0.124
-0.1275
-0.13
-0.128
-0.1275
-0.125
-0.127
-0.132
-0.128
-0.127
-0.128
-0.1295
-0.13
-0.128
-0.126
-0.1265
-0.1315
-0.138
-0.146
-0.1495
-0.1455
-0.143
-0.1425
-0.1445
-0.1475
-0.143
-0.143
-0.1445
-0.1425
-0.1435
-0.1435
-0.1425
-0.1405
-0.141
-0.14
-0.14
-0.143
-0.1435
-0.1485
-0.143
-0.1325
-0.131
-0.133
-0.136
-0.1425
-0.1425
-0.134
-0.131
-0.122
-0.1125
-0.111
-0.109
-0.101
-0.0935
-0.093
-0.0905
-0.0855
-0.0835
-0.084
-0.0825
-0.0815
-0.0795
-0.077
-0.0835
-0.0945
-0.0955
-0.0945
-0.097
-0.1035
-0.11
-0.1005
-0.0885
-0.081
-0.077
-0.079
-0.0735
-0.068
-0.0675
-0.066
-0.0655
-0.065
-0.059
-0.0575
-0.0585
-0.054
-0.054
-0.052
-0.047
-0.044
-0.047
-0.0475
-0.046
-0.0485
-0.0475
-0.052
-0.05
-0.048
-0.052
-0.0515
-0.052
-0.0515
-0.054
-0.051
-0.047
-0.0505
-0.051
-0.0475
-0.0455
-0.0475
-0.047
-0.0475
-0.0485
-0.0475
-0.0505
-0.05
-0.0485
-0.0495
-0.0495
-0.048
-0.046
-0.0485
-0.0475
-0.043
-0.041
-0.042
-0.041
-0.0385
-0.0395
-0.044
-0.0455
-0.044
-0.0495
-0.0495
-0.044
-0.0465
-0.049
-0.05
-0.0475
-0.0465
-0.046
-0.0455
-0.0465
-0.046
-0.0505
-0.066
-0.082
-0.0935
-0.1095
-0.123
-0.1255
-0.128
-0.1375
-0.143
-0.1495
-0.1535
-0.1455
-0.1315
-0.112
-0.096
-0.0845
-0.07
-0.0615
-0.0595
-0.0565
-0.0555
-0.043
-0.0295
-0.033
-0.0395
-0.0475
-0.0525
-0.0695
-0.104
-0.1295
-0.1435
-0.1405
-0.155
-0.1645
-0.139
-0.1245
-0.122
-0.137
-0.151
-0.1485
-0.122
-0.085
-0.0745
-0.0585
-0.0295
-0.02
-0.0235
-0.028
-0.025
-0.0295
-0.041
-0.039
-0.0395
-0.0395
-0.0385
-0.0415
-0.0265
-0.003
0.0165
0.033
0.051
0.0735
0.095
0.1145
0.1315
0.153
0.1685
0.174
0.18
0.178
0.1725
0.164
0.1545
0.1435
0.1285
0.117
0.102
0.093
0.0895
0.0805
0.071
0.0645
0.0585
0.0535
0.0475
0.044
0.0385
0.033
0.0315
0.03
0.0245
0.024
0.0275
0.026
0.023
0.018
0.014
0.01
0.006
0.0005
-0.0055
-0.002
-0.0025
-0.0045
-0.007
-0.0065
-0.0035
-0.004
-0.0045
-0.0045
-0.005
-0.0075
-0.008
-0.0075
-0.006
-0.0065
-0.011
-0.011
-0.009
-0.012
-0.016
-0.0165
-0.0185
-0.0205
-0.02
-0.0175
-0.0185
-0.0205
-0.022
-0.0255
-0.0255
-0.0265
-0.0255
-0.021
-0.019
-0.023
-0.029
-0.0275
-0.0285
-0.032
-0.031
-0.0325
-0.03
-0.0315
-0.038
-0.039
-0.038
-0.0345
-0.034
-0.033
-0.0335
-0.036
-0.037
-0.04
-0.039
-0.0385
-0.041
-0.0385
-0.0355
-0.037
-0.0405
-0.0405
-0.0365
-0.0355
-0.036
-0.0405
-0.0425
-0.0425
-0.045
-0.0445
-0.0405
-0.0385
-0.04
-0.0405
-0.0385
-0.0395
-0.041
-0.043
-0.0425
-0.038
-0.038
-0.0395
-0.039
-0.04
-0.042
-0.0425
-0.0415
-0.0375
-0.0365
-0.041
-0.0385
-0.035
-0.034
-0.0355
-0.0365
-0.0345
-0.0445
-0.048
-0.044
-0.0445
-0.044
-0.0445
-0.0435
-0.0435
-0.047
-0.0485
-0.047
-0.047
-0.048
-0.047
-0.0465
-0.0485
-0.049
-0.047
-0.049
-0.055
-0.0585
-0.0585
-0.059
-0.0595
-0.06
-0.06
-0.061
-0.057
-0.054
-0.06
-0.06
-0.0585
-0.062
-0.0625
-0.064
-0.0605
-0.0605
-0.065
-0.065
-0.0655
-0.064
-0.062
-0.066
-0.066
-0.064
-0.067
-0.0685
-0.0705
-0.0705
-0.0705
-0.07
-0.066
-0.0665
-0.065
-0.0655
-0.069
-0.0725
-0.076
-0.079
-0.081
-0.0805
-0.0805
-0.0795
-0.08
-0.0835
-0.0885
-0.0895
-0.0865
-0.0865
-0.0875
-0.0875
-0.088
-0.0895
-0.0875
-0.088
-0.0905
-0.092
-0.0945
-0.0945
-0.097
-0.099
-0.0985
-0.1
-0.1025
-0.103
-0.103
-0.1075
-0.114
-0.114
-0.109
-0.11
-0.114
-0.117
-0.118
-0.1145
-0.1125
-0.113
-0.1115
-0.1095
-0.1065
-0.105
-0.104
-0.102
-0.1055
-0.1045
-0.105
-0.1065
-0.1035
-0.1035
-0.1055
-0.107
-0.1065
-0.107
-0.1065
-0.105
-0.103
-0.101
-0.097
-0.0975
-0.0955
-0.094
-0.0945
-0.0935
-0.0985
-0.1005
-0.0985
-0.098
-0.099
-0.093
-0.09
-0.0965
-0.097
-0.093
-0.0895
-0.0865
-0.086
-0.085
-0.0845
-0.083
-0.079
-0.08
-0.0815
-0.0775
-0.073
-0.0705
-0.071
-0.067
-0.0655
-0.065
-0.061
-0.0645
-0.065
-0.063
-0.061
-0.059
-0.0575
-0.0545
-0.0535
-0.0525
-0.0545
-0.0565
-0.06
-0.065
-0.0655
-0.064
-0.066
-0.0645
-0.0605
-0.058
-0.0585
-0.063
-0.0625
-0.065
-0.066
-0.0625
-0.0615
-0.064
-0.0625
-0.06
-0.0605
-0.0615
-0.0635
-0.0665
-0.0665
-0.0655
-0.0635
-0.0625
-0.064
-0.061
-0.0605
-0.06
-0.057
-0.0565
-0.0585
-0.065
-0.067
-0.0665
-0.066
-0.0625
-0.061
-0.063
-0.066
-0.0645
-0.066
-0.0625
-0.0585
-0.0615
-0.062
-0.0625
-0.063
-0.061
-0.058
-0.0555
-0.051
-0.0495
-0.051
-0.0555
-0.061
-0.0615
-0.059
-0.054
-0.0515
-0.0545
-0.055
-0.054
-0.0555
-0.0525
-0.0515
-0.0555
-0.054
-0.049
-0.0455
-0.043
-0.0415
-0.039
-0.0395
-0.041
-0.04
-0.039
-0.036
-0.033
-0.0355
-0.0355
-0.0355
-0.0385
-0.041
-0.043
-0.044
-0.0445
-0.044
-0.043
-0.044
-0.0425
-0.047
-0.05
-0.045
-0.05
-0.054
-0.0525
-0.0485
-0.048
-0.047
-0.0445
-0.0475
-0.0475
-0.0465
-0.047
-0.046
-0.0445
-0.045
-0.044
-0.044
-0.0465
-0.0475
-0.047
-0.048
-0.051
-0.054
-0.054
-0.052
-0.0535
-0.0545
-0.0525
-0.053
-0.053
-0.053
-0.0555
-0.0535
-0.052
-0.0485
-0.046
-0.0455
-0.0505
-0.058
-0.0545
-0.0525
-0.053
-0.049
-0.0515
-0.0525
-0.05
-0.0485
-0.0545
-0.0565
-0.052
-0.0545
-0.056
-0.056
-0.0555
-0.0535
-0.0555
-0.0515
-0.0495
-0.0515
-0.051
-0.05
-0.049
-0.0485
-0.05
-0.05
-0.0505
-0.0505
-0.051
-0.0545
-0.0545
-0.052
-0.0515
-0.057
-0.062
-0.0595
-0.0605
-0.0635
-0.058
-0.0525
-0.055
-0.0565
-0.054
-0.055
-0.0585
-0.0605
-0.06
-0.059
-0.0595
-0.0595
-0.064
-0.069
-0.065
-0.062
-0.059
-0.057
-0.061
-0.062
-0.0615
-0.0605
-0.061
-0.064
-0.0645
-0.064
-0.0625
-0.064
-0.0655
-0.0635
-0.0615
-0.062
-0.061
-0.055
-0.0515
-0.0505
-0.0515
-0.0535
-0.059
-0.062
-0.058
-0.0555
-0.0535
-0.0535
-0.0565
-0.058
-0.058
-0.057
-0.0595
-0.0595
-0.0575
-0.055
-0.0575
-0.061
-0.0585
-0.056
-0.051
-0.05
-0.053
-0.052
-0.0485
-0.0555
-0.0615
-0.056
-0.052
-0.052
-0.0585
-0.0585
-0.055
-0.058
-0.059
-0.059
-0.0575
-0.057
-0.0565
-0.056
-0.056
-0.055
-0.054
-0.053
-0.0525
-0.049
-0.044
-0.044
-0.042
-0.0405
-0.046
-0.05
-0.05
-0.0475
-0.047
-0.047
-0.044
-0.042
-0.045
-0.0455
-0.0425
-0.043
-0.0475
-0.051
-0.052
-0.047
-0.0425
-0.0435
-0.046
-0.046
-0.0425
-0.0425
-0.04
-0.043
-0.0515
-0.051
-0.046
-0.045
-0.044
-0.0425
-0.0415
-0.037
-0.0345
-0.034
-0.035
-0.0335
-0.0355
-0.038
-0.0395
-0.04
-0.0375
-0.039
-0.0355
-0.0355
-0.0355
-0.033
-0.034
-0.035
-0.038
-0.0375
-0.035
-0.0325
-0.0335
-0.035
-0.0345
-0.0335
-0.0335
-0.0355
-0.037
-0.0365
-0.0405
-0.0465
-0.0465
-0.046
-0.042
-0.042
-0.043
-0.043
-0.046
-0.0425
-0.04
-0.039
-0.042
-0.047
-0.0465
-0.042
-0.039
-0.038
-0.036
-0.0365
-0.039
-0.044
-0.042
-0.0415
-0.0445
-0.0455
-0.044
-0.0445
-0.0465
-0.046
-0.0465
-0.0445
-0.043
-0.0435
-0.0445
-0.041
-0.0385
-0.0385
-0.04
-0.045
-0.047
-0.046
-0.0435
-0.044
-0.0435
-0.0415
-0.047
-0.052
-0.0545
-0.0525
-0.0475
-0.0485
-0.0485
-0.0485
-0.0465
-0.05
-0.0535
-0.052
-0.0515
-0.05
-0.0515
-0.05
-0.0475
-0.049
-0.046
-0.0485
-0.051
-0.053
-0.0525
-0.0495
-0.0515
-0.0525
-0.054
-0.053
-0.053
-0.056
-0.055
-0.0535
-0.053
-0.0545
-0.058
-0.06
-0.059
-0.06
-0.064
-0.068
-0.064
-0.06
-0.061
-0.062
-0.0665
-0.066
-0.063
-0.0605
-0.057
-0.054
-0.055
-0.054
-0.0525
-0.056
-0.0555
-0.056
-0.057
-0.057
-0.0545
-0.0525
-0.0485
-0.043
-0.0465
-0.047
-0.048
-0.051
-0.053
-0.052
-0.0475
-0.0465
-0.047
-0.0505
-0.057
-0.0675
-0.0725
-0.071
-0.073
-0.0745
-0.0745
-0.0835
-0.089
-0.084
-0.0855
-0.09
-0.095
-0.0975
-0.095
-0.095
-0.096
-0.097
-0.0985
-0.101
-0.102
-0.101
-0.102
-0.1045
-0.108
-0.1135
-0.1165
-0.1185
-0.121
-0.122
-0.1235
-0.123
-0.119
-0.115
-0.1165
-0.12
-0.123
-0.124
-0.119
-0.111
-0.1065
-0.108
-0.107
-0.105
-0.1005
-0.099
-0.1015
-0.1
-0.099
-0.0985
-0.096
-0.086
-0.079
-0.08
-0.078
-0.078
-0.0795
-0.082
-0.083
-0.0795
-0.075
-0.068
-0.063
-0.053
-0.0435
-0.04
-0.0365
-0.0375
-0.0325
-0.031
-0.034
-0.0365
-0.0325
-0.021
-0.0215
-0.0275
-0.0375
-0.042
-0.0415
-0.045
-0.0445
-0.046
-0.046
-0.0455
-0.0415
-0.0295
-0.0315
-0.034
-0.029
-0.0305
-0.0315
-0.0295
-0.025
-0.024
-0.0265
-0.0235
-0.022
-0.026
-0.024
-0.0235
-0.0245
-0.0205
-0.0145
-0.013
-0.014
-0.016
-0.0195
-0.019
-0.0185
-0.019
-0.02
-0.021
-0.023
-0.0245
-0.026
-0.026
-0.027
-0.033
-0.033
-0.028
-0.0225
-0.021
-0.0235
-0.023
-0.019
-0.0165
-0.024
-0.027
-0.0205
-0.0175
-0.0185
-0.0205
-0.0215
-0.021
-0.0255
-0.0315
-0.0305
-0.027
-0.0275
-0.027
-0.027
-0.0305
-0.0285
-0.025
-0.0255
-0.0275
-0.0275
-0.0275
-0.031
-0.0325
-0.032
-0.0325
-0.033
-0.0315
-0.0365
-0.0435
-0.05
-0.062
-0.075
-0.086
-0.0975
-0.1075
-0.109
-0.121
-0.132
-0.1345
-0.1345
-0.13
-0.1195
-0.101
-0.0855
-0.0735
-0.057
-0.042
-0.0405
-0.036
-0.037
-0.034
-0.0245
-0.0255
-0.0305
-0.0445
-0.047
-0.0595
-0.0985
-0.124
-0.1375
-0.1385
-0.144
-0.161
-0.143
-0.12
-0.1185
-0.132
-0.1415
-0.14
-0.129
-0.09
-0.0725
-0.0665
-0.0385
-0.025
-0.025
-0.0345
-0.034
-0.0365
-0.052
-0.051
-0.0455
-0.0455
-0.0465
-0.049
-0.0395
-0.019
-0.002
0.0155
0.0365
0.059
0.077
0.093
0.113
0.1345
0.151
0.1615
0.1675
0.1655
0.1635
0.1535
0.141
0.133
0.118
0.1035
0.09
0.082
0.074
0.064
0.059
0.054
0.0495
0.0425
0.0365
0.0335
0.0315
0.029
0.0285
0.027
0.0245
0.0225
0.018
0.0135
0.0105
0.012
0.009
0.0025
-0.004
-0.0115
-0.0155
-0.0145
-0.016
-0.0155
-0.0145
-0.0185
-0.021
-0.027
-0.0265
-0.0265
-0.0315
-0.034
-0.0285
-0.0295
-0.0375
-0.038
-0.037
-0.0325
-0.03
-0.0325
-0.0355
-0.035
-0.035
-0.0335
-0.035
-0.038
-0.0355
-0.0375
-0.036
-0.0355
-0.0355
-0.032
-0.0355
-0.0395
-0.039
-0.036
-0.0345
-0.032
-0.032
-0.034
-0.038
-0.044
-0.0405
-0.0395
-0.0395
-0.0345
-0.0335
-0.032
-0.0275
-0.026
-0.024
-0.02
-0.022
-0.0285
-0.0325
-0.0305
-0.03
-0.0285
-0.0265
-0.027
-0.027
-0.0245
-0.0235
-0.0195
-0.017
-0.025
-0.0275
-0.0245
-0.0195
-0.019
-0.0185
-0.014
-0.017
-0.0175
-0.0155
-0.0135
-0.012
-0.0135
-0.0135
-0.015
-0.0185
-0.0195
-0.0195
-0.0165
-0.0155
-0.02
-0.021
-0.02
-0.02
-0.021
-0.0215
-0.023
-0.026
-0.0265
-0.0255
-0.0235
-0.023
-0.0235
-0.0255
-0.027
-0.026
-0.026
-0.03
-0.0315
-0.027
-0.025
-0.0245
-0.0265
-0.025
-0.0235
-0.0235
-0.024
-0.0265
-0.0265
-0.024
-0.023
-0.023
-0.026
-0.027
-0.029
-0.032
-0.032
-0.0335
-0.0305
-0.0295
-0.0345
-0.0375
-0.0375
-0.0355
-0.039
-0.043
-0.043
-0.043
-0.0425
-0.041
-0.0415
-0.0425
-0.043
-0.0415
-0.041
-0.0435
-0.0395
-0.0405
-0.043
-0.04
-0.0415
-0.037
-0.0385
-0.0425
-0.0455
-0.0455
-0.0375
-0.0375
-0.041
-0.0405
-0.0435
-0.047
-0.0455
-0.0465
-0.054
-0.0515
-0.046
-0.048
-0.0445
-0.0435
-0.0435
-0.0475
-0.05
-0.046
-0.05
-0.0535
-0.055
-0.0565
-0.0535
-0.062
-0.0695
-0.068
-0.0655
-0.0625
-0.065
-0.0695
-0.073
-0.074
-0.078
-0.08
-0.08
-0.085
-0.0835
-0.083
-0.085
-0.0835
-0.0835
-0.0855
-0.0835
-0.083
-0.0825
-0.077
-0.0755
-0.077
-0.0765
-0.0735
-0.07
-0.07
-0.0775
-0.0775
-0.074
-0.0755
-0.078
-0.079
-0.075
-0.072
-0.071
-0.0745
-0.075
-0.0725
-0.0695
-0.068
-0.0665
-0.0635
-0.0605
-0.059
-0.0555
-0.051
-0.0515
-0.051
-0.046
-0.042
-0.0395
-0.033
-0.0285
-0.029
-0.028
-0.026
-0.029
-0.029
-0.026
-0.0255
-0.026
-0.0235
-0.0235
-0.0255
-0.0205
-0.016
-0.0135
-0.006
-0.0015
-0.002
-0.0035
-0.002
-0.001
0.0005
-0.0005
0.0
0.004
0.0045
0.0065
0.006
0.006
0.006
0.005
0.0075
0.0065
0.0025
0.003
0.0065
0.0095
0.008
0.007
0.0075
0.009
0.012
0.0095
0.008
0.0085
0.007
0.003
-0.0005
0.0025
0.002
0.0025
0.006
0.0045
0.0025
0.001
0.0035
0.0075
0.007
0.0015
-0.0025
-0.0055
-0.008
-0.0055
-0.0075
-0.007
-0.007
-0.0105
-0.012
-0.0105
-0.0085
-0.0095
-0.0095
-0.0135
-0.015
-0.0135
-0.016
-0.015
-0.0135
-0.013
-0.0085
-0.0065
-0.006
-0.0065
-0.0125
-0.016
-0.015
-0.014
-0.0135
-0.012
-0.0065
-0.0085
-0.0095
-0.007
-0.0105
-0.009
-0.006
-0.0085
-0.0135
-0.0175
-0.0155
-0.0155
-0.019
-0.021
-0.0195
-0.016
-0.015
-0.02
-0.021
-0.0155
-0.0175
-0.02
-0.017
-0.014
-0.013
-0.019
-0.0195
-0.019
-0.0195
-0.0135
-0.008
-0.01
-0.0115
-0.005
-0.0045
-0.0065
-0.006
-0.0045
-0.004
-0.0075
-0.007
-0.009
-0.009
-0.005
-0.006
-0.0025
0.0
-0.004
-0.003
0.0005
0.0
-0.001
0.0015
0.003
-0.0005
0.0
0.002
-0.0025
-0.002
0.0025
0.0055
0.0045
0.001
0.0045
0.005
0.0045
0.014
0.0195
0.0215
0.0235
0.022
0.0145
0.0085
0.0105
0.0095
0.0095
0.014
0.0125
0.0115
0.012
0.014
0.0145
0.012
0.014
0.0205
0.019
0.0175
0.0165
0.0165
0.022
0.0205
0.017
0.014
0.014
0.0165
0.0155
0.014
0.012
0.0105
0.0165
0.023
0.0175
0.012
0.012
0.0135
0.0125
0.0115
0.0125
0.0115
0.0065
0.004
0.008
0.0105
0.0125
0.012
0.0125
0.009
0.006
0.008
0.007
0.0075
0.0065
0.007
0.004
0.0005
0.006
0.008
0.0075
0.01
0.01
0.0125
0.0125
0.012
0.015
0.018
0.0185
0.0205
0.02
0.0135
0.012
0.0125
0.014
0.0185
0.017
0.017
0.0165
0.0095
0.012
0.0155
0.017
0.018
0.0185
0.017
0.013
0.012
0.017
0.019
0.018
0.0175
0.013
0.011
0.012
0.014
0.0165
0.019
0.0145
0.0115
0.02
0.019
0.013
0.0145
0.0145
0.015
0.016
0.019
0.0215
0.0175
0.0135
0.0145
0.0145
0.0105
0.0115
0.0115
0.013
0.0165
0.019
0.0215
0.022
0.0235
0.0185
0.0185
0.0215
0.018
0.0115
0.009
0.015
0.016
0.0135
0.0125
0.0105
0.0075
0.01
0.015
0.0045
-0.0015
0.002
0.0025
0.0075
0.008
0.006
0.006
0.0035
0.002
-0.0005
-0.0005
0.004
0.0075
0.0085
0.009
0.0115
0.01
0.0075
0.0065
0.0055
0.0075
0.01
0.013
0.009
0.0045
0.003
0.0065
0.009
0.008
0.0105
0.0085
0.01
0.009
0.0125
0.016
0.0095
0.0105
0.016
0.016
0.0155
0.015
0.0145
0.017
0.0135
0.007
0.004
0.0035
0.004
0.005
0.0065
0.008
0.006
0.006
0.008
0.0055
0.001
0.004
0.0125
0.01
0.0075
0.008
0.01
0.0125
0.0075
0.0035
0.007
0.0105
0.012
0.0125
0.0105
0.0065
0.008
0.0075
0.006
0.008
0.0115
0.014
0.014
0.0165
0.0135
0.0065
0.0045
0.0115
0.0155
0.014
0.0125
0.0105
0.012
0.0125
0.016
0.0165
0.016
0.016
0.013
0.01
0.007
0.0095
0.0085
0.009
0.009
0.007
0.011
0.01
0.012
0.0155
0.015
0.0175
0.0205
0.016
0.0135
0.0085
0.0
0.002
0.009
0.009
0.0075
0.0085
0.0085
0.0105
0.012
0.014
0.014
0.013
0.0145
0.0165
0.0135
0.0105
0.009
0.006
0.0055
0.0035
0.003
0.0005
-0.004
-0.006
-0.0125
-0.0155
-0.0165
-0.0155
-0.0135
-0.018
-0.02
-0.022
-0.025
-0.03
-0.035
-0.034
-0.0345
-0.0345
-0.0335
-0.0335
-0.0325
-0.0335
-0.034
-0.0335
-0.0325
-0.034
-0.036
-0.038
-0.0425
-0.0485
-0.054
-0.0535
-0.0535
-0.055
-0.05
-0.049
-0.051
-0.058
-0.065
-0.0655
-0.065
-0.0575
-0.053
-0.051
-0.049
-0.0485
-0.0475
-0.05
-0.0535
-0.052
-0.0465
-0.0475
-0.0485
-0.043
-0.0405
-0.0415
-0.045
-0.0485
-0.046
-0.0475
-0.049
-0.045
-0.0395
-0.0335
-0.0325
-0.0235
-0.0085
0.0
0.0025
0.002
0.0065
0.0095
0.0005
-0.002
0.011
0.0175
0.0145
0.0115
0.008
0.002
-0.0005
-0.003
-0.009
-0.0005
0.008
0.0105
0.017
0.0195
0.023
0.0255
0.027
0.027
0.0265
0.0305
0.0345
0.0335
0.03
0.0295
0.034
0.036
0.031
0.0295
0.029
0.0335
0.0375
0.0325
0.0335
0.036
0.0345
0.0345
0.034
0.032
0.0315
0.032
0.0315
0.0305
0.03
0.0225
0.0205
0.025
0.027
0.0285
0.0245
0.0275
0.0295
0.0265
0.0255
0.026
0.028
0.0285
0.028
0.0275
0.03
0.035
0.037
0.0365
0.038
0.039
0.039
0.0395
0.0405
0.042
0.038
0.0335
0.034
0.034
0.035
0.0325
0.034
0.0385
0.0405
0.037
0.031
0.033
0.0305
0.0245
0.0185
0.014
0.018
0.016
0.0025
-0.009
-0.0195
-0.0275
-0.032
-0.0405
-0.052
-0.0605
-0.058
-0.0555
-0.053
-0.0385
-0.0265
-0.014
0.0015
0.0175
0.0255
0.0235
0.022
0.0245
0.036
0.0395
0.036
0.036
0.033
0.0245
-0.0085
-0.0415
-0.06
-0.066
-0.0615
-0.083
-0.08
-0.0525
-0.043
-0.04
-0.048
-0.0745
-0.086
-0.052
-0.022
-0.012
0.003
0.02
0.0305
0.0295
0.0225
0.02
0.0105
0.003
0.003
-0.0025
-0.003
0.0045
0.0145
0.023
0.043
0.067
0.0885
0.1035
0.1175
0.1395
0.157
0.184
0.2105
0.2275
0.2335
0.235
0.2395
0.239
0.2255
0.2075
0.1975
0.187
0.1765
0.1605
0.1485
0.141
0.1315
0.1265
0.1115
0.102
0.095
0.0885
0.0915
0.0895
0.086
0.0825
0.0835
0.0845
0.0835
0.0845
0.0835
0.0805
0.074
0.069
0.067
0.065
0.063
0.061
0.0625
0.063
0.0555
0.0505
0.044
0.0415
0.042
0.0395
0.041
0.0395
0.039
0.0355
0.032
0.0335
0.0345
0.0335
0.026
0.0245
0.0285
0.0275
0.0255
0.0275
0.0285
0.031
0.033
0.03
0.025
0.023
0.0305
0.03
0.0285
0.0325
0.028
0.024
0.027
0.0295
0.0295
0.0295
0.0315
0.034
0.031
0.026
0.028
0.0285
0.023
0.0185
0.018
0.022
0.024
0.0175
0.015
0.021
0.027
0.025
0.0245
0.0225
0.0155
0.013
0.013
0.017
0.025
0.0285
0.0285
0.0255
0.026
0.028
0.026
0.028
0.0295
0.027
0.0305
0.035
0.035
0.036
0.037
0.0325
0.03
0.0345
0.035
0.0315
0.03
0.033
0.033
0.0335
0.036
0.0355
0.0345
0.032
0.029
0.0305
0.032
0.0335
0.0295
0.0275
0.029
0.0245
0.024
0.023
0.026
0.027
0.026
0.0255
0.0255
0.029
0.0255
0.0225
0.0255
0.025
0.021
0.0205
0.0245
0.024
0.0165
0.0105
0.0125
0.0125
0.007
0.008
0.0135
0.0185
0.0175
0.0125
0.011
0.013
0.0145
0.014
0.012
0.0075
0.006
0.013
0.0215
0.018
0.0145
0.0135
0.011
0.0105
0.0055
0.0075
0.0125
0.01
0.0095
0.0065
0.0075
0.012
0.0115
0.0085
0.0095
0.011
0.011
0.01
0.0055
0.004
0.0035
0.0015
0.001
0.004
0.006
0.0025
0.0025
0.0065
0.0075
0.003
0.0005
-0.001
-0.0035
-0.0035
-0.0025
-0.0045
-0.0065
-0.004
-0.003
-0.004
-0.004
-0.0055
-0.008
-0.0095
-0.011
-0.013
-0.0135
-0.0155
-0.02
-0.018
-0.0195
-0.024
-0.0245
-0.024
-0.026
-0.0275
-0.0255
-0.0265
-0.026
-0.026
-0.0265
-0.027
-0.029
-0.032
-0.032
-0.0285
-0.029
-0.029
-0.029
-0.0305
-0.029
-0.0255
-0.0235
-0.022
-0.02
-0.0165
-0.015
-0.015
-0.0145
-0.0155
-0.0165
-0.016
-0.0115
-0.009
-0.0045
-0.0015
-0.0005
0.0035
0.006
0.007
0.003
0.0055
0.011
0.012
0.0175
0.021
0.023
0.023
0.0195
0.0125
0.016
0.024
0.022
0.021
0.0205
0.0225
0.0265
0.026
0.029
0.028
0.0205
0.021
0.0235
0.025
0.0275
0.0305
0.033
0.0335
0.0335
0.034
0.0335
0.0315
0.034
0.03
0.0255
0.026
0.0235
0.027
0.026
0.024
0.023
0.022
0.0275
0.0305
0.033
0.037
0.0365
0.035
0.0285
0.0245
0.0315
0.0355
0.0355
0.035
0.036
0.0355
0.034
0.034
0.035
0.035
0.0385
0.0405
0.036
0.0375
0.036
0.0335
0.0355
0.0345
0.0335
0.0365
0.0365
0.03
0.033
0.0365
0.036
0.039
0.0375
0.0375
0.0405
0.0405
0.038
0.042
0.0465
0.0445
0.0465
0.048
0.0475
0.0495
0.051
0.049
0.0485
0.0495
0.05
0.05
0.0505
0.052
0.049
0.0475
0.047
0.0465
0.0485
0.0485
0.0475
0.0465
0.0465
0.0495
0.0535
0.053
0.0505
0.051
0.056
0.0565
0.055
0.0555
0.053
0.0525
0.054
0.052
0.049
0.051
0.055
0.0565
0.055
0.0545
0.057
0.0625
0.0605
0.06
0.064
0.062
0.0675
0.07
0.0655
0.063
0.062
0.065
0.0665
0.069
0.0705
0.069
0.0685
0.065
0.0635
0.0615
0.058
0.0605
0.061
0.0605
0.064
0.062
0.0595
0.0575
0.0525
0.05
0.0485
0.051
0.046
0.0465
0.052
0.0525
0.0505
0.048
0.0495
0.049
0.0495
0.048
0.047
0.0455
0.0455
0.044
0.043
0.045
0.0445
0.0435
0.0435
0.0455
0.0465
0.044
0.044
0.0435
0.0425
0.0425
0.0435
0.0435
0.043
0.0465
0.0465
0.045
0.0465
0.0445
0.046
0.0485
0.0405
0.0355
0.0395
0.039
0.0355
0.034
0.035
0.0365
0.0355
0.0325
0.032
0.035
0.036
0.039
0.041
0.04
0.039
0.038
0.036
0.0385
0.04
0.04
0.045
0.0475
0.046
0.042
0.0425
0.046
0.0465
0.0475
0.0465
0.0465
0.044
0.044
0.0465
0.045
0.046
0.0465
0.0455
0.044
0.043
0.042
0.0385
0.0385
0.0405
0.0435
0.0405
0.036
0.034
0.032
0.035
0.0395
0.0385
0.0355
0.032
0.037
0.038
0.0315
0.0335
0.038
0.0415
0.0445
0.0425
0.0415
0.0415
0.0405
0.0435
0.045
0.0455
0.0465
0.0445
0.0465
0.0455
0.0435
0.0445
0.0405
0.037
0.0375
0.036
0.037
0.0385
0.041
0.041
0.0345
0.034
0.0325
0.031
0.0345
0.038
0.039
0.0415
0.043
0.041
0.042
0.041
0.042
0.0415
0.0415
0.0465
0.0475
0.0505
0.0525
0.0535
0.0555
0.0515
0.0475
0.0465
0.048
0.048
0.051
0.0555
0.055
0.058
0.0605
0.06
0.058
0.063
0.0685
0.0635
0.065
0.07
0.071
0.0685
0.066
0.0655
0.0635
0.06
0.059
0.061
0.0655
0.066
0.0645
0.0645
0.0645
0.0675
0.0655
0.061
0.057
0.0575
0.0585
0.056
0.057
0.0555
0.0545
0.055
0.058
0.061
0.0635
0.066
0.0655
0.067
0.065
0.059
0.0565
0.0505
0.0415
0.0485
0.06
0.0565
0.0535
0.053
0.0535
0.056
0.0545
0.052
0.053
0.054
0.053
0.05
0.0495
0.048
0.045
0.05
0.0515
0.0495
0.0465
0.046
0.0455
0.047
0.0505
0.0505
0.051
0.0485
0.049
0.049
0.05
0.0485
0.0465
0.052
0.053
0.055
0.0595
0.062
0.0595
0.0555
0.054
0.0545
0.0565
0.058
0.0585
0.057
0.053
0.047
0.0425
0.037
0.035
0.0355
0.034
0.032
0.029
0.024
0.016
0.015
0.013
0.0065
0.006
0.0075
0.009
0.0115
0.0135
0.013
0.0155
0.0155
0.0185
0.017
0.01
0.005
-0.0005
-0.001
-0.0045
-0.012
-0.0175
-0.0195
-0.0205
-0.017
-0.015
-0.0175
-0.015
-0.0165
-0.0235
-0.023
-0.016
-0.0145
-0.017
-0.0165
-0.013
-0.0115
-0.009
-0.0095
-0.0125
-0.0135
-0.0115
-0.007
-0.0015
0.0055
0.005
-0.0015
-0.005
-0.007
-0.0085
-0.0085
-0.007
-0.001
0.0055
0.0075
0.0145
0.024
0.025
0.026
0.0325
0.037
0.04
0.041
0.0425
0.049
0.0585
0.059
0.0495
0.0415
0.0345
0.029
0.0245
0.0255
0.033
0.0375
0.0465
0.0575
0.0625
0.059
0.054
0.0565
0.0545
0.0535
0.055
0.057
0.06
0.064
0.0695
0.0725
0.0785
0.0805
0.0795
0.077
0.0755
0.076
0.0745
0.076
0.076
0.076
0.0745
0.07
0.069
0.0775
0.0815
0.0705
0.068
0.0705
0.068
0.0685
0.068
0.0675
0.067
0.0675
0.068
0.0675
0.066
0.065
0.067
0.065
0.0615
0.0605
0.059
0.062
0.0635
0.0585
0.057
0.0595
0.0615
0.062
0.0615
0.0635
0.064
0.0625
0.0635
0.068
0.072
0.0705
0.068
0.0665
0.068
0.072
0.072
0.07
0.0685
0.068
0.0665
0.0615
0.058
0.0515
0.0415
0.0335
0.0205
0.004
-0.013
-0.024
-0.029
-0.0415
-0.048
-0.049
-0.0515
-0.048
-0.0295
-0.011
0.001
0.0175
0.0365
0.0455
0.044
0.047
0.05
0.0655
0.0735
0.065
0.055
0.045
0.0395
0.008
-0.0275
-0.0455
-0.0555
-0.05
-0.0655
-0.0715
-0.0415
-0.028
-0.03
-0.0415
-0.051
-0.0495
-0.025
0.0115
0.0255
0.044
0.0675
0.0745
0.074
0.072
0.0765
0.0725
0.0595
0.0515
0.044
0.046
0.0535
0.059
0.0725
0.091
0.109
0.125
0.1395
0.157
0.179
0.1945
0.2095
0.233
0.2525
0.264
0.266
0.265
0.2605
0.249
0.235
0.219
0.206
0.191
0.181
0.173
0.165
0.158
0.148
0.141
0.1355
0.1315
0.1295
0.126
0.1195
0.113
0.112
0.11
0.1105
0.11
0.1055
0.1045
0.099
0.095
0.093
0.092
0.0895
0.0795
0.0785
0.079
0.076
0.0795
0.0805
0.0795
0.0785
0.075
0.0765
0.08
0.079
0.076
0.0755
0.0745
0.072
0.0685
0.0665
0.066
0.067
0.0685
0.071
0.0725
0.071
0.0705
0.07
0.07
0.07
0.0715
0.071
0.0725
0.0765
0.0725
0.0715
0.0725
0.072
0.0745
0.0735
0.071
0.072
0.0755
0.0805
0.0815
0.0835
0.0815
0.077
0.075
0.075
0.076
0.0745
0.079
0.0815
0.0825
0.0805
0.0775
0.075
0.074
0.0735
0.0715
0.074
0.0765
0.0765
0.074
0.073
0.07
0.072
0.074
0.0735
0.0765
0.0765
0.079
0.0765
0.0735
0.0745
0.072
0.072
0.0735
0.0725
0.0725
0.073
0.072
0.07
0.0685
0.0705
0.077
0.082
0.0825
0.0805
0.0815
0.084
0.082
0.084
0.083
0.08
0.0835
0.085
0.084
0.082
0.08
0.077
0.0735
0.075
0.077
0.0755
0.077
0.0735
0.0685
0.07
0.0695
0.0725
0.0755
0.075
0.078
0.0805
0.0775
0.074
0.074
0.0735
0.0725
0.071
0.068
0.069
0.0655
0.0625
0.065
0.066
0.0655
0.065
0.07
0.0695
0.066
0.069
0.0705
0.0725
0.0745
0.0755
0.0745
0.0735
0.0745
0.075
0.0715
0.0735
0.0765
0.0745
0.0745
0.0735
0.0725
0.069
0.07
0.074
0.0735
0.071
0.0655
0.065
0.0645
0.0615
0.063
0.066
0.068
0.0645
0.06
0.0575
0.055
0.057
0.06
0.0585
0.0555
0.055
0.055
0.0535
0.0525
0.059
0.061
0.0555
0.05
0.048
0.052
0.0515
0.0505
0.0505
0.05
0.0505
0.0505
0.049
0.049
0.0495
0.044
0.0385
0.0385
0.039
0.0415
0.04
0.0385
0.0375
0.0355
0.036
0.0375
0.039
0.043
0.043
0.0405
0.043
0.0485
0.0505
0.0505
0.055
0.0565
0.0585
0.0605
0.06
0.063
0.0645
0.065
0.064
0.0655
0.0705
0.073
0.076
0.075
0.075
0.077
0.078
0.0795
0.081
0.0815
0.0825
0.0825
0.0855
0.0895
0.09
0.0895
0.0865
0.0815
0.083
0.086
0.0865
0.0875
0.0885
0.0915
0.0915
0.09
0.09
0.0895
0.0905
0.0905
0.091
0.093
0.093
0.0915
0.091
0.0925
0.093
0.0945
0.096
0.095
0.0975
0.0975
0.093
0.094
0.0965
0.0925
0.093
0.097
0.0955
0.094
0.0935
0.0925
0.0925
0.095
0.093
0.0935
0.0915
0.086
0.0865
0.0865
0.087
0.0855
0.0905
0.0875
0.077
0.0825
0.089
0.0905
0.085
0.0815
0.0815
0.0805
0.081
0.0755
0.074
0.073
0.071
0.0725
0.0725
0.073
0.0755
0.077
0.08
0.0795
0.0735
0.0705
0.0735
0.077
0.08
0.078
0.073
0.0745
0.0785
0.08
0.078
0.079
0.075
0.072
0.0755
0.078
0.0845
0.087
0.086
0.08
0.0765
0.0745
0.0715
0.0755
0.078
0.0805
0.081
0.0795
0.0765
0.075
0.0765
0.0735
0.0695
0.0685
0.067
0.065
0.069
0.0715
0.069
0.0705
0.067
0.0675
0.071
0.068
0.065
0.0625
0.062
0.0625
0.0645
0.064
0.062
0.0635
0.0625
0.0615
0.0585
0.06
0.0635
0.064
0.064
0.064
0.066
0.067
0.0645
0.066
0.065
0.0635
0.0675
0.0685
0.0655
0.064
0.064
0.066
0.068
0.067
0.0715
0.072
0.068
0.0705
0.0715
0.068
0.0715
0.0735
0.073
0.073
0.0695
0.069
0.067
0.067
0.0685
0.0715
0.0745
0.0755
0.0755
0.069
0.0645
0.065
0.07
0.0695
0.0655
0.0685
0.071
0.072
0.0745
0.0755
0.077
0.0765
0.074
0.0745
0.0745
0.0725
0.0715
0.076
0.076
0.075
0.0785
0.078
0.076
0.0755
0.0755
0.0735
0.075
0.077
0.0785
0.081
0.082
0.0825
0.0815
0.0835
0.086
0.083
0.0795
0.08
0.0815
0.08
0.0785
0.083
0.0845
0.0855
0.0895
0.0905
0.0895
0.0825
0.078
0.0775
0.0795
0.083
0.0865
0.087
0.0785
0.078
0.08
0.08
0.081
0.0835
0.0875
0.088
0.088
0.085
0.0855
0.0865
0.087
0.091
0.092
0.09
0.0905
0.091
0.09
0.0915
0.087
0.088
0.0905
0.0875
0.09
0.093
0.094
0.091
0.093
0.099
0.1005
0.096
0.0895
0.0895
0.092
0.096
0.0965
0.095
0.0965
0.096
0.095
0.0965
0.0965
0.097
0.097
0.098
0.099
0.096
0.098
0.102
0.1045
0.1065
0.1025
0.1015
0.1015
0.1005
0.1045
0.105
0.103
0.104
0.1035
0.104
0.106
0.108
0.106
0.105
0.1055
0.107
0.106
0.106
0.102
0.101
0.1045
0.1015
0.105
0.1045
0.103
0.1055
0.103
0.1015
0.103
0.104
0.1025
0.103
0.1035
0.1
0.097
0.0965
0.0975
0.0975
0.0975
0.0995
0.0975
0.094
0.0945
0.094
0.0945
0.1015
0.101
0.099
0.1
0.102
0.1025
0.1005
0.1005
0.1005
0.101
0.1
0.1015
0.103
0.1025
0.103
0.104
0.1055
0.1065
0.104
0.1
0.1
0.099
0.099
0.0995
0.1005
0.1
0.1
0.103
0.107
0.107
0.1055
0.1065
0.101
0.1035
0.1095
0.11
0.113
0.1175
0.1195
0.117
0.1185
0.119
0.114
0.1145
0.115
0.1115
0.113
0.1135
0.1105
0.1125
0.1145
0.1175
0.123
0.123
0.1195
0.1175
0.118
0.1185
0.1145
0.1135
0.112
0.1105
0.117
0.1135
0.1135
0.1145
0.109
0.1115
0.1125
0.1115
0.1135
0.114
0.113
0.116
0.1155
0.1135
0.114
0.1125
0.1115
0.111
0.1125
0.112
0.1135
0.115
0.1155
0.1165
0.113
0.11
0.104
0.1015
0.1065
0.1055
0.1025
0.099
0.094
0.0895
0.087
0.086
0.0815
0.081
0.0795
0.077
0.0765
0.069
0.0635
0.0605
0.0565
0.0585
0.0605
0.0605
0.067
0.067
0.062
0.063
0.0635
0.0655
0.0645
0.0625
0.0555
0.0525
0.0505
0.0475
0.0455
0.0375
0.0335
0.0335
0.04
0.041
0.0375
0.0365
0.0365
0.035
0.0345
0.0355
0.0365
0.0435
0.05
0.055
0.0575
0.0535
0.0495
0.047
0.038
0.032
0.035
0.046
0.056
0.0565
0.0505
0.039
0.0365
0.041
0.045
0.0495
0.0575
0.0605
0.065
0.075
0.0805
0.083
0.0845
0.091
0.0955
0.0965
0.096
0.0975
0.1015
0.107
0.1045
0.096
0.0925
0.0885
0.087
0.088
0.088
0.0875
0.0905
0.095
0.1015
0.108
0.109
0.1125
0.113
0.1125
0.1135
0.1105
0.109
0.1125
0.118
0.1195
0.1215
0.1265
0.129
0.129
0.1305
0.1305
0.1325
0.134
0.132
0.1335
0.1345
0.132
0.1295
0.128
0.1245
0.1225
0.124
0.124
0.1255
0.1245
0.1235
0.1265
0.126
0.1275
0.131
0.1305
0.1335
0.1345
0.1325
0.133
0.13
0.13
0.132
0.1285
0.127
0.1275
0.124
0.124
0.1255
0.1255
0.1255
0.1285
0.133
0.1335
0.132
0.131
0.129
0.126
0.126
0.128
0.13
0.13
0.1325
0.131
0.1245
0.124
0.123
0.1225
0.1195
0.114
0.1045
0.092
0.084
0.0705
0.0585
0.047
0.0395
0.0295
0.0175
0.015
0.014
0.0165
0.027
0.045
0.0625
0.075
0.089
0.1085
0.1145
0.117
0.1215
0.1255
0.1345
0.1325
0.127
0.119
0.113
0.102
0.0685
0.042
0.0275
0.028
0.023
0.003
0.0205
0.0435
0.046
0.034
0.0235
0.0185
0.026
0.0645
0.081
0.092
0.1265
0.142
0.135
0.128
0.132
0.1325
0.1165
0.111
0.1145
0.114
0.118
0.1205
0.1265
0.141
0.16
0.178
0.19
0.212
0.237
0.2505
0.2635
0.285
0.305
0.316
0.323
0.322
0.3155
0.306
0.2975
0.2865
0.2665
0.2495
0.2365
0.2305
0.2265
0.219
0.2145
0.2075
0.194
0.1805
0.173
0.1695
0.167
0.1645
0.1605
0.1535
0.149
0.149
0.149
0.1445
0.1425
0.1395
0.137
0.132
0.1235
0.1215
0.1175
0.115
0.114
0.114
0.1145
0.1095
0.105
0.104
0.104
0.102
0.1015
0.101
0.1015
0.1015
0.098
0.0965
0.095
0.095
0.0945
0.0945
0.0945
0.0925
0.0925
0.094
0.0965
0.0965
0.0945
0.094
0.092
0.09
0.088
0.089
0.0905
0.0915
0.091
0.088
0.087
0.0895
0.0875
0.084
0.0875
0.09
0.0915
0.0915
0.0925
0.0965
0.092
0.09
0.097
0.099
0.1005
0.1025
0.0995
0.0985
0.0955
0.0945
0.098
0.1015
0.1025
0.101
0.1045
0.111
0.1105
0.1075
0.11
0.11
0.106
0.104
0.1045
0.1045
0.099
0.096
0.0965
0.096
0.0975
0.101
0.1005
0.102
0.1055
0.1035
0.1
0.099
0.096
0.0945
0.0945
0.095
0.097
0.096
0.0925
0.094
0.0945
0.095
0.0965
0.0975
0.0995
0.096
0.093
0.094
0.0915
0.09
0.0885
0.0835
0.0815
0.0805
0.079
0.0795
0.0795
0.077
0.0765
0.079
0.083
0.0845
0.078
0.0725
0.072
0.073
0.0715
0.0695
0.0695
0.063
0.063
0.0675
0.0635
0.0635
0.0655
0.062
0.0615
0.0625
0.0595
0.061
0.062
0.064
0.067
0.0645
0.06
0.052
0.049
0.0525
0.052
0.05
0.0485
0.0495
0.0525
0.0525
0.0515
0.054
0.0545
0.053
0.0545
0.0515
0.052
0.0525
0.0505
0.0495
0.0505
0.055
0.054
0.054
0.0535
0.049
0.049
0.05
0.0495
0.0465
0.042
0.0405
0.044
0.0455
0.039
0.0325
0.033
0.033
0.0315
0.031
0.0295
0.0295
0.0315
0.0305
0.026
0.0245
0.026
0.0225
0.021
0.023
0.02
0.0225
0.0275
0.0255
0.025
0.0245
0.023
0.023
0.0235
0.027
0.027
0.0295
0.032
0.031
0.032
0.032
0.0315
0.033
0.032
0.0285
0.03
0.0315
0.0345
0.0385
0.0405
0.0395
0.042
0.0435
0.046
0.0485
0.049
0.05
0.0525
0.056
0.0575
0.06
0.0595
0.064
0.0635
0.061
0.065
0.0675
0.071
0.0715
0.0685
0.0675
0.0705
0.0765
0.0795
0.083
0.085
0.084
0.0845
0.0885
0.0935
0.0935
0.089
0.09
0.095
0.0995
0.1015
0.099
0.101
0.1035
0.105
0.102
0.101
0.1055
0.1045
0.1025
0.1025
0.104
0.106
0.108
0.1085
0.107
0.107
0.108
0.1085
0.1075
0.1055
0.1085
0.1125
0.1085
0.106
0.1085
0.109
0.1115
0.1105
0.1075
0.1115
0.111
0.1095
0.111
0.11
0.108
0.1055
0.105
0.1095
0.11
0.1095
0.111
0.108
0.1085
0.111
0.111
0.11
0.1085
0.1065
0.102
0.101
0.103
0.105
0.1065
0.106
0.109
0.1105
0.1075
0.104
0.1
0.1
0.101
0.101
0.1025
0.1025
0.103
0.101
0.0975
0.096
0.097
0.095
0.092
0.095
0.0925
0.09
0.0895
0.0905
0.095
0.0895
0.088
0.0895
0.09
0.095
0.098
0.1005
0.1005
0.1005
0.102
0.1
0.1045
0.107
0.099
0.0935
0.09
0.094
0.1005
0.097
0.094
0.0935
0.092
0.0925
0.0905
0.0885
0.0925
0.094
0.091
0.09
0.089
0.087
0.089
0.0915
0.0925
0.0885
0.083
0.0855
0.087
0.088
0.0855
0.084
0.087
0.0845
0.082
0.078
0.079
0.0835
0.086
0.0825
0.076
0.0735
0.073
0.0745
0.0745
0.0745
0.0705
0.067
0.068
0.0685
0.069
0.069
0.066
0.06
0.06
0.0605
0.057
0.0535
0.051
0.0555
0.0585
0.057
0.055
0.0525
0.0515
0.0515
0.053
0.0515
0.051
0.049
0.0475
0.048
0.047
0.047
0.046
0.0465
0.0465
0.046
0.047
0.0515
0.0545
0.053
0.0535
0.0545
0.0555
0.056
0.0535
0.0555
0.0565
0.0555
0.0555
0.056
0.056
0.055
0.055
0.055
0.056
0.0565
0.058
0.062
0.062
0.0575
0.0555
0.0615
0.061
0.055
0.0565
0.056
0.0555
0.057
0.0575
0.0595
0.059
0.058
0.055
0.054
0.0575
0.0605
0.061
0.0615
0.062
0.062
0.062
0.0655
0.07
0.0685
0.0715
0.072
0.066
0.0665
0.0665
0.067
0.068
0.066
0.0645
0.0635
0.063
0.061
0.0555
0.0545
0.0545
0.0495
0.0535
0.057
0.0555
0.0545
0.0525
0.055
0.055
0.0535
0.0525
0.0525
0.052
0.052
0.0515
0.051
0.0485
0.0465
0.0485
0.0485
0.0515
0.0515
0.052
0.0555
0.0515
0.053
0.0575
0.057
0.0595
0.06
0.0585
0.0535
0.0505
0.055
0.054
0.0505
0.0495
0.0475
0.045
0.0485
0.0495
0.0495
0.0475
0.0425
0.0395
0.039
0.044
0.044
0.041
0.0405
0.04
0.0395
0.0395
0.0415
0.036
0.031
0.0345
0.0385
0.039
0.039
0.037
0.0355
0.038
0.0405
0.043
0.0405
0.0385
0.044
0.0485
0.0465
0.045
0.046
0.047
0.0445
0.0425
0.045
0.046
0.0475
0.0465
0.044
0.0445
0.0475
0.0455
0.039
0.043
0.0495
0.051
0.0545
0.0555
0.056
0.058
0.057
0.0545
0.0545
0.0545
0.0575
0.0605
0.06
0.057
0.054
0.054
0.0535
0.0535
0.0525
0.0555
0.0545
0.0545
0.0585
0.0585
0.06
0.0575
0.0575
0.0595
0.058
0.057
0.058
0.0565
0.057
0.063
0.0605
0.0575
0.056
0.0535
0.055
0.0605
0.063
0.0565
0.0565
0.0575
0.0555
0.0585
0.0565
0.0565
0.0605
0.06
0.0595
0.0595
0.0595
0.0615
0.064
0.0625
0.0555
0.0555
0.0555
0.0535
0.0565
0.058
0.0575
0.0565
0.058
0.057
0.055
0.054
0.0505
0.048
0.049
0.0485
0.047
0.0495
0.0485
0.0455
0.047
0.0445
0.04
0.0455
0.0445
0.0435
0.046
0.044
0.0455
0.045
0.045
0.0405
0.0395
0.045
0.043
0.044
0.0455
0.0425
0.039
0.0385
0.035
0.0315
0.033
0.033
0.034
0.0355
0.0335
0.0305
0.027
0.023
0.0195
0.0145
0.01
0.0055
0.0045
0.0055
0.005
0.003
-0.0015
-0.0025
-0.0045
-0.0085
-0.008
-0.009
-0.007
-0.0065
-0.01
-0.0095
-0.0095
-0.0095
-0.0125
-0.012
-0.0125
-0.0205
-0.025
-0.0295
-0.0325
-0.035
-0.0345
-0.034
-0.0365
-0.033
-0.0335
-0.037
-0.0355
-0.0365
-0.037
-0.033
-0.0275
-0.024
-0.0225
-0.023
-0.02
-0.0105
-0.008
-0.0115
-0.0135
-0.0125
-0.014
-0.011
-0.0005
0.0025
-0.0015
0.001
-0.001
-0.0025
-0.004
-0.006
-0.0015
-0.002
-0.0025
0.003
0.014
0.0225
0.023
0.0245
0.0275
0.032
0.0395
0.041
0.042
0.05
0.0535
0.056
0.054
0.0435
0.0415
0.0365
0.0315
0.0305
0.0305
0.037
0.046
0.054
0.0545
0.0585
0.058
0.056
0.061
0.06
0.0585
0.0585
0.062
0.0645
0.0635
0.0645
0.0665
0.0705
0.0655
0.064
0.0665
0.067
0.069
0.064
0.059
0.0565
0.0565
0.0605
0.062
0.0615
0.06
0.0605
0.0605
0.0605
0.06
0.058
0.059
0.058
0.0565
0.0595
0.063
0.0655
0.0635
0.0585
0.056
0.053
0.0525
0.0545
0.06
0.065
0.067
0.0655
0.0625
0.058
0.057
0.0605
0.059
0.0575
0.0575
0.0615
0.0625
0.057
0.053
0.054
0.0555
0.0565
0.0615
0.065
0.0675
0.068
0.068
0.067
0.0635
0.063
0.0595
0.0525
0.0415
0.029
0.016
0.003
-0.0095
-0.0125
-0.017
-0.0285
-0.032
-0.0345
-0.0315
-0.0275
-0.0155
0.0065
0.0165
0.0265
0.0415
0.0505
0.0555
0.055
0.0545
0.0655
0.0695
0.0675
0.0595
0.05
0.0455
0.0145
-0.015
-0.0305
-0.041
-0.0395
-0.0545
-0.054
-0.03
-0.022
-0.0295
-0.04
-0.0435
-0.038
-0.0105
0.0155
0.022
0.0415
0.068
0.0745
0.068
0.068
0.0705
0.056
0.0475
0.048
0.044
0.05
0.0505
0.0505
0.0675
0.0845
0.1
0.1135
0.1295
0.147
0.1655
0.183
0.202
0.2305
0.2465
0.2535
0.2555
0.248
0.24
0.231
0.224
0.2115
0.192
0.1715
0.161
0.153
0.1465
0.1425
0.132
0.124
0.1175
0.117
0.117
0.108
0.101
0.0975
0.096
0.0955
0.093
0.0925
0.0935
0.0935
0.088
0.079
0.075
0.0755
0.068
0.062
0.0585
0.056
0.0545
0.053
0.054
0.0525
0.0525
0.052
0.054
0.052
0.0455
0.043
0.0435
0.0435
0.041
0.042
0.0415
0.0405
0.0415
0.041
0.0355
0.0335
0.0355
0.0385
0.0405
0.047
0.046
0.04
0.0415
0.0395
0.0405
0.045
0.0455
0.0465
0.048
0.046
0.045
0.043
0.0395
0.0375
0.034
0.034
0.034
0.0325
0.0335
0.0335
0.032
0.0315
0.0295
0.0265
0.0215
0.0205
0.0195
0.0195
0.0195
0.0195
0.018
0.0175
0.0215
0.017
0.0165
0.021
0.022
0.017
0.0145
0.0185
0.02
0.02
0.019
0.02
0.02
0.017
0.017
0.018
0.017
0.018
0.0205
0.0245
0.028
0.029
0.0285
0.025
0.024
0.028
0.0295
0.023
0.0235
0.0205
0.0155
0.0225
0.024
0.026
0.0245
0.026
0.0295
0.0265
0.024
0.0215
0.021
0.021
0.0195
0.016
0.0165
0.0155
0.012
0.013
0.013
0.0175
0.0205
0.0175
0.0125
0.007
0.008
0.0075
0.008
0.0055
-0.0015
-0.0065
-0.01
-0.006
-0.0035
-0.005
-0.006
-0.004
-0.004
-0.0085
-0.006
-0.005
-0.0105
-0.013
-0.014
-0.015
-0.0165
-0.018
-0.018
-0.015
-0.01
-0.009
-0.0125
-0.0145
-0.014
-0.015
-0.0155
-0.0125
-0.0135
-0.0145
-0.015
-0.0165
-0.013
-0.016
-0.02
-0.022
-0.023
-0.0215
-0.0185
-0.0175
-0.019
-0.0225
-0.025
-0.026
-0.027
-0.0285
-0.031
-0.032
-0.035
-0.037
-0.041
-0.041
-0.0395
-0.0375
-0.0365
-0.0375
-0.041
-0.046
-0.0415
-0.04
-0.04
-0.04
-0.0415
-0.0445
-0.0515
-0.0535
-0.054
-0.055
-0.055
-0.0565
-0.0565
-0.059
-0.062
-0.0605
-0.0595
-0.0575
-0.057
-0.0595
-0.055
-0.0555
-0.059
-0.0595
-0.0605
-0.058
-0.057
-0.056
-0.06
-0.0615
-0.055
-0.054
-0.0545
-0.051
-0.05
-0.046
-0.0465
-0.048
-0.0455
-0.0455
-0.042
-0.0375
-0.034
-0.036
-0.0335
-0.029
-0.028
-0.0295
-0.0325
-0.028
-0.024
-0.0245
-0.0265
-0.0265
-0.0255
-0.0275
-0.0265
-0.0215
-0.018
-0.0145
-0.016
-0.019
-0.018
-0.0105
-0.005
-0.009
-0.0095
-0.008
-0.006
-0.0105
-0.011
-0.0065
-0.0085
-0.004
0.005
0.0085
0.011
0.01
0.009
0.009
0.0065
0.0055
0.007
0.006
0.0
0.003
0.008
0.006
0.0065
0.0065
0.005
0.007
0.0115
0.011
0.0065
0.007
0.0095
0.0095
0.012
0.012
0.012
0.013
0.0075
0.006
0.008
0.006
0.011
0.0135
0.009
0.0135
0.0155
0.0115
0.013
0.015
0.014
0.013
0.012
0.015
0.0185
0.0135
0.0105
0.013
0.013
0.012
0.0135
0.0145
0.0125
0.0115
0.0125
0.0125
0.0135
0.011
0.0105
0.0135
0.012
0.0165
0.0175
0.017
0.0205
0.014
0.003
-0.0025
-0.001
0.001
-0.0005
0.0005
0.0025
-0.002
-0.004
-0.0055
-0.009
-0.007
-0.0045
-0.003
0.0
0.0005
-0.005
-0.002
0.0035
0.001
0.0005
0.001
0.0045
0.001
-0.003
-0.001
-0.0025
-0.002
-0.0035
-0.001
0.0025
-0.001
-0.0035
-0.0025
0.0
0.001
0.0005
-0.0015
0.0
0.006
0.0025
0.002
0.0045
0.005
0.0085
0.007
0.0045
0.0045
0.0065
0.0035
0.0015
0.0025
0.0015
0.0005
0.002
0.0075
0.007
0.0045
0.005
0.002
0.003
0.0065
0.0075
0.008
0.0065
0.0075
0.0045
0.0015
0.003
-0.001
-0.006
-0.007
-0.006
-0.0035
-0.0005
-0.0015
-0.0045
-0.003
-0.002
-0.0065
-0.005
-0.0035
-0.0015
-0.002
-0.0045
-0.004
-0.0065
-0.005
-0.0065
-0.006
-0.003
-0.0035
-0.0055
-0.009
-0.007
-0.006
-0.0085
-0.007
-0.0075
-0.0075
-0.0025
0.0005
-0.0035
-0.0035
0.0
-0.0005
0.0005
-0.001
0.0
0.002
-0.002
-0.002
0.001
0.0015
0.0015
0.004
0.002
-0.001
-0.0015
0.0005
-0.0005
-0.001
