ECG
0.000762939
-0.000610352
0.000762939
0.002288818
0.005340576
0.008087158
0.010375977
0.011444092
0.01083374
0.010375977
0.012969971
0.013122559
0.012969971
0.012969971
0.010375977
0.017852783
0.027618408
0.057830811
0.056762695
0.053863525
0.055847168
0.009613037
-0.014190674
-0.013885498
-0.004272461
-0.009002686
-0.015258789
-0.014953613
-0.01159668
-0.008850098
-0.006256104
-0.003967285
-0.003967285
-0.003814697
-0.046844482
-0.06652832
0.066070557
0.545196533
1.094512939
0.451507568
-0.21697998
-0.458374023
-0.369262695
-0.194396973
-0.108184814
-0.077514648
-0.058898926
-0.046081543
-0.033569336
-0.023498535
-0.013427734
-0.002746582
0.00793457
0.019073486
0.027618408
0.037231445
0.048522949
0.063171387
0.078735352
0.099487305
0.122833252
0.144500732
0.160827637
0.174102783
0.176544189
0.158081055
0.109558105
0.029449463
-0.055236816
-0.127410889
-0.174102783
-0.202026367
-0.210723877
-0.209350586
-0.197296143
-0.177612305
-0.161895752
-0.146026611
-0.12878418
-0.113983154
-0.097198486
-0.083465576
-0.070343018
-0.059051514
-0.051727295
-0.043029785
-0.040740967
-0.035552979
-0.030822754
-0.028533936
-0.026092529
-0.023803711
-0.021209717
-0.021209717
-0.021362305
-0.018615723
-0.018615723
-0.018615723
-0.013885498
-0.013885498
-0.01159668
-0.009307861
-0.011444092
-0.009002686
-0.003662109
-0.003814697
-0.001525879
0.000915527
0.001068115
0.003662109
0.000610352
0.005950928
0.005645752
0.003204346
0.00579834
0.003509521
0.007629395
0.010528564
0.010681152
0.011901855
0.013122559
0.01083374
0.012817383
0.008239746
0.010681152
0.007171631
0.008087158
0.015563965
0.028839111
0.052947998
0.042419434
0.051422119
0.036468506
-0.005950928
-0.021057129
-0.007629395
-0.008850098
-0.022277832
-0.026092529
-0.018768311
-0.018768311
-0.014038086
-0.011749268
-0.011291504
-0.011444092
-0.024414063
-0.079803467
-0.047149658
0.181274414
0.864868164
0.850372314
0.198669434
-0.297241211
-0.449981689
-0.338897705
-0.183258057
-0.110473633
-0.075378418
-0.052642822
-0.039367676
-0.031738281
-0.02243042
-0.013885498
-0.006256104
0.003662109
0.013275146
0.020446777
0.03036499
0.037231445
0.050964355
0.065460205
0.084991455
0.106811523
0.127563477
0.13885498
0.147399902
0.149841309
0.132751465
0.084075928
0.015716553
-0.057678223
-0.11505127
-0.15838623
-0.177459717
-0.178985596
-0.171661377
-0.159454346
-0.14175415
-0.125274658
-0.110321045
-0.096893311
-0.079956055
-0.070495605
-0.065155029
-0.058898926
-0.049133301
-0.040588379
-0.036773682
-0.033111572
-0.026092529
-0.021362305
-0.021514893
-0.021057129
-0.018615723
-0.016174316
-0.016174316
-0.010528564
-0.011138916
-0.006408691
-0.006713867
-0.006408691
-0.004119873
-0.003662109
-0.001525879
0.000915527
0.005645752
0.00579834
0.005493164
0.00579834
0.005645752
0.008087158
0.010528564
0.020141602
0.033569336
0.064086914
0.056610107
0.061035156
0.05065918
0.004882813
-0.016479492
-0.011138916
-0.003967285
-0.011444092
-0.016021729
-0.016174316
-0.013885498
-0.007171631
-0.006103516
-0.006561279
-0.001068115
0.00579834
-0.018615723
-0.065002441
0.006256104
0.343017578
1.0496521
0.710144043
-0.008087158
-0.410003662
-0.415649414
-0.249481201
-0.12802124
-0.080108643
-0.062408447
-0.045623779
-0.033416748
-0.019073486
-0.011444092
-0.004425049
0.003356934
0.012054443
0.020599365
0.031738281
0.04196167
0.059356689
0.073547363
0.095825195
0.117797852
0.13885498
0.157165527
0.170593262
0.178222656
0.166778564
0.124664307
0.054626465
-0.035705566
-0.1171875
-0.173950195
-0.206756592
-0.218963623
-0.21697998
-0.202178955
-0.187530518
-0.171508789
-0.15411377
-0.137481689
-0.121459961
-0.104370117
-0.08605957
-0.074920654
-0.065460205
-0.055236816
-0.045471191
-0.038452148
-0.030975342
-0.025939941
-0.026245117
-0.023803711
-0.023651123
-0.023956299
-0.023498535
-0.023651123
-0.018768311
-0.018615723
-0.016174316
-0.013885498
-0.012359619
-0.00869751
-0.006408691
-0.004119873
-0.001525879
0.003509521
0.000762939
0.001068115
0.004577637
0.005493164
0.005645752
0.003356934
0.005493164
0.007781982
0.00793457
0.008544922
0.01083374
0.008239746
0.009460449
0.008239746
0.005645752
0.010986328
0.016174316
0.045318604
0.063781738
0.057067871
0.06439209
0.031738281
-0.00289917
-0.018920898
-0.009155273
-0.010223389
-0.021057129
-0.021057129
-0.018310547
-0.016326904
-0.011749268
-0.010986328
-0.004272461
-0.001525879
-0.012512207
-0.067443848
-0.022888184
0.251464844
0.959472656
0.818023682
0.051422119
-0.404205322
-0.430297852
-0.270385742
-0.136108398
-0.08605957
-0.061340332
-0.045471191
-0.033569336
-0.021209717
-0.014190674
-0.006713867
0.001983643
0.008087158
0.015869141
0.028991699
0.042114258
0.055389404
0.06652832
0.076293945
0.095825195
0.119018555
0.138702393
0.156860352
0.159759521
0.155029297
0.133972168
0.068359375
-0.009918213
-0.087127686
-0.151672363
-0.191345215
-0.202026367
-0.202484131
-0.19744873
-0.190734863
-0.17074585
-0.147247314
-0.13885498
-0.116882324
-0.104217529
-0.094604492
-0.076293945
-0.058898926
-0.055236816
-0.045623779
-0.045623779
-0.037994385
-0.027313232
-0.023651123
-0.025787354
-0.026092529
-0.014190674
-0.016174316
-0.018920898
-0.028381348
-0.020904541
-0.021057129
-0.01373291
-0.00869751
-0.006408691
-0.011291504
-0.003814697
0.004425049
0.013275146
0.000915527
-0.00289917
-0.021057129
-0.012817383
0.015106201
0.013275146
0.017547607
0.013122559
0.059356689
0.003662109
0.006866455
0.032653809
0.035247803
0.050506592
0.048217773
-0.018615723
-0.028686523
-0.025787354
-0.022277832
-0.012817383
-0.013427734
-0.03112793
-0.026245117
-0.016174316
-0.024871826
0.000762939
-0.000457764
-0.003967285
-0.056152344
-0.083312988
0.062713623
0.570220947
0.975341797
0.415344238
-0.142211914
-0.436248779
-0.397033691
-0.233917236
-0.116577148
-0.092468262
-0.065307617
-0.054168701
-0.024719238
-0.009307861
-0.006561279
0.006713867
0.015106201
0.022888184
0.030212402
0.034942627
0.04119873
0.056304932
0.063934326
0.076446533
0.090942383
0.106658936
0.117797852
0.122833252
0.12298584
0.11428833
0.077667236
0.010681152
-0.062866211
-0.122375488
-0.157775879
-0.175323486
-0.177764893
-0.170288086
-0.156097412
-0.142364502
-0.123901367
-0.109405518
-0.094451904
-0.078430176
-0.061798096
-0.054321289
-0.045623779
-0.036010742
-0.030670166
-0.021362305
-0.016326904
-0.01373291
-0.011444092
-0.004882813
-0.001831055
-0.001373291
0.000305176
0.003356934
0.00579834
0.008087158
0.010375977
0.003204346
0.003509521
0.005950928
0.005340576
0.005645752
0.008087158
0.015869141
0.026855469
0.053100586
0.052032471
0.053100586
0.055847168
0.012054443
-0.013885498
-0.011444092
-0.001373291
-0.011291504
-0.016326904
-0.013427734
-0.011138916
-0.004272461
-0.001678467
-0.001678467
0.000457764
0.000762939
-0.043029785
-0.061645508
0.063171387
0.48538208
1.040344238
0.547790527
-0.061798096
-0.403137207
-0.394744873
-0.241088867
-0.133056641
-0.086364746
-0.062561035
-0.046691895
-0.035705566
-0.028991699
-0.016479492
-0.006408691
-0.001678467
0.003356934
0.013122559
0.026397705
0.037689209
0.049285889
0.064239502
0.083618164
0.106811523
0.129394531
0.144500732
0.152282715
0.149841309
0.139007568
0.102386475
0.032196045
-0.048828125
-0.112609863
-0.152282715
-0.176544189
-0.185394287
-0.180358887
-0.168609619
-0.153198242
-0.136108398
-0.119018555
-0.103149414
-0.089874268
-0.073852539
-0.063018799
-0.055389404
-0.048065186
-0.038604736
-0.035705566
-0.033111572
-0.026245117
-0.021209717
-0.021362305
-0.023956299
-0.021209717
-0.021057129
-0.016326904
-0.018768311
-0.010986328
-0.01159668
-0.011138916
-0.009307861
-0.006561279
-0.003814697
-0.001220703
0.000762939
0.000915527
0.000915527
0.000915527
0.001068115
0.010681152
0.021972656
0.053863525
0.056762695
0.057067871
0.050811768
0.007019043
-0.018310547
-0.019226074
-0.006561279
-0.01373291
-0.023651123
-0.021514893
-0.012664795
-0.006561279
-0.004119873
0.000762939
0.003509521
0.001068115
-0.046386719
-0.04699707
0.122833252
0.665435791
1.094207764
0.381164551
-0.254669189
-0.463562012
-0.356140137
-0.180969238
-0.105895996
-0.038757324
-0.029296875
-0.063476563
-0.080108643
-0.049591064
-0.012664795
-0.006561279
0.064544678
0.04989624
0.057830811
0.013275146
0.032348633
0.079498291
0.106964111
0.114135742
0.164489746
0.133056641
0.110473633
0.138549805
0.16784668
0.136566162
0.110931396
0.057067871
-0.111846924
-0.177612305
-0.196838379
-0.230102539
-0.215759277
-0.164489746
-0.151672363
-0.214385986
-0.185089111
-0.145111084
-0.116729736
-0.10055542
-0.086975098
-0.079803467
-0.065460205
-0.05065918
-0.045776367
-0.040588379
-0.035858154
-0.030822754
-0.03326416
-0.02822876
-0.026397705
-0.023651123
-0.020904541
-0.018615723
-0.023651123
-0.023956299
-0.018615723
-0.018615723
-0.014801025
-0.011291504
-0.003967285
-0.008850098
-0.00869751
-0.006408691
-0.002288818
-0.003967285
-0.006561279
-0.003814697
-0.000457764
0.003356934
0.00579834
0.003204346
0.003356934
0.005645752
0.008392334
0.010681152
0.010681152
0.012969971
0.020599365
0.032196045
0.066680908
0.061798096
0.067596436
0.067749023
0.014648438
-0.013580322
-0.016479492
-0.009002686
-0.014038086
-0.019836426
-0.019836426
-0.011444092
-0.008850098
-0.003662109
-0.001525879
-0.001220703
-0.007629395
-0.066223145
-0.05355835
0.163726807
0.798034668
1.00769043
0.217132568
-0.358123779
-0.451812744
-0.303344727
-0.153656006
-0.10055542
-0.077667236
-0.059204102
-0.045623779
-0.03326416
-0.022125244
-0.009002686
0.003356934
0.012969971
0.022735596
0.034942627
0.04486084
0.055847168
0.070495605
0.087280273
0.105133057
0.125274658
0.143585205
0.15914917
0.169219971
0.169067383
0.146026611
0.085449219
0.002593994
-0.080718994
-0.144500732
-0.18371582
-0.204315186
-0.207061768
-0.199737549
-0.184936523
-0.168457031
-0.1512146
-0.13381958
-0.120239258
-0.106964111
-0.091247559
-0.078735352
-0.067443848
-0.057983398
-0.05279541
-0.046081543
-0.038299561
-0.033416748
-0.028533936
-0.028533936
-0.028839111
-0.026092529
-0.021514893
-0.018768311
-0.018920898
-0.016174316
-0.01373291
-0.01159668
-0.009155273
-0.006866455
-0.006561279
-0.001983643
0.000457764
0.003509521
0.00579834
0.005645752
0.007781982
-0.001068115
0.003356934
0.003204346
0.009460449
0.013275146
0.008544922
0.005493164
0.010681152
0.010681152
0.011901855
0.012969971
0.018157959
0.031280518
0.060272217
0.05645752
0.059051514
0.058135986
0.012054443
-0.011291504
-0.01159668
-0.004119873
-0.01159668
-0.020904541
-0.021057129
-0.016174316
-0.016174316
-0.011444092
-0.006408691
-0.009002686
-0.019989014
-0.081481934
-0.057067871
0.202331543
0.919189453
0.895080566
0.126342773
-0.377044678
-0.450744629
-0.306091309
-0.160827637
-0.104675293
-0.077514648
-0.057983398
-0.044403076
-0.03112793
-0.023498535
-0.018615723
-0.004882813
0.005493164
0.015258789
0.022735596
0.031585693
0.040893555
0.052947998
0.070343018
0.089569092
0.109100342
0.127410889
0.142211914
0.154571533
0.154876709
0.13168335
0.075073242
0.000152588
-0.070953369
-0.132293701
-0.167999268
-0.182647705
-0.180511475
-0.172729492
-0.161895752
-0.147247314
-0.129699707
-0.114440918
-0.102844238
-0.088500977
-0.077514648
-0.067596436
-0.062713623
-0.052947998
-0.043640137
-0.039367676
-0.033569336
-0.025939941
-0.023803711
-0.021362305
-0.018920898
-0.020751953
-0.018768311
-0.018615723
-0.018615723
-0.014038086
-0.013885498
-0.013885498
-0.005187988
-0.006408691
-0.004119873
-0.003967285
-0.001678467
-0.001373291
0.000762939
0.001068115
0.000762939
0.008239746
0.010681152
0.015563965
0.028839111
0.052032471
0.047149658
0.061798096
0.045776367
0.00579834
-0.016326904
-0.010986328
-0.011749268
-0.011444092
-0.011444092
-0.010986328
-0.011138916
-0.011444092
-0.011444092
-0.011138916
-0.011444092
-0.011444092
-0.011444092
-0.01159668
-0.102844238
0.511322021
0.617523193
-0.008239746
-0.507507324
-0.663299561
-0.546722412
-0.365447998
-0.267181396
-0.223083496
-0.186004639
-0.154571533
-0.148620605
-0.106964111
-0.101928711
-0.066375732
-0.063018799
-0.034332275
-0.033416748
-0.008850098
-0.009002686
-0.009002686
-0.009002686
-0.009002686
-0.009002686
-0.009155273
-0.009155273
-0.009002686
-0.009002686
-0.009002686
-0.009002686
-0.00869751
-0.009307861
-0.00869751
-0.009155273
-0.008850098
-0.008850098
-0.008850098
-0.008850098
0.046844482
0.283813477
0.29876709
0.280761719
0.261230469
0.241241455
0.220794678
0.199127197
0.179901123
0.164794922
0.147094727
0.130004883
0.112915039
0.098571777
0.086212158
0.077362061
0.067138672
0.059051514
0.048217773
0.039367676
0.035095215
0.030517578
0.02532959
0.022735596
0.023040771
0.020294189
0.017700195
0.012969971
0.009155273
0.008392334
0.00579834
0.003204346
0.003356934
0.001678467
0.000915527
0.000762939
0.000915527
0.000762939
-0.001678467
-0.003967285
0.000915527
0.007019043
0.020141602
0.049133301
0.041046143
0.05065918
0.031585693
-0.010986328
-0.03112793
-0.025939941
-0.021209717
-0.030975342
-0.038452148
-0.035858154
-0.033111572
-0.030975342
-0.02822876
-0.023193359
-0.021057129
-0.034484863
-0.08972168
-0.059661865
0.198516846
0.898590088
0.89553833
0.11932373
-0.388183594
-0.444641113
-0.294647217
-0.155181885
-0.104370117
-0.076141357
-0.058898926
-0.044403076
-0.03616333
-0.025939941
-0.016479492
-0.006256104
0.00579834
0.015716553
0.029907227
0.039825439
0.049438477
0.062561035
0.077819824
0.095825195
0.116729736
0.139923096
0.156860352
0.164642334
0.164489746
0.136260986
0.069122314
-0.016021729
-0.100097656
-0.161437988
-0.193786621
-0.206756592
-0.209503174
-0.198516846
-0.180206299
-0.163269043
-0.146026611
-0.128936768
-0.119018555
-0.105285645
-0.090637207
-0.075378418
-0.062713623
-0.053253174
-0.046844482
-0.040893555
-0.035705566
-0.030975342
-0.026245117
-0.026092529
-0.026092529
-0.023651123
-0.023651123
-0.023803711
-0.020904541
-0.01739502
-0.013885498
-0.011444092
-0.010070801
-0.009002686
-0.008850098
-0.006561279
-0.003967285
-0.001678467
-0.001678467
-0.001373291
0.003509521
0.003356934
0.003204346
0.003356934
0.00579834
0.00793457
0.003509521
0.005645752
0.008392334
0.013275146
0.015258789
0.013122559
0.015563965
0.013122559
0.015563965
0.015411377
0.02166748
0.03616333
0.06362915
0.05065918
0.056762695
0.043487549
0.001373291
-0.020294189
-0.013885498
-0.006408691
-0.01739502
-0.023498535
-0.021057129
-0.018463135
-0.016174316
-0.016326904
-0.012512207
-0.009307861
-0.019989014
-0.076293945
-0.04699707
0.218811035
0.940856934
0.847625732
0.102081299
-0.373535156
-0.441131592
-0.325469971
-0.152587891
-0.10055542
-0.071258545
-0.057830811
-0.045776367
-0.033416748
-0.024108887
-0.013580322
-0.003051758
0.003356934
0.013122559
0.02243042
0.032653809
0.039978027
0.049438477
0.068817139
0.088653564
0.115203857
0.134887695
0.144805908
0.151824951
0.149688721
0.116729736
0.050811768
-0.026855469
-0.077362061
-0.132141113
-0.167694092
-0.180206299
-0.182800293
-0.175323486
-0.165710449
-0.148925781
-0.133514404
-0.116729736
-0.09979248
-0.089569092
-0.079956055
-0.069732666
-0.057830811
-0.051116943
-0.043182373
-0.038452148
-0.033569336
-0.030822754
-0.023345947
-0.021362305
-0.019073486
-0.014038086
-0.016326904
-0.018615723
-0.019836426
-0.018310547
-0.016174316
-0.016479492
-0.013580322
-0.013885498
-0.009002686
-0.008850098
-0.004119873
-0.004119873
-0.001525879
-0.001831055
-0.001525879
-0.001678467
0.003204346
0.005645752
0.003356934
0.005187988
0.00793457
0.008239746
0.017852783
0.027923584
0.047149658
0.042266846
0.05569458
0.045928955
0.004272461
-0.01373291
-0.009155273
0.001068115
-0.010070801
-0.014038086
-0.016021729
-0.009002686
-0.006408691
-0.006408691
-0.000610352
0.000762939
-0.001525879
-0.06149292
-0.054473877
0.111846924
0.674285889
0.978240967
0.388031006
-0.164794922
-0.424346924
-0.367889404
-0.203857422
-0.113220215
-0.081176758
-0.05645752
-0.040893555
-0.028839111
-0.019836426
-0.008850098
-0.001831055
0.00579834
0.015411377
0.023193359
0.032501221
0.039520264
0.048065186
0.063934326
0.084991455
0.105743408
0.126495361
0.14251709
0.151672363
0.155792236
0.141448975
0.09475708
0.023193359
-0.051574707
-0.110168457
-0.153808594
-0.174865723
-0.180206299
-0.172729492
-0.158233643
-0.143585205
-0.13092041
-0.11138916
-0.097045898
-0.082550049
-0.067596436
-0.057983398
-0.048065186
-0.041809082
-0.036010742
-0.028533936
-0.030517578
-0.028533936
-0.023956299
-0.018920898
-0.018768311
-0.018463135
-0.018768311
-0.018920898
-0.016479492
-0.016326904
-0.01373291
-0.014038086
-0.009002686
-0.006256104
-0.003967285
0.001068115
0.000915527
0.004730225
0.005950928
0.00579834
0.00579834
0.008087158
0.008087158
0.008087158
0.009155273
0.008392334
0.00579834
0.008087158
0.008087158
0.008087158
0.008392334
0.010223389
0.015869141
0.02746582
0.056762695
0.050811768
0.059204102
0.045776367
-0.000305176
-0.018615723
-0.016479492
-0.01373291
-0.021209717
-0.027160645
-0.023803711
-0.018768311
-0.01663208
-0.013427734
-0.009002686
-0.006561279
-0.015716553
-0.069885254
-0.038299561
0.212249756
0.887298584
0.899963379
0.133514404
-0.374603271
-0.440979004
-0.290679932
-0.160980225
-0.098419189
-0.07019043
-0.051879883
-0.040740967
-0.030670166
-0.020904541
-0.010223389
0.000457764
0.009307861
0.020294189
0.029602051
0.037689209
0.049438477
0.066223145
0.083770752
0.102081299
0.126495361
0.146942139
0.161895752
0.172729492
0.167999268
0.141296387
0.082855225
-0.003662109
-0.088195801
-0.152587891
-0.194549561
-0.215606689
-0.216827393
-0.20980835
-0.197601318
-0.180358887
-0.163269043
-0.14831543
-0.131378174
-0.11428833
-0.095825195
-0.08026123
-0.07019043
-0.060424805
-0.048065186
-0.040740967
-0.035705566
-0.030670166
-0.03112793
-0.025939941
-0.023193359
-0.022125244
-0.021209717
-0.023651123
-0.021362305
-0.018310547
-0.016326904
-0.016174316
-0.013580322
-0.011444092
-0.011291504
-0.009307861
-0.006713867
-0.004119873
-0.001525879
-0.004119873
-0.002593994
0.001068115
0.003509521
0.003356934
0.003509521
0.005645752
0.008239746
0.008239746
0.010681152
0.010681152
0.010528564
0.010528564
0.012817383
0.013122559
0.015716553
0.015411377
0.013122559
0.012969971
0.012969971
0.010681152
0.010681152
0.014190674
0.025024414
0.053253174
0.054168701
0.049285889
0.054473877
0.010986328
-0.01373291
-0.018920898
-0.008850098
-0.013580322
-0.021057129
-0.023956299
-0.018768311
-0.016326904
-0.013885498
-0.010070801
-0.006408691
-0.006408691
-0.057830811
-0.071258545
0.084838867
0.644683838
1.084289551
0.378112793
-0.263061523
-0.454101563
-0.346374512
-0.183410645
-0.110931396
-0.079956055
-0.060882568
-0.046691895
-0.036010742
-0.025939941
-0.014038086
-0.001220703
0.01449585
0.022888184
0.027313232
0.032653809
0.043487549
0.054168701
0.071258545
0.090942383
0.112915039
0.140075684
0.154571533
0.163269043
0.168914795
0.153503418
0.102081299
0.023498535
-0.063323975
-0.134735107
-0.177764893
-0.20904541
-0.214233398
-0.207366943
-0.197143555
-0.178070068
-0.157928467
-0.139923096
-0.123901367
-0.109405518
-0.097503662
-0.082092285
-0.072479248
-0.057983398
-0.055541992
-0.048065186
-0.038452148
-0.033416748
-0.028686523
-0.026092529
-0.018768311
-0.016174316
-0.016174316
-0.018615723
-0.016326904
-0.01663208
-0.016174316
-0.018768311
-0.01373291
-0.010223389
-0.004119873
-0.006561279
-0.004119873
-0.001525879
0.000762939
0.001373291
-0.001678467
0.000915527
0.000762939
0.003662109
0.003051758
0.003356934
0.000915527
0.010681152
0.00793457
0.013122559
0.012969971
0.015563965
0.013122559
0.015563965
0.013427734
0.010681152
0.010528564
0.015563965
0.02746582
0.046081543
0.057830811
0.04699707
0.061645508
0.024414063
-0.006103516
-0.01373291
-0.000305176
-0.006408691
-0.017700195
-0.018920898
-0.016326904
-0.01373291
-0.006866455
-0.001678467
0.000915527
-0.003814697
-0.05355835
-0.06652832
0.066070557
0.567932129
1.009063721
0.463867188
-0.105133057
-0.41305542
-0.389862061
-0.235748291
-0.132598877
-0.090942383
-0.068817139
-0.053710938
-0.040740967
-0.031280518
-0.021209717
-0.012359619
-0.001831055
0.005645752
0.015563965
0.022583008
0.030059814
0.042114258
0.056915283
0.071411133
0.090484619
0.110473633
0.127716064
0.13885498
0.144958496
0.140991211
0.10925293
0.049133301
-0.02456665
-0.085754395
-0.134735107
-0.162963867
-0.174102783
-0.170288086
-0.159301758
-0.146179199
-0.133666992
-0.119171143
-0.099639893
-0.084686279
-0.073699951
-0.061645508
-0.05279541
-0.045776367
-0.040893555
-0.036010742
-0.033111572
-0.028381348
-0.021057129
-0.023803711
-0.021514893
-0.018768311
-0.016021729
-0.01373291
-0.01373291
-0.013885498
-0.011444092
-0.008850098
-0.006408691
-0.003967285
-0.004119873
-0.006103516
-0.003662109
-0.001373291
0.000610352
0.000762939
0.000762939
0.000915527
0.003356934
0.008239746
0.008239746
0.009460449
0.010528564
0.010681152
0.010681152
0.012969971
0.014343262
0.020446777
0.03616333
0.061187744
0.049591064
0.063018799
0.039825439
-0.001525879
-0.016326904
-0.008087158
-0.006408691
-0.016326904
-0.018310547
-0.016021729
-0.011291504
-0.009307861
-0.006561279
-0.001525879
0.000762939
-0.007629395
-0.065155029
-0.048065186
0.167999268
0.808258057
0.941162109
0.225524902
-0.3074646
-0.444488525
-0.324401855
-0.168304443
-0.10345459
-0.077819824
-0.055541992
-0.042114258
-0.026092529
-0.016326904
-0.008850098
0.003356934
0.013122559
0.023040771
0.035247803
0.044708252
0.054626465
0.069122314
0.08605957
0.107727051
0.131378174
0.153656006
0.166625977
0.171813965
0.172729492
0.146179199
0.08392334
-0.001220703
-0.084228516
-0.149536133
-0.192260742
-0.213775635
-0.21697998
-0.21194458
-0.195007324
-0.185089111
-0.159759521
-0.139923096
-0.124969482
-0.104370117
-0.092010498
-0.079803467
-0.070648193
-0.058288574
-0.048370361
-0.045776367
-0.041809082
-0.036010742
-0.029602051
-0.026092529
-0.021514893
-0.018768311
-0.018768311
-0.021057129
-0.020904541
-0.016174316
-0.018615723
-0.015106201
-0.014038086
-0.011444092
-0.006408691
-0.003814697
-0.004272461
-0.001678467
0.001068115
0.003356934
0.003356934
0.005645752
0.008392334
0.008087158
0.008239746
0.008392334
0.008087158
0.010681152
0.01083374
0.010681152
0.012817383
0.013122559
0.012817383
0.015563965
0.015716553
0.015716553
0.018157959
0.016021729
0.015563965
0.013275146
0.015716553
0.024414063
0.040893555
0.071716309
0.056915283
0.066833496
0.046081543
0.00213623
-0.016174316
-0.009155273
-0.009002686
-0.020141602
-0.02822876
-0.028381348
-0.023498535
-0.020751953
-0.016021729
-0.011291504
-0.006408691
-0.019683838
-0.077514648
-0.034637451
0.235748291
0.925292969
0.851287842
0.053405762
-0.41229248
-0.417785645
-0.24887085
-0.12878418
-0.087432861
-0.067596436
-0.048370361
-0.038299561
-0.031280518
-0.023498535
-0.01159668
-0.000762939
0.010681152
0.019683838
0.030212402
0.042419434
0.056610107
0.071716309
0.089874268
0.110778809
0.13381958
0.154571533
0.17074585
0.18157959
0.179138184
0.148620605
0.082550049
-0.007476807
-0.09475708
-0.160675049
-0.199737549
-0.219421387
-0.224151611
-0.216674805
-0.2003479
-0.185241699
-0.16784668
-0.150909424
-0.134735107
-0.116577148
-0.102081299
-0.082397461
-0.065460205
-0.058898926
-0.051879883
-0.043182373
-0.035705566
-0.030975342
-0.028381348
-0.030822754
-0.028533936
-0.026092529
-0.023651123
-0.018920898
-0.016174316
-0.016174316
-0.011444092
-0.00869751
-0.01373291
-0.006561279
-0.004119873
-0.001373291
-0.001831055
0.000915527
0.005950928
0.008239746
0.005645752
0.000762939
0.002288818
0.005493164
0.005493164
0.005493164
0.005950928
0.005645752
0.00793457
0.008087158
0.008544922
0.008392334
0.012817383
0.012664795
0.012817383
0.015563965
0.015411377
0.012969971
0.010681152
0.008239746
0.010986328
0.008087158
0.014801025
0.028991699
0.060577393
0.056610107
0.06072998
0.052947998
0.004119873
-0.018463135
-0.018920898
-0.011138916
-0.019226074
-0.025787354
-0.023651123
-0.021209717
-0.018768311
-0.016174316
-0.01373291
-0.01373291
-0.021057129
-0.083618164
-0.067749023
0.177612305
0.882720947
0.929412842
0.160522461
-0.366668701
-0.44342041
-0.296783447
-0.155029297
-0.105285645
-0.077819824
-0.060119629
-0.048065186
-0.038146973
-0.025939941
-0.017242432
-0.006866455
0.003356934
0.015411377
0.025177002
0.036773682
0.04699707
0.061798096
0.079040527
0.10055542
0.12512207
0.147399902
0.163574219
0.174407959
0.176849365
0.155487061
0.097045898
0.01159668
-0.076141357
-0.146331787
-0.192260742
-0.214233398
-0.218963623
-0.212097168
-0.197143555
-0.180969238
-0.164031982
-0.146942139
-0.126953125
-0.111541748
-0.097198486
-0.084991455
-0.072631836
-0.065460205
-0.056152344
-0.047912598
-0.043182373
-0.03616333
-0.032043457
-0.026092529
-0.026092529
-0.023498535
-0.018615723
-0.018615723
-0.014038086
-0.016479492
-0.01373291
-0.013885498
-0.011291504
-0.008850098
-0.00869751
-0.009002686
-0.006256104
-0.003967285
0.000915527
0.000915527
0.003356934
0.00579834
0.005950928
0.008087158
0.008544922
0.010528564
0.013275146
0.013275146
0.015716553
0.014648438
0.013122559
0.012969971
0.015258789
0.015563965
0.013427734
0.015411377
0.015563965
0.015563965
0.015869141
0.020294189
0.02822876
0.043945313
0.059356689
0.054473877
0.074157715
0.047912598
0.00579834
-0.013580322
-0.004119873
-0.010986328
-0.021209717
-0.021057129
-0.018768311
-0.01663208
-0.011291504
-0.011291504
-0.009155273
-0.006256104
-0.048828125
-0.079650879
0.022277832
0.469970703
1.056060791
0.549926758
-0.064849854
-0.41229248
-0.407409668
-0.248260498
-0.132446289
-0.087127686
-0.062561035
-0.045471191
-0.032958984
-0.020751953
-0.011291504
-0.004882813
0.003356934
0.012817383
0.020446777
0.030059814
0.039367676
0.047454834
0.058898926
0.078887939
0.098266602
0.120544434
0.142669678
0.157165527
0.164794922
0.161895752
0.128479004
0.066986084
-0.017089844
-0.091400146
-0.145111084
-0.179290771
-0.192565918
-0.190124512
-0.180206299
-0.163726807
-0.149078369
-0.132446289
-0.113830566
-0.09765625
-0.084991455
-0.072784424
-0.062561035
-0.052642822
-0.045471191
-0.043334961
-0.038146973
-0.033416748
-0.030517578
-0.028533936
-0.025939941
-0.021362305
-0.020904541
-0.018615723
-0.018920898
-0.016174316
-0.01373291
-0.011291504
-0.009002686
-0.006408691
-0.001983643
-0.001373291
0.000762939
0.000762939
0.000762939
0.000610352
0.003356934
0.008239746
0.008239746
0.008087158
0.008239746
0.010681152
0.010681152
0.01083374
0.010528564
0.00793457
0.01083374
0.010986328
0.012969971
0.010223389
0.008087158
0.008392334
0.008087158
0.008239746
0.008239746
0.010375977
0.008239746
0.008392334
0.006103516
0.016937256
0.046386719
0.059204102
0.055847168
0.071716309
0.028381348
-0.003509521
-0.015869141
-0.011444092
-0.018768311
-0.02822876
-0.02822876
-0.023498535
-0.021057129
-0.018768311
-0.016174316
-0.013885498
-0.013275146
-0.062103271
-0.077209473
0.077972412
0.627593994
1.087646484
0.103149414
-0.358123779
-0.452728271
-0.316467285
-0.16418457
-0.104522705
-0.076904297
-0.058441162
-0.043334961
-0.031890869
-0.021057129
-0.011444092
-0.001373291
0.01083374
0.020446777
0.029449463
0.039367676
0.051269531
0.065917969
0.081481934
0.10269165
0.125274658
0.147857666
0.164337158
0.171966553
0.174407959
0.152130127
0.093994141
0.01159668
-0.076446533
-0.147705078
-0.194244385
-0.214691162
-0.221710205
-0.216827393
-0.204162598
-0.187530518
-0.16998291
-0.153045654
-0.13381958
-0.1171875
-0.101165771
-0.087432861
-0.075378418
-0.067596436
-0.061035156
-0.055084229
-0.045928955
-0.038299561
-0.033569336
-0.030517578
-0.024108887
-0.023651123
-0.021209717
-0.018768311
-0.018463135
-0.018615723
-0.016021729
-0.01373291
-0.014038086
-0.011291504
-0.008544922
-0.004119873
0.000762939
-0.001678467
0.0
0.003051758
0.005645752
0.00793457
0.010681152
0.013275146
0.015411377
0.018157959
0.017852783
0.015716553
0.015258789
0.014953613
0.013122559
0.01083374
0.010528564
0.012817383
0.015563965
0.013427734
0.016021729
0.013427734
0.013122559
0.013122559
0.015411377
0.015258789
0.017700195
0.024871826
0.048370361
0.056304932
0.054321289
0.065917969
0.025787354
-0.006713867
-0.016326904
-0.010986328
-0.021209717
-0.028381348
-0.028533936
-0.023651123
-0.018920898
-0.01663208
-0.016479492
-0.01373291
-0.016479492
-0.07232666
-0.077819824
0.088500977
0.684356689
1.018981934
0.349884033
-0.22857666
-0.448760986
-0.365142822
-0.203552246
-0.117034912
-0.084533691
-0.065765381
-0.047912598
-0.036010742
-0.028533936
-0.020751953
-0.009002686
0.003356934
0.010681152
0.01739502
0.02532959
0.037078857
0.044708252
0.05645752
0.073547363
0.096435547
0.117492676
0.136871338
0.152130127
0.162200928
0.152435303
0.113220215
0.041809082
-0.035095215
-0.104064941
-0.150909424
-0.177612305
-0.187530518
-0.185089111
-0.173339844
-0.160064697
-0.14541626
-0.131835938
-0.114135742
-0.099945068
-0.084381104
-0.077667236
-0.065307617
-0.060424805
-0.048675537
-0.043182373
-0.037994385
-0.031585693
-0.025939941
-0.023651123
-0.018615723
-0.018615723
-0.021209717
-0.020904541
-0.013885498
-0.011444092
-0.011444092
-0.004425049
-0.001373291
-0.001678467
0.000915527
0.000915527
-0.001525879
0.002593994
0.00289917
0.005645752
0.005950928
0.005950928
0.00579834
0.005645752
0.008239746
0.008239746
0.010986328
0.009918213
0.008087158
0.008087158
0.008392334
0.013122559
0.008239746
0.010375977
0.018463135
0.02822876
0.051116943
0.047912598
0.066680908
0.051422119
0.00793457
-0.015563965
-0.006561279
-0.011138916
-0.023651123
-0.028686523
-0.019226074
-0.018615723
-0.016326904
-0.014038086
-0.009002686
-0.011138916
-0.033874512
-0.0730896
0.001373291
0.316772461
0.989685059
0.706634521
0.091552734
-0.336303711
-0.422363281
-0.29586792
-0.158081055
-0.098876953
-0.072937012
-0.056152344
-0.043945313
-0.028533936
-0.021209717
-0.014343262
-0.006713867
0.001068115
0.008239746
0.015258789
0.025177002
0.032501221
0.044403076
0.06149292
0.083312988
0.102996826
0.115356445
0.130157471
0.141601563
0.144195557
0.121917725
0.071563721
-0.003509521
-0.065765381
-0.119781494
-0.154266357
-0.167999268
-0.170440674
-0.16494751
-0.152435303
-0.142822266
-0.123748779
-0.110168457
-0.092773438
-0.079345703
-0.070037842
-0.062561035
-0.055236816
-0.047912598
-0.043182373
-0.035858154
-0.030822754
-0.030517578
-0.02532959
-0.021362305
-0.021514893
-0.01373291
-0.021057129
-0.01373291
-0.011291504
-0.011138916
-0.01373291
-0.013122559
-0.006561279
-0.006408691
-0.006561279
-0.001831055
-0.001831055
0.000762939
0.000915527
0.003204346
0.005645752
0.005645752
0.005493164
0.005950928
0.007171631
0.005645752
0.011444092
0.038146973
0.044708252
0.046386719
0.068817139
0.032653809
-0.003509521
-0.018920898
-0.006866455
-0.011291504
-0.023803711
-0.021514893
-0.018768311
-0.021057129
-0.015869141
-0.006256104
-0.004119873
-0.005950928
-0.048675537
-0.04776001
0.080566406
0.537261963
0.994110107
0.45715332
-0.099487305
-0.403747559
-0.378112793
-0.229034424
-0.132751465
-0.090179443
-0.064239502
-0.050506592
-0.03326416
-0.025482178
-0.018768311
-0.006866455
0.003051758
0.010528564
0.015563965
0.025634766
0.034790039
0.046386719
0.057525635
0.073547363
0.091247559
0.111236572
0.127105713
0.135192871
0.139770508
0.135345459
0.10055542
0.039825439
-0.037841797
-0.099639893
-0.141906738
-0.167999268
-0.178222656
-0.172576904
-0.165863037
-0.1512146
-0.13671875
-0.115661621
-0.104827881
-0.088806152
-0.077209473
-0.072479248
-0.062255859
-0.055389404
-0.046386719
-0.038146973
-0.030975342
-0.028991699
-0.026092529
-0.023498535
-0.021057129
-0.016174316
-0.016479492
-0.016174316
-0.01159668
-0.011291504
-0.01373291
-0.011444092
-0.00793457
-0.006561279
-0.006713867
-0.004119873
-0.000762939
0.000610352
0.003356934
0.000915527
0.003356934
0.008239746
0.00579834
0.00793457
0.008239746
0.008087158
0.010375977
0.012512207
0.012969971
0.019989014
0.045471191
0.051879883
0.056152344
0.06439209
0.022735596
-0.008392334
-0.014343262
-0.003967285
-0.012207031
-0.023498535
-0.023651123
-0.018310547
-0.013885498
-0.009002686
-0.006408691
-0.003814697
-0.007476807
-0.054473877
-0.039520264
0.125274658
0.655517578
0.993652344
0.336151123
-0.219573975
-0.430297852
-0.345153809
-0.187072754
-0.106658936
-0.076599121
-0.054626465
-0.041046143
-0.031738281
-0.021209717
-0.009002686
0.000762939
0.010681152
0.017089844
0.02456665
0.037078857
0.046844482
0.06072998
0.078277588
0.098266602
0.117797852
0.139923096
0.157165527
0.168914795
0.166625977
0.148162842
0.096893311
0.018768311
-0.065612793
-0.136871338
-0.177612305
-0.202026367
-0.206604004
-0.204620361
-0.189666748
-0.172729492
-0.155944824
-0.141143799
-0.124816895
-0.10635376
-0.08972168
-0.075378418
-0.065155029
-0.055541992
-0.045776367
-0.040740967
-0.038299561
-0.031738281
-0.023956299
-0.018920898
-0.016174316
-0.018615723
-0.016021729
-0.01373291
-0.01373291
-0.01373291
-0.013885498
-0.01373291
-0.011291504
-0.006713867
-0.006408691
-0.006713867
-0.006561279
-0.004119873
-0.001831055
-0.001525879
0.000610352
0.001220703
0.003204346
0.005645752
0.005493164
0.008544922
0.01083374
0.010986328
0.010681152
0.010986328
0.010681152
0.01083374
0.013122559
0.015411377
0.015716553
0.012817383
0.010528564
0.01083374
0.013427734
0.018615723
0.032043457
0.061950684
0.056762695
0.060424805
0.045318604
0.000915527
-0.018768311
-0.011444092
-0.012969971
-0.025177002
-0.028533936
-0.028533936
-0.023956299
-0.021209717
-0.018920898
-0.01373291
-0.011291504
-0.019989014
-0.074157715
-0.033721924
0.213317871
0.876312256
0.889129639
0.126190186
-0.372772217
-0.432739258
-0.28137207
-0.142669678
-0.090637207
-0.066223145
-0.050506592
-0.038909912
-0.028381348
-0.016479492
-0.006408691
0.001068115
0.010681152
0.022583008
0.032806396
0.04196167
0.052337646
0.068359375
0.087585449
0.111846924
0.134735107
0.156097412
0.173187256
0.18157959
0.179290771
0.152893066
0.090637207
0.0050354
-0.082855225
-0.169372559
-0.204467773
-0.219421387
-0.221557617
-0.215301514
-0.200653076
-0.184936523
-0.167999268
-0.151824951
-0.13381958
-0.118865967
-0.102844238
-0.087280273
-0.073242188
-0.062561035
-0.05065918
-0.043334961
-0.038299561
-0.03326416
-0.030975342
-0.026092529
-0.018768311
-0.018768311
-0.018615723
-0.018615723
-0.016326904
-0.016326904
-0.01663208
-0.013885498
-0.013885498
-0.008850098
-0.006561279
-0.006256104
-0.006561279
-0.006103516
-0.003967285
-0.001525879
-0.001373291
0.002288818
0.003204346
0.004882813
0.008087158
0.010681152
0.010681152
0.008239746
0.008239746
0.010986328
0.013275146
0.010681152
0.012359619
0.013427734
0.015716553
0.013275146
0.015411377
0.017547607
0.018005371
0.017852783
0.018005371
0.013122559
0.010986328
0.018005371
0.034484863
0.061645508
0.051879883
0.066375732
0.045471191
0.003662109
-0.017700195
-0.012512207
-0.011291504
-0.021362305
-0.028533936
-0.026092529
-0.023803711
-0.018615723
-0.011749268
-0.011291504
-0.01159668
-0.020141602
-0.078735352
-0.048065186
0.212554932
0.913391113
0.884094238
0.093688965
-0.398254395
-0.431365967
-0.269470215
-0.142822266
-0.095977783
-0.070800781
-0.05279541
-0.041046143
-0.03112793
-0.018920898
-0.008850098
0.000762939
0.012969971
0.023040771
0.035247803
0.043640137
0.053710938
0.066833496
0.083618164
0.103149414
0.12512207
0.146636963
0.164642334
0.176696777
0.174713135
0.150756836
0.090332031
0.004882813
-0.080413818
-0.151672363
-0.194091797
-0.218811035
-0.221557617
-0.214233398
-0.202178955
-0.185241699
-0.162811279
-0.143585205
-0.128631592
-0.11428833
-0.096893311
-0.083007813
-0.070495605
-0.060577393
-0.050811768
-0.042877197
-0.033416748
-0.031280518
-0.025939941
-0.025939941
-0.021362305
-0.019073486
-0.018768311
-0.016326904
-0.016326904
-0.016174316
-0.01663208
-0.013427734
-0.01373291
-0.009002686
-0.009155273
-0.009002686
-0.006561279
-0.004119873
-0.003967285
-0.001678467
0.000762939
0.000915527
0.003051758
0.005950928
0.008239746
0.010375977
0.01083374
0.010375977
0.010681152
0.013122559
0.012969971
0.010528564
0.013122559
0.015716553
0.015411377
0.012817383
0.012969971
0.013275146
0.01083374
0.010681152
0.012969971
0.015563965
0.027008057
0.056610107
0.064697266
0.061645508
0.069122314
0.023498535
-0.009002686
-0.018768311
-0.011444092
-0.016021729
-0.023345947
-0.025787354
-0.020904541
-0.018615723
-0.013885498
-0.011444092
-0.008850098
-0.009002686
-0.049743652
-0.076904297
0.045013428
0.52444458
1.110687256
0.487060547
-0.204620361
-0.455474854
-0.374450684
-0.204772949
-0.119934082
-0.087890625
-0.067901611
-0.055084229
-0.040893555
-0.030517578
-0.018615723
-0.006561279
0.005493164
0.015411377
0.023040771
0.034942627
0.042114258
0.05355835
0.071411133
0.089874268
0.110931396
0.134277344
0.156097412
0.171508789
0.176391602
0.171661377
0.135955811
0.063323975
-0.024414063
-0.107421875
-0.164031982
-0.197296143
-0.212097168
-0.212249756
-0.204620361
-0.18951416
-0.173187256
-0.155487061
-0.139465332
-0.122528076
-0.106811523
-0.091552734
-0.077514648
-0.065155029
-0.055389404
-0.048065186
-0.040740967
-0.035858154
-0.030670166
-0.026092529
-0.023651123
-0.018615723
-0.016479492
-0.016479492
-0.018768311
-0.021362305
-0.018463135
-0.014038086
-0.013885498
-0.010986328
-0.009155273
-0.004425049
-0.001678467
0.000610352
-0.001678467
0.000610352
0.003356934
0.00579834
0.008087158
0.012664795
0.012969971
0.013122559
0.012817383
0.013275146
0.012969971
0.013275146
0.013275146
0.013122559
0.013122559
0.012969971
0.014648438
0.015716553
0.012969971
0.013122559
0.012969971
0.012969971
0.012969971
0.012969971
0.010528564
0.012969971
0.024414063
0.053253174
0.056610107
0.06072998
0.069885254
0.023956299
-0.006103516
-0.018157959
-0.013885498
-0.021514893
-0.028533936
-0.030822754
-0.031280518
-0.025939941
-0.021057129
-0.016174316
-0.016479492
-0.018463135
-0.074157715
-0.078125
0.100402832
0.713653564
1.024017334
0.31036377
-0.276641846
-0.453948975
-0.344848633
-0.147094727
-0.102539063
-0.074920654
-0.055389404
-0.043334961
-0.034332275
-0.024261475
-0.016174316
-0.004272461
0.005950928
0.015106201
0.02456665
0.032653809
0.041656494
0.054016113
0.069122314
0.087738037
0.109863281
0.130462646
0.14755249
0.158538818
0.166778564
0.157775879
0.113372803
0.043182373
-0.041809082
-0.113067627
-0.158233643
-0.186462402
-0.199890137
-0.19744873
-0.18951416
-0.173187256
-0.155487061
-0.139465332
-0.122070313
-0.107116699
-0.094451904
-0.079956055
-0.070037842
-0.062713623
-0.057830811
-0.05279541
-0.038909912
-0.033416748
-0.028686523
-0.023651123
-0.023498535
-0.018768311
-0.021362305
-0.016479492
-0.016326904
-0.018920898
-0.015869141
-0.011444092
-0.00869751
-0.008850098
-0.008850098
-0.003967285
-0.001525879
-0.001678467
0.003051758
0.003356934
0.003204346
0.003356934
0.007324219
0.010681152
0.008392334
0.010681152
0.008392334
0.008239746
0.010681152
0.010681152
0.008087158
0.008392334
0.009918213
0.005950928
0.008087158
0.010528564
0.013427734
0.019683838
0.030212402
0.054321289
0.04699707
0.069122314
0.048065186
0.005340576
-0.011291504
-0.006561279
-0.006866455
-0.016326904
-0.021209717
-0.018768311
-0.01373291
-0.011138916
-0.009155273
-0.006561279
-0.006866455
-0.040588379
-0.075073242
0.011138916
0.385437012
1.027832031
0.618743896
0.009002686
-0.375823975
-0.413360596
-0.266876221
-0.141448975
-0.093383789
-0.072784424
-0.054779053
-0.038452148
-0.030517578
-0.021057129
-0.016174316
-0.008850098
0.000305176
0.010070801
0.015869141
0.025177002
0.038909912
0.051879883
0.06652832
0.08392334
0.10559082
0.127868652
0.139923096
0.14755249
0.152130127
0.12802124
0.07019043
-0.000915527
-0.074310303
-0.13092041
-0.163116455
-0.180053711
-0.184783936
-0.172729492
-0.15625
-0.143585205
-0.126495361
-0.111694336
-0.095062256
-0.082397461
-0.068664551
-0.057678223
-0.050506592
-0.045471191
-0.038146973
-0.030822754
-0.025939941
-0.023498535
-0.021514893
-0.018463135
-0.018615723
-0.018615723
-0.018768311
-0.018615723
-0.012054443
-0.009155273
-0.00869751
-0.006256104
-0.006561279
-0.006561279
-0.003662109
-0.001525879
0.000915527
0.001220703
0.003356934
0.005950928
0.005645752
0.003814697
0.003204346
0.003356934
0.00579834
0.00579834
0.008544922
0.012969971
0.015258789
0.012969971
0.015716553
0.018157959
0.022277832
0.034637451
0.057220459
0.052185059
0.073699951
0.052337646
0.00869751
-0.011749268
-0.009002686
-0.011291504
-0.021362305
-0.025939941
-0.023498535
-0.023498535
-0.018920898
-0.016326904
-0.011291504
-0.00869751
-0.040588379
-0.077972412
0.012207031
0.391998291
1.049804688
0.61050415
-0.045471191
-0.411376953
-0.412902832
-0.254211426
-0.133514404
-0.089416504
-0.065612793
-0.047607422
-0.033416748
-0.024261475
-0.016326904
-0.004272461
0.00579834
0.013275146
0.020904541
0.027770996
0.037689209
0.052185059
0.06362915
0.084075928
0.108337402
0.131835938
0.14755249
0.1612854
0.166778564
0.164489746
0.135650635
0.06729126
-0.01739502
-0.095672607
-0.153045654
-0.190734863
-0.207214355
-0.206756592
-0.195465088
-0.182495117
-0.165252686
-0.148468018
-0.130615234
-0.113677979
-0.097045898
-0.082092285
-0.07019043
-0.05859375
-0.052642822
-0.045166016
-0.037994385
-0.03326416
-0.028686523
-0.026245117
-0.023651123
-0.023803711
-0.021057129
-0.018615723
-0.018463135
-0.016326904
-0.013885498
-0.011138916
-0.010986328
-0.011444092
-0.008850098
-0.006408691
-0.003662109
-0.003814697
-0.001831055
0.001068115
0.003204346
0.003509521
0.005187988
0.003204346
0.005645752
0.008239746
0.008544922
0.008239746
0.008087158
0.010375977
0.008239746
0.010681152
0.010681152
0.010681152
0.008239746
0.01083374
0.010528564
0.010681152
0.010528564
0.019683838
0.049438477
0.063934326
0.061035156
0.076904297
0.035552979
-0.003356934
-0.018615723
-0.01373291
-0.018768311
-0.026092529
-0.025939941
-0.023651123
-0.018920898
-0.016326904
-0.01373291
-0.013885498
-0.016937256
-0.072021484
-0.056304932
0.161590576
0.798492432
0.989532471
0.224914551
-0.340881348
-0.453643799
-0.316467285
-0.166778564
-0.104827881
-0.078125
-0.059661865
-0.046234131
-0.035858154
-0.025634766
-0.016174316
-0.006561279
0.005493164
0.016021729
0.027770996
0.039215088
0.04486084
0.061187744
0.078887939
0.10055542
0.122833252
0.145111084
0.164031982
0.178833008
0.178985596
0.159454346
0.104217529
0.021514893
-0.06652832
-0.138092041
-0.186767578
-0.211791992
-0.219268799
-0.212860107
-0.2003479
-0.184783936
-0.166015625
-0.148925781
-0.133361816
-0.114593506
-0.097503662
-0.084838867
-0.072784424
-0.064849854
-0.053253174
-0.045776367
-0.038452148
-0.033569336
-0.030822754
-0.026245117
-0.023651123
-0.018615723
-0.018768311
-0.016479492
-0.016326904
-0.014038086
-0.013885498
-0.011138916
-0.011291504
-0.009307861
-0.008392334
-0.003967285
-0.001525879
-0.001678467
0.000762939
0.003204346
0.00579834
0.00793457
0.00793457
0.00793457
0.006103516
0.00793457
0.008087158
0.010375977
0.01083374
0.008239746
0.00793457
0.008087158
0.007781982
0.008087158
0.010681152
0.013122559
0.013122559
0.012969971
0.015716553
0.025024414
0.048828125
0.06362915
0.056762695
0.07598877
0.040435791
0.003051758
-0.014038086
-0.006561279
-0.01159668
-0.023803711
-0.02532959
-0.020904541
-0.018615723
-0.016174316
-0.01373291
-0.011291504
-0.015258789
-0.070037842
-0.072937012
0.109405518
0.711517334
1.053771973
0.315551758
-0.29006958
-0.446472168
-0.327453613
-0.17074585
-0.104827881
-0.075836182
-0.05859375
-0.046539307
-0.035705566
-0.023803711
-0.016326904
-0.003967285
0.005950928
0.015411377
0.025482178
0.037841797
0.048675537
0.061950684
0.076904297
0.097808838
0.118408203
0.140228271
0.157470703
0.171051025
0.176696777
0.159606934
0.110321045
0.030975342
-0.057525635
-0.131225586
-0.182189941
-0.207214355
-0.216522217
-0.21194458
-0.201721191
-0.184631348
-0.165405273
-0.148010254
-0.13092041
-0.11428833
-0.099334717
-0.086975098
-0.074615479
-0.061035156
-0.050201416
-0.043334961
-0.038299561
-0.03326416
-0.025939941
-0.021209717
-0.016784668
-0.016021729
-0.013427734
-0.014038086
-0.011291504
-0.011138916
-0.013885498
-0.011291504
-0.012054443
-0.008850098
-0.006713867
-0.006408691
-0.004119873
-0.001373291
0.002441406
0.005645752
0.005645752
0.003356934
0.003204346
0.003662109
0.00579834
0.008087158
0.008239746
0.010528564
0.008087158
0.010375977
0.013122559
0.013122559
0.013275146
0.012969971
0.013580322
0.015411377
0.01739502
0.027160645
0.051879883
0.05859375
0.056304932
0.070800781
0.032958984
0.000305176
-0.011444092
-0.008850098
-0.019073486
-0.028381348
-0.026550293
-0.023956299
-0.021209717
-0.018615723
-0.014038086
-0.009002686
-0.008850098
-0.054473877
-0.079498291
0.051879883
0.558624268
1.102142334
0.462493896
-0.203399658
-0.442352295
-0.358581543
-0.193023682
-0.11428833
-0.082855225
-0.062103271
-0.048217773
-0.036010742
-0.024108887
-0.015716553
-0.008544922
0.000915527
0.012359619
0.020294189
0.030670166
0.041351318
0.052032471
0.068359375
0.085754395
0.108947754
0.130767822
0.149078369
0.161437988
0.169219971
0.163879395
0.121307373
0.04776001
-0.038146973
-0.113677979
-0.165100098
-0.195465088
-0.209503174
-0.207061768
-0.197143555
-0.180053711
-0.160980225
-0.143432617
-0.126647949
-0.112304688
-0.096893311
-0.082855225
-0.070648193
-0.062713623
-0.050354004
-0.043029785
-0.038299561
-0.032653809
-0.028533936
-0.023651123
-0.021362305
-0.021057129
-0.021209717
-0.018615723
-0.01663208
-0.013122559
-0.013580322
-0.015716553
-0.013885498
-0.011444092
-0.00869751
-0.006256104
-0.003967285
-0.001678467
0.001068115
0.003051758
0.001068115
0.000610352
0.003356934
0.005645752
0.005645752
0.005645752
0.008392334
0.00579834
0.008239746
0.010986328
0.012969971
0.015563965
0.015411377
0.015411377
0.015563965
0.020446777
0.023040771
0.038146973
0.059356689
0.051422119
0.071411133
0.045166016
0.00793457
-0.008850098
0.000152588
-0.004272461
-0.013275146
-0.016174316
-0.016479492
-0.013275146
-0.009002686
-0.006561279
-0.004272461
-0.006713867
-0.046234131
-0.077514648
0.01739502
0.446166992
1.044311523
0.553436279
-0.054473877
-0.405731201
-0.409698486
-0.25100708
-0.138397217
-0.093994141
-0.068969727
-0.053405762
-0.0390625
-0.026092529
-0.015563965
-0.014038086
-0.006713867
0.000915527
0.008239746
0.018768311
0.027770996
0.039672852
0.049591064
0.063934326
0.088500977
0.111541748
0.128326416
0.139770508
0.152893066
0.152282715
0.122375488
0.06072998
-0.013427734
-0.082397461
-0.13092041
-0.1612854
-0.177001953
-0.175170898
-0.167694092
-0.155029297
-0.137786865
-0.121917725
-0.10925293
-0.09475708
-0.079193115
-0.07019043
-0.06072998
-0.052032471
-0.04486084
-0.03616333
-0.030670166
-0.028533936
-0.023651123
-0.023956299
-0.023651123
-0.021362305
-0.018463135
-0.023803711
-0.021057129
-0.016479492
-0.016479492
-0.01373291
-0.01083374
-0.009002686
-0.008850098
-0.006561279
-0.003967285
-0.003967285
-0.000152588
0.00793457
0.005645752
0.00579834
0.008087158
0.008087158
0.008087158
0.010528564
0.01083374
0.012969971
0.020446777
0.037078857
0.054168701
0.049591064
0.063934326
0.037078857
-0.004730225
-0.023193359
-0.013885498
-0.011291504
-0.018615723
-0.026397705
-0.023651123
-0.016174316
-0.014038086
-0.009002686
-0.008850098
-0.006408691
-0.043792725
-0.065307617
0.03692627
0.439910889
1.033477783
0.56854248
-0.038452148
-0.394439697
-0.403442383
-0.252685547
-0.140228271
-0.093688965
-0.06942749
-0.052337646
-0.040740967
-0.033111572
-0.023803711
-0.01373291
-0.01159668
-0.003509521
0.010528564
0.015716553
0.021057129
0.032501221
0.04196167
0.060272217
0.078582764
0.094909668
0.116271973
0.122680664
0.127716064
0.12512207
0.103302002
0.046691895
-0.01953125
-0.088195801
-0.140228271
-0.165863037
-0.182342529
-0.177764893
-0.163116455
-0.155944824
-0.141448975
-0.11932373
-0.109863281
-0.091552734
-0.077514648
-0.061950684
-0.059814453
-0.047302246
-0.036010742
-0.035705566
-0.032653809
-0.020751953
-0.016174316
-0.011901855
-0.008544922
-0.011444092
-0.00869751
-0.001373291
-0.007324219
-0.004425049
-0.004119873
-0.003967285
-0.003967285
-0.004119873
-0.001678467
-0.001831055
-0.001525879
0.003356934
0.005950928
0.005645752
0.003356934
0.008087158
0.015716553
0.02532959
0.049133301
0.053253174
0.055084229
0.06072998
0.020141602
-0.011138916
-0.013885498
-0.006561279
-0.01373291
-0.018768311
-0.016174316
-0.010528564
-0.009765625
-0.006561279
0.001068115
-0.001678467
-0.009613037
-0.057678223
-0.021362305
0.16784668
0.757904053
0.887908936
0.29296875
-0.205841064
-0.414581299
-0.334777832
-0.181884766
-0.102539063
-0.073699951
-0.054321289
-0.040740967
-0.033569336
-0.026092529
-0.015411377
-0.011444092
-0.003967285
0.009460449
0.014953613
0.020294189
0.029602051
0.044250488
0.052642822
0.070037842
0.092163086
0.110168457
0.121307373
0.128326416
0.132751465
0.1171875
0.07598877
0.012969971
-0.053405762
-0.1121521
-0.148162842
-0.162658691
-0.16784668
-0.165405273
-0.155944824
-0.140838623
-0.125427246
-0.11138916
-0.100708008
-0.082550049
-0.067901611
-0.057830811
-0.05065918
-0.038299561
-0.030822754
-0.028381348
-0.023803711
-0.023651123
-0.023651123
-0.018920898
-0.015869141
-0.01373291
-0.013885498
-0.013580322
-0.011138916
-0.008544922
-0.008850098
-0.009155273
-0.008850098
-0.009155273
-0.003967285
-0.006561279
-0.008850098
-0.006713867
-0.006408691
-0.001525879
-0.001373291
0.00289917
0.013885498
0.035858154
0.054321289
0.053863525
0.066680908
0.024719238
-0.010070801
-0.021057129
-0.006561279
-0.011291504
-0.020904541
-0.025787354
-0.02166748
-0.018615723
-0.011444092
-0.009002686
-0.006408691
-0.006561279
-0.046234131
-0.047454834
0.082244873
0.529174805
1.036834717
0.451049805
-0.150299072
-0.428161621
-0.373535156
-0.212249756
-0.115814209
-0.079498291
-0.05569458
-0.038452148
-0.025024414
-0.019073486
-0.009155273
-0.003356934
0.005493164
0.015411377
0.024871826
0.034790039
0.049438477
0.061950684
0.077209473
0.097961426
0.117645264
0.134735107
0.151062012
0.158996582
0.158538818
0.139160156
0.092926025
0.01663208
-0.065765381
-0.132293701
-0.176544189
-0.199737549
-0.204620361
-0.199737549
-0.188751221
-0.16784668
-0.152130127
-0.134735107
-0.121459961
-0.106658936
-0.092315674
-0.077362061
-0.061645508
-0.050811768
-0.038909912
-0.028533936
-0.026092529
-0.021209717
-0.018920898
-0.013885498
-0.011444092
-0.01373291
-0.014038086
-0.013580322
-0.013885498
-0.013885498
-0.01373291
-0.01159668
-0.00869751
-0.006713867
-0.003967285
-0.006256104
-0.006561279
-0.004272461
-0.001831055
-0.001220703
0.003509521
0.005950928
0.004425049
0.007781982
0.008239746
0.008239746
0.010986328
0.010681152
0.013122559
0.013122559
0.010681152
0.015106201
0.020141602
0.030212402
0.055389404
0.056762695
0.067138672
0.065765381
0.019683838
-0.006103516
-0.010375977
-0.004882813
-0.01373291
-0.023498535
-0.019989014
-0.016326904
-0.016326904
-0.011444092
-0.006713867
-0.006713867
-0.012512207
-0.064849854
-0.029296875
0.183868408
0.79864502
0.933074951
0.187683105
-0.333862305
-0.443572998
-0.309906006
-0.158996582
-0.096282959
-0.067443848
-0.051879883
-0.038452148
-0.02822876
-0.01739502
-0.006256104
0.003204346
0.010375977
0.018157959
0.027770996
0.039672852
0.049133301
0.066375732
0.0831604
0.104370117
0.127563477
0.147247314
0.164031982
0.174255371
0.168609619
0.143585205
0.08895874
0.00793457
-0.076599121
-0.145568848
-0.18447876
-0.207061768
-0.21194458
-0.204620361
-0.1902771
-0.175628662
-0.158081055
-0.141143799
-0.126495361
-0.109558105
-0.093383789
-0.079803467
-0.067749023
-0.055236816
-0.045776367
-0.037231445
-0.028381348
-0.023803711
-0.021362305
-0.018463135
-0.016021729
-0.014190674
-0.01373291
-0.014190674
-0.013885498
-0.014038086
-0.011444092
-0.011749268
-0.00869751
-0.008850098
-0.006256104
-0.004577637
-0.001373291
0.000762939
-0.001525879
0.001068115
0.000915527
0.003204346
0.003509521
0.00579834
0.003509521
0.003051758
0.005950928
0.008087158
0.010681152
0.008392334
0.008544922
0.010681152
0.012969971
0.013122559
0.013122559
0.010375977
0.01083374
0.010681152
0.012969971
0.017700195
0.034790039
0.060577393
0.054168701
0.071563721
0.046539307
0.003662109
-0.017242432
-0.014038086
-0.013580322
-0.021362305
-0.028381348
-0.028686523
-0.023651123
-0.021057129
-0.021209717
-0.016326904
-0.01373291
-0.026855469
-0.071716309
-0.01159668
0.282592773
0.985412598
0.764770508
-0.004577637
-0.419464111
-0.410003662
-0.243682861
-0.123138428
-0.082397461
-0.060577393
-0.045318604
-0.033569336
-0.023651123
-0.012512207
-0.004119873
0.008239746
0.020751953
0.030059814
0.039215088
0.049438477
0.06362915
0.078887939
0.097198486
0.118713379
0.142059326
0.159454346
0.174560547
0.178833008
0.171966553
0.141601563
0.076904297
-0.01083374
-0.097351074
-0.164031982
-0.204162598
-0.221710205
-0.226593018
-0.219421387
-0.202484131
-0.185394287
-0.169219971
-0.153198242
-0.136413574
-0.119018555
-0.10055542
-0.085144043
-0.074920654
-0.063781738
-0.05065918
-0.043487549
-0.037231445
-0.030822754
-0.024871826
-0.023803711
-0.021057129
-0.018463135
-0.018920898
-0.018615723
-0.018463135
-0.016326904
-0.016174316
-0.014038086
-0.00869751
-0.004272461
-0.001831055
0.000762939
0.000762939
0.000915527
-0.001373291
0.000915527
0.003204346
0.005645752
0.010681152
0.010681152
0.01083374
0.010528564
0.010681152
0.012969971
0.013122559
0.010375977
0.010681152
0.01083374
0.011901855
0.015411377
0.015411377
0.013427734
0.015258789
0.015411377
0.015563965
0.015563965
0.019989014
0.037231445
0.06652832
0.054473877
0.073547363
0.053710938
0.011138916
-0.013580322
-0.014038086
-0.016174316
-0.026245117
-0.028839111
-0.028533936
-0.023803711
-0.018615723
-0.017547607
-0.014038086
-0.011444092
-0.024414063
-0.079650879
-0.025787354
0.275726318
0.99609375
0.787658691
0.003814697
-0.420532227
-0.416107178
-0.246734619
-0.131378174
-0.08895874
-0.070037842
-0.056610107
-0.041046143
-0.027313232
-0.016326904
-0.007019043
0.005645752
0.018157959
0.027770996
0.038604736
0.049438477
0.059204102
0.073699951
0.089416504
0.111846924
0.136413574
0.155944824
0.171661377
0.181427002
0.180358887
0.151519775
0.088195801
0.001525879
-0.08682251
-0.156555176
-0.20111084
-0.220184326
-0.224304199
-0.216674805
-0.202178955
-0.186157227
-0.167999268
-0.149841309
-0.131072998
-0.115356445
-0.099945068
-0.084686279
-0.07019043
-0.060424805
-0.050506592
-0.042266846
-0.038299561
-0.033416748
-0.028991699
-0.025939941
-0.023498535
-0.023803711
-0.021362305
-0.016326904
-0.016479492
-0.013885498
-0.011444092
-0.008544922
-0.009155273
-0.005187988
-0.001678467
0.002288818
0.005645752
0.006103516
0.00579834
0.003356934
0.003051758
0.00289917
0.003051758
0.003204346
0.005493164
0.008087158
0.008087158
0.01083374
0.010375977
0.011138916
0.012054443
0.013122559
0.014953613
0.012969971
0.010681152
0.010528564
0.012817383
0.013427734
0.013122559
0.013122559
0.015869141
0.025177002
0.055084229
0.064086914
0.064086914
0.074157715
0.03036499
-0.003662109
-0.016326904
-0.011138916
-0.018615723
-0.026245117
-0.026092529
-0.021057129
-0.018615723
-0.016326904
-0.014190674
-0.013885498
-0.024719238
-0.086975098
-0.058288574
0.221405029
0.955352783
0.854797363
0.071563721
-0.400695801
-0.425262451
-0.266113281
-0.13885498
-0.088806152
-0.065307617
-0.048065186
-0.036010742
-0.028533936
-0.01739502
-0.007629395
0.000610352
0.01083374
0.024261475
0.032501221
0.039672852
0.05065918
0.066375732
0.085906982
0.106964111
0.129394531
0.151367188
0.166625977
0.178833008
0.178985596
0.157165527
0.100708008
0.015411377
-0.072784424
-0.144348145
-0.18951416
-0.218200684
-0.226745605
-0.223999023
-0.209655762
-0.188598633
-0.169219971
-0.149536133
-0.132293701
-0.114746094
-0.101928711
-0.087127686
-0.072631836
-0.062866211
-0.055084229
-0.048217773
-0.040893555
-0.035705566
-0.030822754
-0.026092529
-0.021514893
-0.018768311
-0.016174316
-0.016326904
-0.013885498
-0.011291504
-0.011138916
-0.011291504
-0.011138916
-0.009155273
-0.006561279
-0.001678467
-0.000457764
0.003051758
0.003356934
0.003356934
0.00579834
0.008087158
0.008239746
0.008239746
0.010681152
0.010375977
0.008239746
0.00793457
0.010681152
0.010528564
0.01083374
0.010375977
0.010375977
0.012817383
0.013122559
0.012664795
0.013122559
0.012817383
0.010986328
0.015563965
0.031738281
0.061645508
0.056610107
0.070648193
0.060424805
0.01663208
-0.008850098
-0.014190674
-0.012969971
-0.023345947
-0.030975342
-0.026092529
-0.023345947
-0.018768311
-0.016174316
-0.016174316
-0.016479492
-0.068664551
-0.087585449
0.068054199
0.642242432
1.076965332
0.382232666
-0.248565674
-0.458679199
-0.359954834
-0.192565918
-0.113067627
-0.08026123
-0.059204102
-0.04776001
-0.033721924
-0.023651123
-0.01373291
-0.001678467
0.00579834
0.01083374
0.021972656
0.033721924
0.044403076
0.054016113
0.070495605
0.088195801
0.110168457
0.130157471
0.1512146
0.163116455
0.171356201
0.169219971
0.133514404
0.06072998
-0.023956299
-0.098266602
-0.161437988
-0.196075439
-0.209655762
-0.209350586
-0.200195313
-0.182800293
-0.156555176
-0.140838623
-0.124206543
-0.109405518
-0.09475708
-0.081176758
-0.071258545
-0.065460205
-0.060424805
-0.052947998
-0.045318604
-0.040435791
-0.036010742
-0.03112793
-0.030975342
-0.028533936
-0.025939941
-0.021209717
-0.016174316
-0.016479492
-0.01083374
-0.01159668
-0.009155273
-0.006408691
-0.004119873
-0.001220703
0.000915527
0.002593994
0.003204346
0.003509521
0.003051758
0.000762939
0.005645752
0.010681152
0.008239746
0.01083374
0.010528564
0.01083374
0.012969971
0.013275146
0.010528564
0.014953613
0.010528564
0.012207031
0.010681152
0.015716553
0.013275146
0.015258789
0.02746582
0.053253174
0.049438477
0.063018799
0.063018799
0.024108887
-0.001373291
-0.006103516
-0.004119873
-0.01373291
-0.023040771
-0.023803711
-0.018768311
-0.016021729
-0.009307861
-0.00869751
-0.011444092
-0.05569458
-0.084381104
0.018157959
0.467987061
1.037902832
0.540771484
-0.064086914
-0.408935547
-0.410919189
-0.254669189
-0.135955811
-0.088500977
-0.062713623
-0.046539307
-0.030670166
-0.021057129
-0.014801025
-0.006561279
0.000915527
0.007019043
0.018005371
0.02746582
0.03616333
0.043334961
0.054473877
0.070800781
0.088653564
0.110168457
0.131835938
0.144805908
0.152282715
0.151977539
0.132751465
0.07598877
-0.000305176
-0.073852539
-0.132598877
-0.16784668
-0.184173584
-0.182342529
-0.171356201
-0.163116455
-0.146942139
-0.131530762
-0.116729736
-0.099639893
-0.082550049
-0.074920654
-0.067749023
-0.057830811
-0.055084229
-0.050354004
-0.043182373
-0.038452148
-0.033416748
-0.028533936
-0.028533936
-0.028686523
-0.025787354
-0.023803711
-0.023498535
-0.021209717
-0.016326904
-0.01373291
-0.009002686
-0.003814697
-0.006408691
-0.006408691
-0.004119873
-0.001373291
0.000915527
0.003051758
0.003662109
0.00579834
0.005645752
0.010681152
0.013122559
0.012969971
0.013122559
0.015563965
0.013122559
0.012969971
0.017852783
0.029754639
0.055847168
0.051879883
0.068054199
0.057830811
0.015411377
-0.011138916
-0.01159668
-0.00793457
-0.018005371
-0.026245117
-0.02243042
-0.02166748
-0.013885498
-0.01159668
-0.006408691
-0.012969971
-0.066833496
-0.066375732
0.104827881
0.688323975
0.992889404
0.343933105
-0.215606689
-0.442810059
-0.363616943
-0.193939209
-0.107727051
-0.073852539
-0.05065918
-0.0390625
-0.030822754
-0.016937256
-0.009002686
-0.001678467
0.005950928
0.015716553
0.022735596
0.034332275
0.04486084
0.056762695
0.073242188
0.090179443
0.10559082
0.128936768
0.148925781
0.157165527
0.164337158
0.154571533
0.116271973
0.046081543
-0.031433105
-0.107879639
-0.159912109
-0.187988281
-0.19744873
-0.197143555
-0.182800293
-0.168914795
-0.152893066
-0.13458252
-0.116882324
-0.099487305
-0.087127686
-0.073394775
-0.062713623
-0.055084229
-0.050506592
-0.045623779
-0.038299561
-0.033416748
-0.030975342
-0.028686523
-0.028533936
-0.026092529
-0.026092529
-0.023803711
-0.021514893
-0.021057129
-0.018920898
-0.018463135
-0.014190674
-0.008850098
-0.006103516
-0.004119873
-0.001678467
0.000152588
-0.001525879
-0.003814697
-0.001525879
0.000610352
0.000915527
0.003509521
0.003204346
0.006256104
0.008239746
0.00579834
0.008239746
0.007781982
0.010986328
0.013275146
0.020599365
0.039215088
0.062103271
0.054321289
0.074005127
0.042877197
0.001373291
-0.018920898
-0.01373291
-0.012054443
-0.021209717
-0.025634766
-0.023651123
-0.020751953
-0.018615723
-0.013885498
-0.011291504
-0.025177002
-0.079956055
-0.03036499
0.269927979
0.991516113
0.80078125
0.052337646
-0.398864746
-0.435180664
-0.2784729
-0.144958496
-0.093078613
-0.068511963
-0.050201416
-0.035705566
-0.023956299
-0.01373291
-0.003814697
0.00579834
0.013427734
0.022888184
0.030059814
0.039520264
0.051727295
0.06652832
0.083770752
0.103302002
0.127868652
0.149078369
0.166015625
0.176239014
0.172576904
0.147857666
0.090332031
0.006713867
-0.076751709
-0.145568848
-0.191497803
-0.21194458
-0.21697998
-0.209503174
-0.194854736
-0.178070068
-0.160980225
-0.143432617
-0.123596191
-0.107727051
-0.092468262
-0.079956055
-0.067596436
-0.057830811
-0.053253174
-0.045776367
-0.040740967
-0.035705566
-0.03112793
-0.028381348
-0.025787354
-0.023651123
-0.020904541
-0.021362305
-0.018768311
-0.018310547
-0.016174316
-0.016174316
-0.016174316
-0.01373291
-0.008850098
-0.006256104
-0.004119873
-0.003204346
-0.001373291
0.003051758
0.00579834
0.003051758
0.005950928
0.008544922
0.010681152
0.013122559
0.013122559
0.013122559
0.012664795
0.010528564
0.010986328
0.013275146
0.019683838
0.036773682
0.066223145
0.054321289
0.069122314
0.054931641
0.009155273
-0.011749268
-0.011291504
-0.009002686
-0.018615723
-0.023651123
-0.023803711
-0.021057129
-0.016479492
-0.011444092
-0.008850098
-0.014038086
-0.073852539
-0.07019043
0.125427246
0.751342773
1.035003662
0.288848877
-0.305023193
-0.451507568
-0.329437256
-0.171203613
-0.107116699
-0.08026123
-0.060272217
-0.045471191
-0.03326416
-0.023651123
-0.01373291
-0.004119873
0.007629395
0.017852783
0.025482178
0.034790039
0.04699707
0.061798096
0.076751709
0.094146729
0.117492676
0.139923096
0.166168213
0.174102783
0.173950195
0.150146484
0.090026855
0.006713867
-0.076141357
-0.142974854
-0.187072754
-0.205078125
-0.207061768
-0.199890137
-0.190582275
-0.17578125
-0.160369873
-0.144195557
-0.128173828
-0.109863281
-0.095214844
-0.080566406
-0.070037842
-0.063323975
-0.054931641
-0.048217773
-0.040740967
-0.03326416
-0.030670166
-0.028533936
-0.025787354
-0.026092529
-0.026092529
-0.026245117
-0.023498535
-0.018768311
-0.018310547
-0.016174316
-0.01663208
-0.016174316
-0.013885498
-0.013885498
-0.009002686
-0.006713867
-0.006561279
-0.001525879
-0.001678467
0.003356934
0.00579834
0.003356934
0.003204346
0.003356934
0.003509521
0.003051758
0.007476807
0.008239746
0.008544922
0.003204346
0.007781982
0.022735596
0.032806396
0.056915283
0.051879883
0.065917969
0.057067871
0.01373291
-0.009307861
-0.006713867
-0.001678467
-0.013885498
-0.016021729
-0.016326904
-0.016174316
-0.01373291
-0.006256104
-0.001373291
-0.003662109
-0.066833496
-0.056610107
0.109100342
0.698699951
0.950317383
0.335388184
-0.200958252
-0.436096191
-0.362701416
-0.199279785
-0.110626221
-0.072784424
-0.052947998
-0.040740967
-0.028533936
-0.021057129
-0.016174316
0.000152588
0.008239746
0.013427734
0.019683838
0.028076172
0.032653809
0.045166016
0.059356689
0.076141357
0.093383789
0.115814209
0.134277344
0.144805908
0.147247314
0.140686035
0.104064941
0.039978027
-0.030975342
-0.094146729
-0.138244629
-0.167236328
-0.170288086
-0.167999268
-0.157623291
-0.143737793
-0.13092041
-0.112457275
-0.099334717
-0.082092285
-0.072937012
-0.065307617
-0.053253174
-0.048065186
-0.038757324
-0.035552979
-0.03326416
-0.026092529
-0.023498535
-0.025939941
-0.021057129
-0.018615723
-0.018920898
-0.018615723
-0.016174316
-0.014343262
-0.008544922
-0.013885498
-0.006866455
-0.003967285
-0.006561279
-0.003967285
-0.006256104
-0.001525879
-0.003814697
-0.004119873
-0.001525879
0.003356934
0.000915527
0.003356934
0.003204346
0.013122559
0.027770996
0.049591064
0.044555664
0.063934326
0.052490234
0.00869751
-0.01373291
-0.008850098
-0.01373291
-0.016021729
-0.021362305
-0.023498535
-0.01373291
-0.006866455
-0.006713867
-0.006561279
-0.006713867
-0.052337646
-0.045928955
0.074920654
0.493774414
0.966644287
0.492401123
-0.0390625
-0.37109375
-0.383605957
-0.24230957
-0.131225586
-0.087738037
-0.068359375
-0.05065918
-0.035247803
-0.026092529
-0.019073486
-0.016326904
-0.005950928
0.000762939
0.011901855
0.018005371
0.030212402
0.037689209
0.04196167
0.058746338
0.081176758
0.099487305
0.111694336
0.120544434
0.127410889
0.125274658
0.097503662
0.047302246
-0.009613037
-0.073394775
-0.115661621
-0.140686035
-0.155334473
-0.146179199
-0.143432617
-0.133972168
-0.121917725
-0.103149414
-0.086212158
-0.075073242
-0.065307617
-0.053100586
-0.04776001
-0.037994385
-0.038146973
-0.028533936
-0.023651123
-0.028839111
-0.023651123
-0.023803711
-0.019989014
-0.014190674
-0.01159668
-0.009002686
-0.009002686
-0.011138916
-0.011291504
-0.006713867
-0.008850098
-0.003967285
-0.001678467
-0.001831055
-0.001373291
-0.004272461
-0.001678467
0.005645752
0.015258789
0.029144287
0.049591064
0.042114258
0.061645508
0.038757324
-0.000457764
-0.014038086
-0.005187988
-0.007629395
-0.016174316
-0.021362305
-0.018768311
-0.018768311
-0.013885498
-0.006256104
-0.006408691
-0.006713867
-0.0440979
-0.044708252
0.072784424
0.483093262
0.978240967
0.491027832
-0.045928955
-0.378417969
-0.374755859
-0.229492188
-0.122833252
-0.082397461
-0.061340332
-0.04196167
-0.035705566
-0.025787354
-0.018310547
-0.011138916
-0.006561279
0.008239746
0.015411377
0.025024414
0.030212402
0.040740967
0.056304932
0.071411133
0.089569092
0.107116699
0.124053955
0.130004883
0.130462646
0.122680664
0.092468262
0.034484863
-0.032348633
-0.092926025
-0.137329102
-0.160675049
-0.16784668
-0.172729492
-0.161743164
-0.145874023
-0.133361816
-0.118865967
-0.101928711
-0.088500977
-0.073699951
-0.063781738
-0.052642822
-0.045928955
-0.038452148
-0.033111572
-0.030975342
-0.026245117
-0.023498535
-0.021057129
-0.023498535
-0.021057129
-0.019073486
-0.021209717
-0.021209717
-0.016326904
-0.01373291
-0.014038086
-0.006408691
-0.008850098
-0.004272461
-0.003967285
-0.001525879
0.000915527
0.000915527
0.001068115
0.000762939
0.000915527
0.001068115
0.003356934
0.007019043
0.01953125
0.046844482
0.052032471
0.056762695
0.06439209
0.021514893
-0.010528564
-0.021209717
-0.006408691
-0.01373291
-0.023345947
-0.021057129
-0.018615723
-0.018768311
-0.014038086
-0.011291504
-0.01159668
-0.009002686
-0.051422119
-0.051727295
0.098876953
0.569763184
1.016235352
0.399017334
-0.184936523
-0.435180664
-0.367279053
-0.203857422
-0.110473633
-0.077972412
-0.057678223
-0.039520264
-0.028686523
-0.019073486
-0.010986328
-0.001525879
0.004882813
0.014343262
0.027923584
0.035095215
0.044403076
0.06072998
0.08102417
0.08605957
0.086212158
0.143585205
0.157165527
0.162200928
0.155029297
0.130615234
0.072631836
-0.002746582
-0.081176758
-0.146942139
-0.184783936
-0.206298828
-0.209350586
-0.202331543
-0.187530518
-0.168914795
-0.15335083
-0.141906738
-0.124053955
-0.107879639
-0.089416504
-0.074005127
-0.060577393
-0.046234131
-0.036010742
-0.033721924
-0.028381348
-0.023651123
-0.023956299
-0.018615723
-0.021209717
-0.021514893
-0.018463135
-0.01739502
-0.016479492
-0.013885498
-0.014038086
-0.01159668
-0.011291504
-0.01159668
-0.009155273
-0.007476807
-0.006408691
-0.004119873
-0.003967285
0.001983643
0.005950928
0.00579834
0.005950928
0.008087158
0.012969971
0.010528564
0.01083374
0.013122559
0.015258789
0.015563965
0.015563965
0.015411377
0.015716553
0.015869141
0.018310547
0.015716553
0.015563965
0.018005371
0.018005371
0.020294189
0.027618408
0.058746338
0.055541992
0.060272217
0.05065918
0.007019043
-0.017547607
-0.014953613
-0.006561279
-0.013580322
-0.023498535
-0.023803711
-0.021209717
-0.01663208
-0.012054443
-0.008850098
-0.006256104
-0.011291504
-0.064239502
-0.030975342
0.186004639
0.813598633
0.942077637
0.174102783
-0.353088379
-0.434265137
-0.292663574
-0.146026611
-0.089569092
-0.065155029
-0.048370361
-0.036010742
-0.026245117
-0.01373291
-0.001831055
0.010528564
0.018005371
0.027770996
0.034942627
0.044708252
0.056152344
0.072631836
0.090637207
0.110321045
0.131530762
0.151977539
0.169372559
0.178985596
0.174102783
0.150756836
0.095062256
0.015716553
-0.07232666
-0.14465332
-0.200958252
-0.221405029
-0.231628418
-0.223846436
-0.207366943
-0.19241333
-0.175628662
-0.156707764
-0.141143799
-0.119781494
-0.104370117
-0.085906982
-0.072479248
-0.062713623
-0.05065918
-0.043182373
-0.036010742
-0.03326416
-0.025634766
-0.021209717
-0.021057129
-0.018615723
-0.021057129
-0.021209717
-0.021209717
-0.018463135
-0.018920898
-0.016326904
-0.014190674
-0.01373291
-0.011444092
-0.006408691
-0.006561279
-0.004272461
0.000762939
0.000610352
0.003356934
0.003051758
0.003509521
0.005493164
0.008087158
0.011901855
0.013122559
0.012664795
0.012817383
0.013122559
0.013122559
0.012969971
0.013275146
0.012969971
0.013122559
0.01083374
0.01083374
0.010681152
0.012969971
0.015563965
0.015716553
0.013275146
0.020446777
0.040740967
0.064086914
0.051879883
0.067443848
0.038757324
-0.003814697
-0.023803711
-0.012512207
-0.01373291
-0.023651123
-0.030975342
-0.030822754
-0.020751953
-0.014190674
-0.012664795
-0.009155273
-0.008850098
-0.038452148
-0.072479248
0.02746582
0.425109863
1.097412109
0.580291748
-0.159912109
-0.452880859
-0.376281738
-0.205993652
-0.115966797
-0.077819824
-0.058288574
-0.045623779
-0.037994385
-0.023651123
-0.011291504
-0.001983643
0.00793457
0.018005371
0.032958984
0.044403076
0.054168701
0.071105957
0.085906982
0.105438232
0.127563477
0.149536133
0.166931152
0.178070068
0.176391602
0.162811279
0.117950439
0.043640137
-0.043029785
-0.122833252
-0.181121826
-0.213165283
-0.226745605
-0.226898193
-0.216674805
-0.20324707
-0.186004639
-0.165557861
-0.146942139
-0.129089355
-0.112609863
-0.093688965
-0.079803467
-0.067596436
-0.057678223
-0.048065186
-0.040893555
-0.035705566
-0.033721924
-0.02822876
-0.025787354
-0.023651123
-0.023803711
-0.020904541
-0.021362305
-0.020904541
-0.018463135
-0.016174316
-0.014038086
-0.01159668
-0.009002686
-0.004272461
-0.003967285
-0.003814697
-0.001678467
0.000610352
0.000915527
0.000457764
0.003051758
0.003051758
0.008087158
0.008239746
0.005950928
0.00793457
0.010528564
0.010681152
0.012969971
0.012969971
0.012817383
0.013122559
0.013122559
0.01083374
0.010986328
0.008239746
0.01083374
0.010681152
0.01083374
0.012054443
0.015563965
0.032196045
0.067596436
0.059356689
0.071258545
0.063018799
0.014648438
-0.01373291
-0.017242432
-0.016326904
-0.023956299
-0.030822754
-0.030975342
-0.027008057
-0.023498535
-0.019073486
-0.016174316
-0.013580322
-0.043182373
-0.084533691
0.005950928
0.40512085
1.101226807
0.609130859
-0.130157471
-0.447540283
-0.384674072
-0.213317871
-0.118103027
-0.079803467
-0.060424805
-0.046081543
-0.035400391
-0.021514893
-0.01159668
-0.004272461
0.004882813
0.015563965
0.027618408
0.037841797
0.052185059
0.061798096
0.076446533
0.076141357
0.076599121
0.13168335
0.161895752
0.176544189
0.183868408
0.179443359
0.1512146
0.088653564
0.003814697
-0.082550049
-0.15335083
-0.19821167
-0.22064209
-0.226593018
-0.216827393
-0.202026367
-0.185394287
-0.165557861
-0.14831543
-0.131530762
-0.114440918
-0.090942383
-0.077514648
-0.065002441
-0.065307617
-0.050811768
-0.041656494
-0.035705566
-0.033569336
-0.028533936
-0.025939941
-0.023498535
-0.020904541
-0.023956299
-0.018310547
-0.016174316
-0.016021729
-0.016479492
-0.01373291
-0.01159668
-0.010375977
-0.003967285
-0.006561279
-0.006713867
-0.004272461
-0.001831055
0.000762939
0.000915527
0.003204346
0.003356934
0.005493164
0.003509521
0.008239746
0.012969971
0.013122559
0.013122559
0.011901855
0.012817383
0.012969971
0.013122559
0.013427734
0.013122559
0.013122559
0.012969971
0.015563965
0.015869141
0.015563965
0.015563965
0.013122559
0.013122559
0.024414063
0.052947998
0.064239502
0.060577393
0.074157715
0.0340271
-0.0050354
-0.018615723
-0.01373291
-0.020904541
-0.032958984
-0.033569336
-0.028533936
-0.023651123
-0.018615723
-0.01663208
-0.016326904
-0.029754639
-0.088348389
-0.054321289
0.234832764
0.970611572
0.847930908
0.072937012
-0.396270752
-0.434570313
-0.216064453
-0.120391846
-0.08392334
-0.062713623
-0.048217773
-0.039520264
-0.025787354
-0.016326904
-0.006866455
0.005645752
0.015869141
0.02532959
0.032653809
0.044555664
0.056610107
0.071258545
0.088348389
0.111846924
0.136413574
0.158233643
0.171661377
0.183868408
0.179290771
0.152435303
0.088806152
0.003509521
-0.083007813
-0.149536133
-0.191955566
-0.216674805
-0.224304199
-0.215148926
-0.204467773
-0.187530518
-0.17074585
-0.151977539
-0.135955811
-0.117950439
-0.101776123
-0.087127686
-0.071563721
-0.065307617
-0.05645752
-0.048217773
-0.041046143
-0.038452148
-0.031280518
-0.026550293
-0.026245117
-0.026092529
-0.023498535
-0.021209717
-0.018615723
-0.016326904
-0.018768311
-0.016021729
-0.009155273
-0.007324219
-0.006408691
-0.003662109
-0.003662109
-0.001678467
-0.001373291
0.000762939
0.003509521
0.003356934
0.005493164
0.005645752
0.008087158
0.01083374
0.010528564
0.012969971
0.015716553
0.015563965
0.013122559
0.015258789
0.013122559
0.013122559
0.012969971
0.012969971
0.01083374
0.010223389
0.010681152
0.01083374
0.010528564
0.010681152
0.012817383
0.013122559
0.015563965
0.025482178
0.054016113
0.052032471
0.062561035
0.061950684
0.017089844
-0.00869751
-0.015106201
-0.016479492
-0.025939941
-0.029754639
-0.028381348
-0.023803711
-0.021209717
-0.016326904
-0.011444092
-0.013885498
-0.051269531
-0.094451904
0.003967285
0.456542969
1.112365723
0.566711426
-0.136413574
-0.446472168
-0.391845703
-0.220947266
-0.127716064
-0.090026855
-0.067596436
-0.050811768
-0.037994385
-0.028533936
-0.019073486
-0.009307861
0.0
0.010681152
0.015258789
0.027313232
0.037689209
0.049438477
0.065307617
0.083465576
0.104370117
0.127563477
0.147247314
0.166320801
0.176544189
0.174255371
0.152435303
0.093536377
0.008239746
-0.078430176
-0.14465332
-0.181274414
-0.202178955
-0.207061768
-0.200958252
-0.187835693
-0.171356201
-0.151824951
-0.135040283
-0.121459961
-0.104522705
-0.092163086
-0.079650879
-0.072479248
-0.060424805
-0.052947998
-0.048370361
-0.040588379
-0.033874512
-0.028381348
-0.026092529
-0.026092529
-0.023651123
-0.021362305
-0.021362305
-0.019073486
-0.016326904
-0.011444092
-0.009002686
-0.013580322
-0.01159668
-0.006256104
-0.006408691
-0.003662109
-0.001525879
-0.001678467
0.000457764
0.005645752
0.00579834
0.008239746
0.010681152
0.005950928
0.005645752
0.008239746
0.010528564
0.01083374
0.005950928
0.003051758
0.008239746
0.008392334
0.008087158
0.008087158
0.012969971
0.01083374
0.010681152
0.013122559
0.010681152
0.010375977
0.016937256
0.026855469
0.046844482
0.047912598
0.057830811
0.062866211
0.019073486
-0.010986328
-0.016326904
-0.006408691
-0.018463135
-0.026092529
-0.025939941
-0.023498535
-0.016784668
-0.016174316
-0.013275146
-0.010986328
-0.043029785
-0.086975098
-0.015563965
0.363769531
0.971069336
0.968933105
0.119476318
-0.331726074
-0.426940918
-0.284576416
-0.152740479
-0.101013184
-0.071258545
-0.055541992
-0.043334961
-0.036010742
-0.026245117
-0.021362305
-0.011444092
-0.004119873
0.007171631
0.01739502
0.027923584
0.031433105
0.039825439
0.056915283
0.078582764
0.098266602
0.11932373
0.136566162
0.144500732
0.144958496
0.131072998
0.08605957
0.01739502
-0.056152344
-0.113067627
-0.155487061
-0.176391602
-0.182647705
-0.180206299
-0.165405273
-0.150756836
-0.134429932
-0.119171143
-0.104370117
-0.093078613
-0.082244873
-0.074920654
-0.065002441
-0.057678223
-0.051269531
-0.050354004
-0.050506592
-0.043487549
-0.037841797
-0.03112793
-0.028381348
-0.026397705
-0.021057129
-0.018768311
-0.018615723
-0.014190674
-0.014038086
-0.011291504
-0.004272461
-0.004119873
0.000762939
0.003356934
0.003356934
0.003509521
0.004425049
0.003204346
0.008087158
0.015563965
0.015411377
0.013122559
0.011901855
0.015563965
0.012969971
0.013275146
0.018157959
0.015869141
0.017852783
0.017852783
0.017700195
0.02532959
0.03036499
0.043334961
0.061645508
0.056762695
0.073852539
0.043029785
0.006561279
-0.006408691
0.003204346
-0.005493164
-0.012664795
-0.016174316
-0.011291504
-0.010070801
-0.003967285
-0.006561279
-0.004272461
-0.019836426
-0.074768066
-0.022277832
0.240936279
0.911865234
0.791320801
0.178527832
-0.288848877
-0.425872803
-0.317993164
-0.17288208
-0.105743408
-0.074615479
-0.054321289
-0.04196167
-0.03112793
-0.021209717
-0.009002686
-0.003814697
0.003356934
0.013275146
0.020446777
0.025634766
0.037689209
0.050811768
0.066680908
0.0831604
0.099945068
0.125427246
0.141601563
0.147247314
0.149993896
0.136260986
0.099334717
0.0390625
-0.038452148
-0.100708008
-0.140991211
-0.164489746
-0.170135498
-0.162963867
-0.156707764
-0.146179199
-0.127258301
-0.110168457
-0.095825195
-0.084686279
-0.077819824
-0.067443848
-0.058135986
-0.04699707
-0.040893555
-0.038299561
-0.035552979
-0.030822754
-0.026092529
-0.020904541
-0.022125244
-0.018615723
-0.018615723
-0.018920898
-0.011291504
-0.011444092
-0.009307861
-0.006408691
-0.001220703
-0.001831055
-0.003814697
0.000915527
0.000915527
0.003356934
0.005645752
0.005645752
0.005493164
0.005645752
0.005493164
0.005340576
0.008392334
0.010375977
0.010681152
0.008239746
0.008239746
0.01083374
0.012969971
0.015716553
0.022583008
0.048828125
0.049591064
0.063323975
0.060424805
0.021514893
-0.008850098
-0.012512207
-0.009002686
-0.018920898
-0.023803711
-0.025939941
-0.021057129
-0.016326904
-0.009155273
-0.006408691
-0.011444092
-0.054321289
-0.072631836
0.038604736
0.450439453
1.009674072
0.527954102
-0.055389404
-0.403747559
-0.407104492
-0.25177002
-0.138092041
-0.095367432
-0.070800781
-0.05065918
-0.037994385
-0.029296875
-0.021057129
-0.01159668
-0.002593994
0.008239746
0.010681152
0.018005371
0.025024414
0.0390625
0.051879883
0.06942749
0.094909668
0.113372803
0.133972168
0.143890381
0.147399902
0.135955811
0.097351074
0.041503906
-0.020141602
-0.093841553
-0.149841309
-0.18157959
-0.194854736
-0.194702148
-0.185852051
-0.168914795
-0.150909424
-0.133514404
-0.116271973
-0.102233887
-0.089874268
-0.077667236
-0.067596436
-0.056304932
-0.050506592
-0.045623779
-0.040588379
-0.038146973
-0.030670166
-0.025939941
-0.023803711
-0.025939941
-0.02456665
-0.018463135
-0.016174316
-0.016326904
-0.011444092
-0.008544922
-0.009002686
-0.003967285
-0.006103516
-0.003814697
-0.001678467
-0.004119873
0.000915527
0.003051758
-0.001678467
0.003204346
0.003356934
0.006103516
0.007324219
0.008087158
0.01083374
0.013122559
0.01083374
0.013275146
0.015716553
0.015411377
0.012817383
0.015869141
0.017852783
0.023040771
0.037231445
0.056762695
0.051574707
0.073547363
0.055084229
0.011444092
-0.008850098
-0.006561279
-0.009002686
-0.018920898
-0.023651123
-0.020904541
-0.018768311
-0.016479492
-0.011444092
-0.008850098
-0.012817383
-0.066680908
-0.061187744
0.095367432
0.616455078
1.002960205
0.368347168
-0.200958252
-0.438079834
-0.368652344
-0.20904541
-0.117950439
-0.079956055
-0.060424805
-0.045623779
-0.035705566
-0.023651123
-0.008850098
-0.001373291
0.004730225
0.012359619
0.022888184
0.034332275
0.044250488
0.057220459
0.073852539
0.095062256
0.11428833
0.136260986
0.156555176
0.166931152
0.166473389
0.150604248
0.106811523
0.030059814
-0.053253174
-0.125274658
-0.174407959
-0.206451416
-0.216674805
-0.214233398
-0.199737549
-0.182952881
-0.166625977
-0.14831543
-0.128936768
-0.114135742
-0.097198486
-0.084533691
-0.07232666
-0.060424805
-0.050964355
-0.045318604
-0.041046143
-0.033721924
-0.029296875
-0.023956299
-0.016937256
-0.015869141
-0.013885498
-0.01373291
-0.013885498
-0.013580322
-0.009002686
-0.006256104
-0.006408691
-0.006408691
-0.001831055
0.000915527
0.003204346
0.00579834
0.008544922
0.008392334
0.012969971
0.015716553
0.015869141
0.015411377
0.015411377
0.018005371
0.018157959
0.018005371
0.020446777
0.020294189
0.020599365
0.020446777
0.020446777
0.020446777
0.018310547
0.020141602
0.020294189
0.018005371
0.017852783
0.017852783
0.017700195
0.015716553
0.023040771
0.048370361
0.059051514
0.056762695
0.070037842
0.031280518
-0.001525879
-0.016174316
-0.008850098
-0.017852783
-0.023651123
-0.026092529
-0.020904541
-0.018615723
-0.014038086
-0.009765625
-0.006866455
-0.01373291
-0.066986084
-0.038909912
0.186309814
0.830993652
0.948944092
0.195922852
-0.335540771
-0.436248779
-0.299224854
-0.153045654
-0.097808838
-0.073242188
-0.056304932
-0.040435791
-0.02822876
-0.018768311
-0.009307861
0.002288818
0.010528564
0.020446777
0.029144287
0.039520264
0.051727295
0.065612793
0.08102417
0.107574463
0.132598877
0.154724121
0.171813965
0.179290771
0.175323486
0.155792236
0.102844238
0.036315918
-0.051879883
-0.126953125
-0.182647705
-0.216674805
-0.231323242
-0.229949951
-0.21774292
-0.202026367
-0.182495117
-0.160217285
-0.143280029
-0.12878418
-0.111694336
-0.094604492
-0.079803467
-0.065307617
-0.055847168
-0.05065918
-0.043182373
-0.0390625
-0.035552979
-0.030822754
-0.025634766
-0.021209717
-0.021209717
-0.021209717
-0.021209717
-0.021057129
-0.016174316
-0.01159668
-0.011444092
-0.011138916
-0.008392334
-0.005950928
-0.006561279
-0.006713867
-0.004119873
-0.004119873
-0.001220703
0.000457764
0.003356934
0.003204346
0.00579834
0.005645752
0.00579834
0.00579834
0.008239746
0.00793457
0.008392334
0.010528564
0.01083374
0.01083374
0.013275146
0.013122559
0.012817383
0.012817383
0.012969971
0.010681152
0.012664795
0.013122559
0.013275146
0.013275146
0.013275146
0.015258789
0.015869141
0.022125244
0.043945313
0.064086914
0.059204102
0.076293945
0.036315918
-0.001373291
-0.01663208
-0.013885498
-0.018310547
-0.028076172
-0.030975342
-0.028381348
-0.026092529
-0.018615723
-0.014038086
-0.013580322
-0.015563965
-0.069274902
-0.068664551
0.118713379
0.719909668
1.045227051
0.296783447
-0.311889648
-0.454711914
-0.32699585
-0.169677734
-0.105285645
-0.077362061
-0.057525635
-0.045318604
-0.033111572
-0.023803711
-0.013427734
-0.001678467
0.008239746
0.017700195
0.02746582
0.037689209
0.049438477
0.064086914
0.081176758
0.102233887
0.125427246
0.149841309
0.16708374
0.176849365
0.179138184
0.16708374
0.126342773
0.053863525
-0.03616333
-0.117034912
-0.177001953
-0.213775635
-0.228881836
-0.229034424
-0.219116211
-0.202331543
-0.184936523
-0.166473389
-0.149230957
-0.131072998
-0.11505127
-0.096588135
-0.082244873
-0.071105957
-0.063781738
-0.052642822
-0.043334961
-0.038146973
-0.033416748
-0.028381348
-0.028533936
-0.026092529
-0.023498535
-0.023498535
-0.021209717
-0.018768311
-0.013885498
-0.013885498
-0.01159668
-0.008850098
-0.006103516
-0.006408691
-0.001525879
-0.001525879
0.003051758
0.003204346
0.003509521
0.005950928
0.008544922
0.01083374
0.010681152
0.008087158
0.010681152
0.010681152
0.010681152
0.010528564
0.013427734
0.01083374
0.012969971
0.012969971
0.015411377
0.017089844
0.018157959
0.017700195
0.015106201
0.01373291
0.01159668
0.008239746
0.01083374
0.010528564
0.01083374
0.015411377
0.026855469
0.058898926
0.054321289
0.058441162
0.055236816
0.008850098
-0.015411377
-0.018463135
-0.01373291
-0.023803711
-0.030822754
-0.030822754
-0.024414063
-0.021057129
-0.016021729
-0.013885498
-0.013885498
-0.03692627
-0.087280273
-0.02166748
0.336761475
1.06552124
0.705566406
-0.236358643
-0.456542969
-0.358581543
-0.189666748
-0.121307373
-0.089416504
-0.067596436
-0.053253174
-0.040588379
-0.029296875
-0.021209717
-0.011291504
-0.001525879
0.01083374
0.023040771
0.035095215
0.046386719
0.058898926
0.071258545
0.090789795
0.110626221
0.134124756
0.155944824
0.172119141
0.181427002
0.179138184
0.150299072
0.086975098
-0.000305176
-0.088043213
-0.159912109
-0.201721191
-0.223999023
-0.228881836
-0.221557617
-0.20690918
-0.185241699
-0.166320801
-0.146026611
-0.12878418
-0.111694336
-0.096893311
-0.084838867
-0.072631836
-0.062866211
-0.055236816
-0.050811768
-0.043182373
-0.035705566
-0.033416748
-0.028381348
-0.025787354
-0.023651123
-0.020904541
-0.021209717
-0.018768311
-0.016326904
-0.013427734
-0.008850098
-0.006713867
-0.006408691
-0.006408691
-0.003967285
-0.001678467
-0.001678467
0.000762939
0.004730225
0.008087158
0.008239746
0.010528564
0.010528564
0.012969971
0.012817383
0.012969971
0.015563965
0.012969971
0.012969971
0.012817383
0.013122559
0.012969971
0.012969971
0.015258789
0.015563965
0.017852783
0.018310547
0.018463135
0.013122559
0.012817383
0.010681152
0.012969971
0.012969971
0.010986328
0.012969971
0.015411377
0.027160645
0.058746338
0.054321289
0.066680908
0.057525635
0.015716553
-0.010528564
-0.014038086
-0.01373291
-0.023651123
-0.028381348
-0.02822876
-0.021972656
-0.018615723
-0.016174316
-0.013580322
-0.011138916
-0.046539307
-0.094146729
-0.009613037
0.419006348
1.113891602
0.615997314
-0.106811523
-0.438995361
-0.394439697
-0.22644043
-0.127410889
-0.087890625
-0.065307617
-0.050354004
-0.039215088
-0.028381348
-0.018768311
-0.007171631
0.000762939
0.010375977
0.020294189
0.027770996
0.037536621
0.046844482
0.056762695
0.075378418
0.098266602
0.124511719
0.149688721
0.166778564
0.178985596
0.182342529
0.16204834
0.106506348
0.022277832
-0.06439209
-0.137481689
-0.187530518
-0.213623047
-0.218811035
-0.216522217
-0.202026367
-0.18737793
-0.171508789
-0.150604248
-0.131988525
-0.116577148
-0.100250244
-0.087432861
-0.075683594
-0.068817139
-0.05859375
-0.05279541
-0.045776367
-0.038146973
-0.035858154
-0.030975342
-0.026550293
-0.021209717
-0.018463135
-0.01663208
-0.014190674
-0.011291504
-0.011444092
-0.009002686
-0.006713867
-0.003814697
-0.003662109
-0.004119873
-0.001678467
0.000915527
0.003509521
0.003356934
0.003204346
0.005493164
0.008087158
0.00793457
0.00793457
0.01083374
0.010681152
0.010681152
0.008087158
0.010681152
0.00793457
0.01083374
0.00869751
0.008239746
0.010681152
0.010681152
0.010528564
0.016021729
0.013275146
0.012817383
0.015563965
0.013885498
0.015411377
0.015258789
0.013275146
0.013580322
0.023345947
0.048522949
0.056915283
0.051727295
0.06439209
0.025482178
-0.008850098
-0.023651123
-0.01159668
-0.01663208
-0.026092529
-0.028381348
-0.02822876
-0.024414063
-0.018615723
-0.016021729
-0.016326904
-0.022583008
-0.08392334
-0.08605957
0.118865967
0.776824951
0.986633301
0.271453857
-0.285644531
-0.458526611
-0.348968506
-0.18737793
-0.119934082
-0.085754395
-0.065307617
-0.051422119
-0.040893555
-0.028381348
-0.021057129
-0.010986328
-0.001678467
0.01083374
0.017700195
0.022888184
0.032501221
0.044708252
0.058135986
0.076293945
0.099945068
0.127105713
0.148773193
0.163726807
0.169372559
0.16494751
0.135955811
0.074462891
-0.007019043
-0.082855225
-0.142669678
-0.179138184
-0.196533203
-0.199737549
-0.192260742
-0.175323486
-0.15838623
-0.143585205
-0.128631592
-0.116271973
-0.09979248
-0.088195801
-0.079803467
-0.067443848
-0.058898926
-0.05065918
-0.040893555
-0.038604736
-0.035552979
-0.030670166
-0.026245117
-0.024871826
-0.018463135
-0.018463135
-0.023651123
-0.021362305
-0.018920898
-0.015869141
-0.014038086
-0.011138916
-0.011444092
-0.011444092
-0.003967285
-0.001831055
0.001068115
0.003204346
0.003204346
0.000762939
0.005645752
0.00793457
0.010681152
0.010681152
0.00793457
0.008239746
0.01083374
0.01083374
0.010223389
0.005493164
0.008087158
0.015563965
0.013122559
0.012969971
0.010681152
0.015258789
0.013275146
0.010528564
0.00869751
0.013275146
0.020446777
0.036773682
0.051879883
0.047149658
0.066680908
0.036010742
-0.003967285
-0.017242432
-0.001678467
-0.004119873
-0.016174316
-0.016326904
-0.01373291
-0.012207031
-0.00869751
-0.006561279
-0.006256104
-0.015258789
-0.079040527
-0.052032471
0.160064697
0.808868408
0.880737305
0.291748047
-0.21484375
-0.433654785
-0.356140137
-0.198822021
-0.112609863
-0.082092285
-0.062866211
-0.048217773
-0.037994385
-0.030822754
-0.023651123
-0.014190674
-0.006713867
-0.000152588
0.007629395
0.015411377
0.025482178
0.034332275
0.046844482
0.059356689
0.078735352
0.098114014
0.117950439
0.131835938
0.140380859
0.137939453
0.113525391
0.057373047
-0.008239746
-0.074005127
-0.125732422
-0.155639648
-0.165557861
-0.165405273
-0.156555176
-0.143280029
-0.129241943
-0.116577148
-0.102081299
-0.087280273
-0.075836182
-0.067901611
-0.060882568
-0.05279541
-0.052642822
-0.043487549
-0.038452148
-0.033416748
-0.028381348
-0.023956299
-0.018463135
-0.018615723
-0.018768311
-0.016174316
-0.018310547
-0.018768311
-0.018310547
-0.011138916
-0.013885498
-0.01159668
-0.004119873
-0.003967285
-0.006713867
-0.004119873
0.0
-0.001678467
0.000610352
-0.000915527
-0.001678467
0.000762939
0.003356934
0.00579834
0.00793457
0.010528564
0.010681152
0.01083374
0.018005371
0.023040771
0.039215088
0.054321289
0.04196167
0.054321289
0.021057129
-0.007781982
-0.01449585
-0.001831055
-0.009002686
-0.016326904
-0.018615723
-0.013885498
-0.009613037
-0.006408691
-0.001373291
0.000915527
-0.008087158
-0.065002441
-0.030670166
0.185546875
0.819702148
0.8644104
0.242767334
-0.252380371
-0.430908203
-0.341491699
-0.186920166
-0.109863281
-0.077667236
-0.055541992
-0.043182373
-0.030670166
-0.021057129
-0.012054443
-0.006561279
0.002593994
0.012359619
0.015716553
0.027770996
0.039520264
0.04699707
0.056610107
0.076751709
0.098266602
0.114593506
0.134277344
0.149230957
0.154418945
0.14465332
0.10925293
0.047607422
-0.029144287
-0.098724365
-0.147857666
-0.177459717
-0.18737793
-0.18371582
-0.172576904
-0.158538818
-0.143585205
-0.126190186
-0.108795166
-0.092315674
-0.079803467
-0.069885254
-0.060424805
-0.055084229
-0.045776367
-0.040740967
-0.035552979
-0.030670166
-0.028381348
-0.025634766
-0.026092529
-0.021057129
-0.021514893
-0.018615723
-0.016326904
-0.01159668
-0.009002686
-0.009002686
-0.00869751
-0.008850098
-0.006408691
-0.006256104
-0.001373291
0.003204346
0.006103516
0.00793457
0.012664795
0.010528564
0.008239746
0.009765625
0.010681152
0.010528564
0.012969971
0.012969971
0.012359619
0.013122559
0.017852783
0.020751953
0.030517578
0.054473877
0.051879883
0.063934326
0.062255859
0.01373291
-0.01159668
-0.011749268
-0.009002686
-0.020294189
-0.025939941
-0.023651123
-0.023651123
-0.018768311
-0.011444092
-0.006408691
-0.006561279
-0.042572021
-0.065765381
0.044250488
0.450897217
1.052856445
0.551147461
-0.087890625
-0.417785645
-0.39642334
-0.235748291
-0.126953125
-0.086975098
-0.065307617
-0.045623779
-0.035552979
-0.023193359
-0.008850098
-0.001678467
0.005645752
0.012969971
0.022583008
0.032653809
0.042114258
0.054626465
0.069274902
0.090332031
0.110931396
0.135040283
0.157012939
0.169525146
0.176544189
0.171508789
0.142974854
0.08026123
-0.006408691
-0.089416504
-0.152893066
-0.194702148
-0.216217041
-0.222015381
-0.211791992
-0.199279785
-0.180664063
-0.162811279
-0.146026611
-0.127105713
-0.107574463
-0.092773438
-0.079345703
-0.068359375
-0.063018799
-0.052947998
-0.043487549
-0.037994385
-0.028533936
-0.028686523
-0.026092529
-0.023193359
-0.020904541
-0.020446777
-0.018615723
-0.018310547
-0.018768311
-0.016326904
-0.01373291
-0.011444092
-0.008850098
-0.006561279
-0.003967285
-0.004119873
-0.001831055
0.003356934
0.003356934
0.003509521
0.005493164
0.008087158
0.010528564
0.010681152
0.008087158
0.00793457
0.008239746
0.010681152
0.013122559
0.013122559
0.015563965
0.012817383
0.012969971
0.013122559
0.010528564
0.013275146
0.012969971
0.017089844
0.026855469
0.053710938
0.06652832
0.051879883
0.062103271
0.023345947
-0.01083374
-0.016174316
-0.006408691
-0.011291504
-0.018768311
-0.021362305
-0.019073486
-0.016021729
-0.01373291
-0.011291504
-0.009002686
-0.008087158
-0.057373047
-0.05569458
0.121765137
0.681915283
1.051483154
0.328063965
-0.29006958
-0.456390381
-0.335388184
-0.171966553
-0.104827881
-0.077667236
-0.057678223
-0.046081543
-0.036621094
-0.023803711
-0.011291504
-0.002288818
0.005340576
0.016021729
0.027160645
0.037689209
0.047302246
0.063323975
0.078277588
0.098571777
0.124664307
0.148773193
0.167236328
0.18157959
0.186462402
0.174560547
0.133056641
0.059967041
-0.028381348
-0.110778809
-0.173034668
-0.208892822
-0.224151611
-0.223999023
-0.215301514
-0.202178955
-0.185546875
-0.167541504
-0.14831543
-0.129852295
-0.111236572
-0.095062256
-0.080108643
-0.069885254
-0.059814453
-0.050201416
-0.045471191
-0.040588379
-0.033721924
-0.028076172
-0.023803711
-0.023651123
-0.023651123
-0.021209717
-0.019073486
-0.016479492
-0.01373291
-0.011444092
-0.008850098
-0.006408691
-0.003967285
-0.006256104
-0.006256104
-0.003967285
-0.003814697
-0.004272461
-0.001373291
0.001068115
0.003051758
0.003204346
0.00579834
0.00579834
0.005950928
0.008239746
0.008239746
0.00793457
0.008239746
0.01083374
0.012969971
0.013122559
0.013122559
0.014648438
0.015411377
0.010681152
0.010986328
0.010681152
0.013122559
0.015106201
0.015716553
0.015563965
0.029449463
0.061035156
0.055999756
0.058288574
0.057678223
0.01083374
-0.016021729
-0.01663208
-0.016174316
-0.026245117
-0.030670166
-0.028381348
-0.023651123
-0.018920898
-0.016326904
-0.011291504
-0.011291504
-0.038146973
-0.079803467
0.001831055
0.383911133
1.089477539
0.651092529
-0.088348389
-0.439910889
-0.399017334
-0.230712891
-0.127716064
-0.089263916
-0.070343018
-0.052490234
-0.040740967
-0.029449463
-0.021209717
-0.009765625
0.0
0.008239746
0.016174316
0.027618408
0.034942627
0.045013428
0.061798096
0.079650879
0.10269165
0.126953125
0.149688721
0.169525146
0.184020996
0.183563232
0.16494751
0.113525391
0.03112793
-0.059661865
-0.135498047
-0.187530518
-0.219573975
-0.229034424
-0.224304199
-0.211639404
-0.194396973
-0.180206299
-0.153503418
-0.13671875
-0.117034912
-0.101776123
-0.086669922
-0.070343018
-0.062866211
-0.053100586
-0.045623779
-0.043182373
-0.035400391
-0.028381348
-0.023651123
-0.023803711
-0.018768311
-0.018463135
-0.018310547
-0.014038086
-0.008850098
-0.008850098
-0.008850098
-0.006408691
-0.003967285
-0.003967285
-0.004272461
-0.001373291
0.000762939
0.0050354
0.00579834
0.00579834
0.005645752
0.00793457
0.007781982
0.00793457
0.005950928
0.010528564
0.010528564
0.012207031
0.013122559
0.013122559
0.01083374
0.012512207
0.008239746
0.01083374
0.012969971
0.012969971
0.013122559
0.010986328
0.010681152
0.006103516
0.005950928
0.010681152
0.020904541
0.039520264
0.061798096
0.047149658
0.061645508
0.033111572
-0.004425049
-0.018615723
-0.008850098
-0.011291504
-0.023498535
-0.025939941
-0.021209717
-0.016021729
-0.015106201
-0.013427734
-0.011444092
-0.011444092
-0.054321289
-0.08972168
0.023193359
0.494384766
1.12121582
0.535430908
-0.165100098
-0.448303223
-0.379486084
-0.208282471
-0.119476318
-0.084533691
-0.063476563
-0.048065186
-0.038604736
-0.026550293
-0.016326904
-0.006561279
0.003204346
0.013275146
0.024871826
0.037841797
0.046844482
0.057067871
0.067138672
0.08392334
0.108184814
0.134429932
0.158691406
0.175933838
0.183868408
0.181884766
0.152587891
0.091400146
0.004425049
-0.081939697
-0.153045654
-0.20111084
-0.224151611
-0.224151611
-0.216827393
-0.203857422
-0.187683105
-0.16998291
-0.151367188
-0.135650635
-0.114135742
-0.096740723
-0.080718994
-0.070648193
-0.061035156
-0.05355835
-0.046081543
-0.040588379
-0.03616333
-0.03326416
-0.030975342
-0.026092529
-0.021820068
-0.020904541
-0.016021729
-0.016174316
-0.011444092
-0.01159668
-0.009002686
-0.006408691
-0.004119873
-0.001373291
-0.001678467
-0.001831055
-0.001525879
0.000762939
0.003204346
0.003356934
0.003356934
0.007476807
0.010681152
0.008087158
0.008392334
0.00793457
0.010375977
0.00793457
0.01083374
0.01083374
0.01083374
0.010681152
0.013275146
0.01083374
0.010528564
0.008087158
0.010375977
0.010681152
0.010375977
0.012817383
0.010375977
0.008392334
0.009918213
0.017852783
0.035552979
0.059356689
0.0440979
0.061798096
0.038146973
-0.001831055
-0.016479492
-0.007171631
-0.005950928
-0.013885498
-0.021362305
-0.01739502
-0.013885498
-0.009155273
-0.009002686
-0.006408691
-0.010986328
-0.04989624
-0.090026855
0.006561279
0.468902588
1.120910645
0.564575195
-0.136566162
-0.445404053
-0.389251709
-0.215606689
-0.121612549
-0.097198486
-0.065002441
-0.048828125
-0.037994385
-0.028991699
-0.018310547
-0.006713867
0.002441406
0.013122559
0.021057129
0.02746582
0.037231445
0.048980713
0.066223145
0.081787109
0.10345459
0.12802124
0.152282715
0.168762207
0.178985596
0.182342529
0.162658691
0.108337402
0.021057129
-0.067138672
-0.139160156
-0.188293457
-0.21194458
-0.219421387
-0.213165283
-0.20111084
-0.184936523
-0.166625977
-0.149536133
-0.131072998
-0.116577148
-0.101776123
-0.088653564
-0.075073242
-0.06652832
-0.058135986
-0.050811768
-0.043182373
-0.040740967
-0.036010742
-0.03112793
-0.025939941
-0.021362305
-0.018768311
-0.016174316
-0.016326904
-0.013885498
-0.013580322
-0.01159668
-0.009002686
-0.011444092
-0.006561279
0.000610352
-0.001678467
0.001068115
0.003356934
0.003051758
0.003509521
0.003051758
0.005950928
0.008544922
0.005645752
0.008392334
0.00793457
0.010681152
0.010681152
0.010681152
0.010681152
0.008239746
0.010986328
0.012969971
0.012969971
0.010681152
0.010528564
0.015258789
0.015411377
0.013275146
0.015563965
0.020446777
0.027770996
0.049285889
0.04989624
0.045776367
0.058135986
0.017089844
-0.010223389
-0.009307861
0.000915527
-0.008544922
-0.017242432
-0.018615723
-0.016021729
-0.016326904
-0.011291504
-0.006408691
-0.006561279
-0.031433105
-0.082244873
-0.034332275
0.263977051
0.966339111
0.747070313
0.135803223
-0.317077637
-0.445251465
-0.324707031
-0.173797607
-0.106964111
-0.078735352
-0.058288574
-0.043182373
-0.033416748
-0.028533936
-0.019073486
-0.009002686
-0.003967285
0.000915527
0.013275146
0.019989014
0.02746582
0.037231445
0.051879883
0.07232666
0.090637207
0.108947754
0.127563477
0.138549805
0.14251709
0.135803223
0.104980469
0.040435791
-0.03112793
-0.095214844
-0.139160156
-0.166625977
-0.17288208
-0.16784668
-0.15838623
-0.145263672
-0.127716064
-0.113067627
-0.099182129
-0.087432861
-0.073699951
-0.067596436
-0.062866211
-0.055084229
-0.051727295
-0.045623779
-0.037231445
-0.033111572
-0.030670166
-0.025787354
-0.023498535
-0.021057129
-0.016326904
-0.016479492
-0.011138916
-0.009002686
-0.008850098
-0.008850098
-0.006408691
-0.003967285
-0.001525879
-0.001525879
-0.003967285
0.000762939
0.008087158
0.007476807
0.003356934
0.00793457
0.00579834
0.008239746
0.007324219
0.005645752
0.008239746
0.008392334
0.010681152
0.013122559
0.025177002
0.048370361
0.045623779
0.044403076
0.057983398
0.015869141
-0.015106201
-0.019073486
-0.000457764
-0.006561279
-0.018615723
-0.021057129
-0.018768311
-0.013885498
-0.006408691
-0.006408691
-0.004272461
-0.020446777
-0.072479248
-0.016021729
0.244445801
0.911407471
0.780029297
0.179748535
-0.282745361
-0.422668457
-0.317993164
-0.169067383
-0.103149414
-0.073852539
-0.056762695
-0.043029785
-0.033569336
-0.025939941
-0.017242432
-0.008850098
-0.003967285
0.001831055
0.010681152
0.020446777
0.030059814
0.037536621
0.049133301
0.063934326
0.084838867
0.107727051
0.126190186
0.137329102
0.140228271
0.133056641
0.102539063
0.040130615
-0.027008057
-0.087890625
-0.132293701
-0.157928467
-0.165405273
-0.165252686
-0.160675049
-0.146026611
-0.13092041
-0.115509033
-0.097961426
-0.084838867
-0.072937012
-0.067749023
-0.059967041
-0.054016113
-0.045623779
-0.043334961
-0.033569336
-0.028686523
-0.028839111
-0.025024414
-0.018768311
-0.021209717
-0.018920898
-0.016479492
-0.016021729
-0.016326904
-0.01373291
-0.009155273
-0.003967285
-0.006256104
-0.004119873
0.000915527
-0.001525879
-0.001220703
0.000610352
0.002288818
0.003356934
0.008239746
0.005340576
0.003356934
0.008087158
0.009155273
0.019226074
0.039520264
0.049285889
0.042266846
0.054321289
0.014648438
-0.014953613
-0.01663208
0.003051758
-0.009002686
-0.018463135
-0.016174316
-0.013427734
-0.009613037
-0.006408691
-0.001678467
-0.004119873
-0.010986328
-0.063018799
-0.031280518
0.17288208
0.777893066
0.882263184
0.271148682
-0.228271484
-0.426025391
-0.340881348
-0.184326172
-0.105895996
-0.075531006
-0.05279541
-0.04196167
-0.030670166
-0.023803711
-0.015106201
-0.006713867
0.002746582
0.01083374
0.015716553
0.025177002
0.032348633
0.044555664
0.058898926
0.078735352
0.098266602
0.116729736
0.136260986
0.141906738
0.152282715
0.138702393
0.100708008
0.036468506
-0.030670166
-0.100097656
-0.149230957
-0.172271729
-0.182495117
-0.182647705
-0.170288086
-0.158081055
-0.143890381
-0.124359131
-0.110168457
-0.094604492
-0.082092285
-0.068359375
-0.062866211
-0.050506592
-0.048370361
-0.040893555
-0.033874512
-0.030822754
-0.03112793
-0.025634766
-0.023498535
-0.021972656
-0.021209717
-0.018615723
-0.016326904
-0.016174316
-0.016479492
-0.01159668
-0.008850098
-0.006256104
-0.004425049
-0.000152588
0.000610352
-0.001220703
0.000915527
0.000762939
-0.001373291
0.003662109
0.005645752
0.005493164
0.010528564
0.010986328
0.013122559
0.018310547
0.02746582
0.050811768
0.042724609
0.048980713
0.041046143
0.001831055
-0.017547607
-0.012054443
-0.003814697
-0.013427734
-0.021209717
-0.021057129
-0.016021729
-0.013580322
-0.009002686
-0.008850098
-0.006713867
-0.028686523
-0.061035156
0.014343262
0.318145752
0.979003906
0.67779541
0.043182373
-0.361175537
-0.412139893
-0.274200439
-0.143127441
-0.090637207
-0.065460205
-0.050811768
-0.036315918
-0.024871826
-0.014038086
-0.008850098
0.003356934
0.012969971
0.018157959
0.02532959
0.035247803
0.046844482
0.061645508
0.076141357
0.098266602
0.119934082
0.140991211
0.154571533
0.164337158
0.159454346
0.136260986
0.082550049
0.008239746
-0.070495605
-0.132751465
-0.172576904
-0.193939209
-0.199890137
-0.19241333
-0.180206299
-0.165557861
-0.14831543
-0.131072998
-0.111541748
-0.095214844
-0.083312988
-0.068359375
-0.060119629
-0.055084229
-0.048980713
-0.043334961
-0.034179688
-0.033569336
-0.028381348
-0.021057129
-0.018615723
-0.018768311
-0.018615723
-0.016326904
-0.013885498
-0.011444092
-0.011444092
-0.009002686
-0.006561279
-0.004119873
-0.006408691
-0.003967285
-0.004272461
-0.001525879
0.001220703
0.005493164
0.008087158
0.01083374
0.013122559
0.013122559
0.015563965
0.013122559
0.015411377
0.015411377
0.015563965
0.015411377
0.013427734
0.013122559
0.015563965
0.015716553
0.023040771
0.032501221
0.058898926
0.059204102
0.06149292
0.052337646
0.004425049
-0.018615723
-0.016326904
-0.008850098
-0.016326904
-0.023498535
-0.023651123
-0.020904541
-0.014038086
-0.009765625
-0.006256104
-0.004119873
-0.012817383
-0.065155029
-0.021514893
0.217132568
0.87310791
0.867767334
0.122833252
-0.358123779
-0.426635742
-0.284423828
-0.143127441
-0.090789795
-0.065460205
-0.050354004
-0.037994385
-0.026245117
-0.016479492
-0.006408691
0.001983643
0.013275146
0.023040771
0.032806396
0.044555664
0.053405762
0.066680908
0.08605957
0.107269287
0.130157471
0.152282715
0.171661377
0.18157959
0.176696777
0.158233643
0.107727051
0.029602051
-0.06072998
-0.139007568
-0.193786621
-0.219268799
-0.229187012
-0.222930908
-0.211639404
-0.195007324
-0.175170898
-0.158081055
-0.139465332
-0.121459961
-0.105133057
-0.090332031
-0.077209473
-0.065307617
-0.060119629
-0.050201416
-0.041351318
-0.035858154
-0.030822754
-0.02822876
-0.025939941
-0.021362305
-0.018768311
-0.019073486
-0.016479492
-0.018615723
-0.016326904
-0.013885498
-0.010986328
-0.009002686
-0.006713867
-0.003814697
-0.001525879
-0.001373291
0.000915527
0.00289917
0.003051758
0.003051758
0.005645752
0.00579834
0.005950928
0.008544922
0.008392334
0.008239746
0.01083374
0.010528564
0.010528564
0.013122559
0.010681152
0.010681152
0.012817383
0.013122559
0.010375977
0.010681152
0.010681152
0.01083374
0.012817383
0.015411377
0.017547607
0.027618408
0.05645752
0.064086914
0.057067871
0.062713623
0.016326904
-0.010375977
-0.011749268
-0.003509521
-0.01159668
-0.021057129
-0.023651123
-0.018615723
-0.016326904
-0.011138916
-0.006713867
-0.003967285
-0.00869751
-0.054473877
-0.066223145
0.083618164
0.596466064
1.086883545
0.403137207
-0.247497559
-0.446624756
-0.336761475
-0.172424316
-0.100097656
-0.073699951
-0.05569458
-0.045471191
-0.033721924
-0.022125244
-0.01373291
-0.003967285
0.00579834
0.015716553
0.025634766
0.037536621
0.049438477
0.061798096
0.077972412
0.098571777
0.120391846
0.142211914
0.16418457
0.176849365
0.18157959
0.170288086
0.135955811
0.063781738
-0.026550293
-0.109558105
-0.174255371
-0.213623047
-0.228729248
-0.23147583
-0.219116211
-0.206604004
-0.187683105
-0.168762207
-0.148925781
-0.132141113
-0.11505127
-0.099639893
-0.085906982
-0.072631836
-0.065002441
-0.057678223
-0.048217773
-0.040588379
-0.038299561
-0.033111572
-0.03112793
-0.028533936
-0.026245117
-0.024719238
-0.023345947
-0.020904541
-0.016174316
-0.011291504
-0.01373291
-0.011444092
-0.008850098
-0.004272461
-0.006561279
-0.001831055
0.003051758
0.003356934
0.005340576
0.003204346
0.005493164
0.003662109
0.005645752
0.008239746
0.010681152
0.010528564
0.010375977
0.010375977
0.008392334
0.010528564
0.013275146
0.01083374
0.01083374
0.010528564
0.013275146
0.013122559
0.013122559
0.012969971
0.015411377
0.018005371
0.025024414
0.04119873
0.069122314
0.059204102
0.063018799
0.045776367
-0.000762939
-0.020751953
-0.012207031
-0.008850098
-0.021209717
-0.02822876
-0.023498535
-0.016326904
-0.011291504
-0.006256104
-0.006561279
-0.003814697
-0.017852783
-0.077056885
-0.045013428
0.231018066
0.945129395
0.870666504
0.08605957
-0.393676758
-0.42388916
-0.264892578
-0.137176514
-0.093231201
-0.067596436
-0.051269531
-0.043029785
-0.035552979
-0.023498535
-0.01373291
-0.001220703
0.012207031
0.020599365
0.030212402
0.043640137
0.054626465
0.070495605
0.08605957
0.105743408
0.127410889
0.151824951
0.168609619
0.179290771
0.179901123
0.162658691
0.116424561
0.039215088
-0.048828125
-0.124816895
-0.179138184
-0.207061768
-0.218963623
-0.21697998
-0.204620361
-0.188140869
-0.171051025
-0.155487061
-0.136871338
-0.12008667
-0.10269165
-0.087432861
-0.07522583
-0.062713623
-0.055236816
-0.048065186
-0.0440979
-0.038604736
-0.033111572
-0.031280518
-0.026092529
-0.023651123
-0.021362305
-0.018615723
-0.018615723
-0.017089844
-0.01373291
-0.011138916
-0.01159668
-0.008850098
-0.006713867
-0.006408691
-0.001831055
-0.001678467
-0.001220703
-0.001678467
-0.001678467
0.003356934
0.003204346
0.005950928
0.008239746
0.010375977
0.010681152
0.013122559
0.010986328
0.010528564
0.010528564
0.013427734
0.012969971
0.015716553
0.015563965
0.013275146
0.012969971
0.012817383
0.015716553
0.016326904
0.015258789
0.015563965
0.012817383
0.010528564
0.012969971
0.013122559
0.018005371
0.034942627
0.06439209
0.050201416
0.061187744
0.040283203
0.000915527
-0.014038086
-0.009002686
-0.006408691
-0.013885498
-0.021057129
-0.021362305
-0.018768311
-0.016326904
-0.009155273
-0.006408691
-0.006561279
-0.032196045
-0.09185791
-0.040893555
0.302276611
1.046295166
0.756378174
-0.005340576
-0.419311523
-0.406951904
-0.240020752
-0.13168335
-0.090942383
-0.065917969
-0.05065918
-0.038452148
-0.028991699
-0.018768311
-0.009155273
0.002441406
0.010681152
0.018005371
0.027618408
0.034942627
0.046081543
0.059204102
0.076446533
0.098571777
0.120239258
0.146484375
0.164337158
0.177001953
0.179138184
0.162658691
0.111541748
0.030059814
-0.057983398
-0.135192871
-0.186767578
-0.214538574
-0.224151611
-0.221557617
-0.20980835
-0.192260742
-0.170288086
-0.151824951
-0.13381958
-0.114440918
-0.097961426
-0.089416504
-0.078430176
-0.07019043
-0.062561035
-0.055541992
-0.046691895
-0.037994385
-0.03326416
-0.030670166
-0.030670166
-0.028991699
-0.026092529
-0.023651123
-0.018920898
-0.018920898
-0.016174316
-0.012207031
-0.011749268
-0.010375977
-0.00869751
-0.005950928
-0.003814697
-0.004119873
0.000762939
0.003356934
0.003051758
0.00579834
0.008087158
0.010681152
0.008392334
0.01083374
0.010986328
0.013122559
0.018005371
0.018157959
0.020599365
0.015563965
0.015716553
0.015411377
0.015106201
0.013275146
0.010681152
0.013275146
0.015411377
0.015258789
0.015716553
0.013275146
0.012969971
0.012817383
0.01083374
0.013122559
0.024719238
0.05569458
0.049591064
0.050811768
0.048217773
0.003967285
-0.017547607
-0.014190674
-0.015869141
-0.028839111
-0.030670166
-0.023651123
-0.019073486
-0.01373291
-0.015869141
-0.013580322
-0.013885498
-0.045928955
-0.095977783
-0.017547607
0.401916504
1.107635498
0.636901855
-0.085144043
-0.433959961
-0.400695801
-0.229797363
-0.129699707
-0.08972168
-0.07019043
-0.053405762
-0.040893555
-0.03112793
-0.021057129
-0.011444092
-0.003662109
0.005493164
0.015258789
0.023040771
0.035400391
0.046844482
0.061798096
0.079040527
0.100250244
0.125274658
0.148925781
0.165863037
0.179138184
0.176849365
0.156860352
0.107421875
0.02456665
-0.063171387
-0.136871338
-0.186462402
-0.211639404
-0.219573975
-0.214385986
-0.200653076
-0.184631348
-0.162963867
-0.146179199
-0.131530762
-0.11505127
-0.102081299
-0.092010498
-0.079803467
-0.067749023
-0.060577393
-0.053710938
-0.044403076
-0.040740967
-0.033416748
-0.028533936
-0.028533936
-0.023651123
-0.021209717
-0.018768311
-0.016021729
-0.016174316
-0.01373291
-0.009765625
-0.006561279
-0.006408691
-0.004119873
0.000762939
0.003356934
0.003509521
0.008239746
0.008544922
0.008087158
0.008239746
0.010528564
0.010681152
0.012969971
0.012969971
0.012817383
0.013275146
0.013122559
0.015563965
0.013427734
0.013122559
0.015869141
0.013580322
0.012969971
0.013275146
0.015563965
0.017700195
0.015411377
0.015258789
0.013122559
0.015563965
0.017852783
0.018005371
0.015411377
0.015869141
0.015563965
0.018157959
0.025482178
0.04699707
0.061645508
0.049743652
0.065002441
0.023345947
-0.010528564
-0.021057129
-0.011444092
-0.013885498
-0.023651123
-0.023803711
-0.023345947
-0.021514893
-0.016326904
-0.01373291
-0.01373291
-0.017852783
-0.085296631
-0.10269165
0.086975098
0.727996826
1.0597229
0.336151123
-0.274200439
-0.461273193
-0.354003906
-0.191345215
-0.119628906
-0.089263916
-0.070343018
-0.05645752
-0.040893555
-0.030822754
-0.021362305
-0.009613037
-0.00213623
0.007324219
0.015411377
0.02532959
0.035095215
0.046386719
0.058288574
0.072784424
0.093383789
0.122833252
0.149078369
0.164642334
0.171966553
0.171813965
0.14541626
0.084533691
0.002593994
-0.078735352
-0.144805908
-0.187072754
-0.209197998
-0.211791992
-0.202178955
-0.187225342
-0.172576904
-0.155334473
-0.135803223
-0.1222229
-0.107727051
-0.09552002
-0.082550049
-0.075073242
-0.067901611
-0.060577393
-0.050506592
-0.043945313
-0.035858154
-0.030822754
-0.028533936
-0.02822876
-0.023498535
-0.023651123
-0.021209717
-0.014953613
-0.013580322
-0.01373291
-0.011291504
-0.009155273
-0.00869751
-0.006713867
-0.003967285
0.001220703
0.003356934
0.008087158
0.010528564
0.010528564
0.013122559
0.01083374
0.013122559
0.013122559
0.010528564
0.012969971
0.016479492
0.013275146
0.015563965
0.015563965
0.018157959
0.015869141
0.015716553
0.015563965
0.015411377
0.015563965
0.013275146
0.012969971
0.015563965
0.012969971
0.015106201
0.022888184
0.043640137
0.052032471
0.044555664
0.063934326
0.026245117
-0.006408691
-0.017242432
-0.004272461
-0.009307861
-0.018615723
-0.021209717
-0.021209717
-0.01159668
-0.008850098
-0.008850098
-0.003967285
-0.015411377
-0.079803467
-0.068359375
0.12878418
0.773620605
0.904998779
0.325164795
-0.18951416
-0.431060791
-0.368652344
-0.209655762
-0.12008667
-0.085296631
-0.061035156
-0.053863525
-0.043334961
-0.031738281
-0.025787354
-0.018463135
-0.011291504
-0.006713867
0.003509521
0.010528564
0.020294189
0.035400391
0.044555664
0.056762695
0.071868896
0.090026855
0.110778809
0.125732422
0.135345459
0.135040283
0.116119385
0.072174072
0.004882813
-0.061950684
-0.113372803
-0.148620605
-0.160369873
-0.160369873
-0.157775879
-0.146179199
-0.129699707
-0.116424561
-0.104064941
-0.089874268
-0.079803467
-0.075073242
-0.072479248
-0.060119629
-0.050506592
-0.050354004
-0.043182373
-0.040435791
-0.040740967
-0.030975342
-0.025939941
-0.021972656
-0.021362305
-0.014343262
-0.018463135
-0.016174316
-0.011291504
-0.006713867
-0.003967285
-0.001525879
-0.001525879
-0.004119873
-0.003967285
0.000915527
0.003051758
-0.001678467
0.002441406
0.005645752
0.005645752
0.005493164
0.005645752
0.006561279
0.00579834
0.008087158
0.008087158
0.008239746
0.01083374
0.022888184
0.031890869
0.044555664
0.042114258
0.058746338
0.028381348
-0.006256104
-0.011444092
0.001068115
-0.001373291
-0.01159668
-0.016174316
-0.014038086
-0.01373291
-0.013885498
-0.008850098
-0.003967285
-0.013275146
-0.076446533
-0.05355835
0.131988525
0.71762085
0.916442871
0.347900391
-0.165252686
-0.411987305
-0.360412598
-0.211181641
-0.11932373
-0.084686279
-0.060882568
-0.047912598
-0.043334961
-0.030975342
-0.018463135
-0.011444092
-0.003967285
0.003204346
0.013122559
0.017852783
0.025482178
0.037384033
0.046539307
0.063476563
0.083465576
0.100860596
0.117797852
0.130157471
0.134124756
0.135345459
0.113525391
0.062713623
-0.000610352
-0.069885254
-0.123443604
-0.155334473
-0.165863037
-0.16784668
-0.15625
-0.14831543
-0.136260986
-0.121765137
-0.101928711
-0.092468262
-0.077514648
-0.070037842
-0.058746338
-0.053100586
-0.047912598
-0.043334961
-0.038146973
-0.030822754
-0.028686523
-0.026550293
-0.021362305
-0.018615723
-0.016326904
-0.018768311
-0.016937256
-0.015869141
-0.01373291
-0.011291504
-0.009307861
-0.006408691
-0.006408691
-0.004119873
-0.001831055
0.001068115
0.006103516
0.003204346
0.003356934
0.008087158
0.005950928
0.008544922
0.018005371
0.04196167
0.051727295
0.044555664
0.053710938
0.033111572
-0.001831055
-0.013580322
-0.001220703
-0.003814697
-0.018768311
-0.016326904
-0.016479492
-0.013885498
-0.009002686
-0.004119873
-0.001373291
-0.006256104
-0.047454834
-0.055999756
0.062255859
0.489959717
0.993804932
0.506134033
-0.052337646
-0.384368896
-0.386352539
-0.244750977
-0.131225586
-0.08682251
-0.060882568
-0.04776001
-0.038299561
-0.023651123
-0.016784668
-0.00869751
-0.001373291
0.007476807
0.015716553
0.022277832
0.030059814
0.037384033
0.051574707
0.06652832
0.087890625
0.107269287
0.125579834
0.135192871
0.142822266
0.141906738
0.118255615
0.07019043
0.003356934
-0.068969727
-0.127716064
-0.164337158
-0.180969238
-0.180053711
-0.172576904
-0.160675049
-0.145721436
-0.126342773
-0.114135742
-0.097808838
-0.084686279
-0.074768066
-0.067443848
-0.057220459
-0.050811768
-0.043945313
-0.037994385
-0.033111572
-0.028381348
-0.029296875
-0.025787354
-0.023956299
-0.018768311
-0.018615723
-0.01373291
-0.016174316
-0.012969971
-0.011291504
-0.00869751
-0.006256104
-0.006713867
-0.006561279
-0.001373291
0.000915527
0.000762939
0.000457764
-0.001373291
0.003356934
0.003356934
0.003509521
0.00579834
0.010528564
0.013122559
0.022277832
0.046386719
0.044555664
0.043945313
0.046539307
0.008850098
-0.013885498
-0.010681152
0.000610352
-0.006408691
-0.013580322
-0.011138916
-0.009155273
-0.004119873
0.000457764
0.003051758
0.003509521
-0.011291504
-0.057983398
-0.004425049
0.247344971
0.908508301
0.790863037
0.135498047
-0.316619873
-0.419769287
-0.295410156
-0.148620605
-0.089416504
-0.062103271
-0.043640137
-0.032958984
-0.024261475
-0.013885498
-0.003814697
0.000610352
0.010070801
0.015411377
0.023040771
0.032043457
0.039672852
0.051574707
0.069122314
0.089111328
0.112762451
0.135192871
0.147857666
0.157165527
0.157012939
0.139312744
0.093536377
0.019989014
-0.058288574
-0.123443604
-0.168304443
-0.196990967
-0.204467773
-0.197143555
-0.185241699
-0.169525146
-0.153656006
-0.133972168
-0.116577148
-0.101318359
-0.089569092
-0.07522583
-0.063323975
-0.057983398
-0.050811768
-0.040740967
-0.038299561
-0.033569336
-0.033111572
-0.025787354
-0.021362305
-0.021209717
-0.016174316
-0.016326904
-0.018615723
-0.016174316
-0.018768311
-0.016784668
-0.013580322
-0.00869751
-0.003814697
-0.001220703
-0.001220703
0.000610352
0.005645752
0.008239746
0.008544922
0.008087158
0.00579834
0.005645752
0.005950928
0.005645752
0.009002686
0.010681152
0.011138916
0.013122559
0.010681152
0.010528564
0.020751953
0.042419434
0.061798096
0.054626465
0.06439209
0.02822876
-0.00579834
-0.011749268
-0.001525879
-0.004119873
-0.011444092
-0.01373291
-0.011444092
-0.009002686
-0.006256104
-0.001525879
0.000915527
-0.001373291
-0.045166016
-0.052642822
0.084838867
0.56137085
1.074371338
0.442199707
-0.199127197
-0.443878174
-0.362854004
-0.194244385
-0.106048584
-0.0730896
-0.055084229
-0.043640137
-0.034179688
-0.023345947
-0.015563965
-0.006103516
0.006713867
0.018005371
0.026550293
0.035705566
0.044403076
0.05645752
0.073852539
0.094146729
0.116119385
0.140533447
0.163879395
0.176391602
0.179138184
0.169372559
0.135040283
0.065460205
-0.019989014
-0.104370117
-0.168304443
-0.205230713
-0.223693848
-0.224151611
-0.216064453
-0.201721191
-0.182342529
-0.164794922
-0.144805908
-0.126495361
-0.108032227
-0.094909668
-0.082244873
-0.067901611
-0.058135986
-0.047912598
-0.043334961
-0.036010742
-0.030975342
-0.028381348
-0.025939941
-0.023498535
-0.021514893
-0.021362305
-0.018615723
-0.018005371
-0.018615723
-0.018615723
-0.015411377
-0.011291504
-0.013885498
-0.009002686
-0.006561279
-0.003814697
-0.003967285
0.000762939
0.000610352
0.000762939
0.004272461
0.005950928
0.005645752
0.010528564
0.013122559
0.012817383
0.013275146
0.013122559
0.013275146
0.012969971
0.013275146
0.013275146
0.013122559
0.015563965
0.015716553
0.018005371
0.025634766
0.046844482
0.064086914
0.054473877
0.064086914
0.024719238
-0.00869751
-0.018615723
-0.009307861
-0.012054443
-0.021209717
-0.025787354
-0.023651123
-0.021209717
-0.016937256
-0.01159668
-0.009155273
-0.006561279
-0.043182373
-0.072479248
0.039215088
0.459136963
1.092834473
0.548248291
-0.155944824
-0.446929932
-0.374298096
-0.205688477
-0.116271973
-0.082397461
-0.063476563
-0.049743652
-0.038146973
-0.025177002
-0.014190674
-0.006713867
0.001068115
0.015411377
0.024871826
0.035095215
0.045471191
0.056762695
0.069122314
0.088348389
0.111694336
0.134735107
0.154724121
0.169372559
0.175170898
0.171661377
0.141906738
0.083465576
-0.002593994
-0.086212158
-0.155792236
-0.200653076
-0.220184326
-0.224609375
-0.216674805
-0.203704834
-0.185089111
-0.166778564
-0.146179199
-0.128936768
-0.111846924
-0.094604492
-0.079650879
-0.067596436
-0.057983398
-0.05279541
-0.043487549
-0.038299561
-0.033416748
-0.029907227
-0.026245117
-0.023498535
-0.021057129
-0.019073486
-0.018615723
-0.018463135
-0.018463135
-0.01159668
-0.009002686
-0.009155273
-0.003967285
-0.003967285
-0.003967285
-0.001678467
0.000762939
0.003509521
0.005645752
0.008239746
0.00793457
0.005950928
0.008087158
0.008392334
0.010681152
0.013122559
0.012969971
0.015258789
0.013427734
0.010681152
0.010681152
0.010375977
0.010681152
0.012969971
0.012969971
0.020294189
0.039825439
0.06652832
0.059356689
0.063476563
0.058898926
0.015106201
-0.009002686
-0.009002686
-0.006408691
-0.016174316
-0.023498535
-0.021209717
-0.01663208
-0.013885498
-0.011291504
-0.006256104
-0.003967285
-0.018615723
-0.078582764
-0.050354004
0.209960938
0.90713501
0.898895264
0.125274658
-0.376739502
-0.430908203
-0.279846191
-0.146484375
-0.093841553
-0.067901611
-0.05065918
-0.040588379
-0.030975342
-0.021362305
-0.010070801
0.000762939
0.01159668
0.023040771
0.030212402
0.039520264
0.047149658
0.061187744
0.078735352
0.095214844
0.117645264
0.140686035
0.160675049
0.169219971
0.171661377
0.157318115
0.114898682
0.041503906
-0.043792725
-0.121917725
-0.17868042
-0.210571289
-0.219268799
-0.216674805
-0.203399658
-0.186462402
-0.167999268
-0.14831543
-0.131225586
-0.1121521
-0.099487305
-0.084991455
-0.075073242
-0.063018799
-0.052490234
-0.045776367
-0.04196167
-0.036315918
-0.028381348
-0.026092529
-0.023651123
-0.019989014
-0.021362305
-0.021209717
-0.018615723
-0.018768311
-0.016326904
-0.011291504
-0.011291504
-0.011444092
-0.006561279
-0.004272461
-0.001678467
0.000915527
0.003204346
0.003051758
0.00579834
0.008239746
0.008087158
0.00579834
0.00579834
0.008392334
0.011138916
0.00579834
0.00793457
0.013122559
0.010681152
0.008087158
0.01083374
0.011138916
0.013122559
0.012817383
0.013122559
0.012969971
0.012969971
0.015716553
0.012969971
0.010681152
0.013122559
0.018005371
0.031280518
0.051727295
0.042419434
0.053405762
0.039215088
-0.002746582
-0.018920898
-0.009002686
-0.006561279
-0.016326904
-0.018768311
-0.021057129
-0.019836426
-0.011291504
-0.008850098
-0.003967285
-0.003967285
-0.033111572
-0.075073242
-0.009307861
0.343475342
1.035308838
0.670318604
0.271911621
-0.389251709
-0.419921875
-0.276184082
-0.146331787
-0.095977783
-0.071105957
-0.053100586
-0.046081543
-0.038452148
-0.026397705
-0.013427734
-0.004119873
-0.001678467
0.005645752
0.012969971
0.020294189
0.031433105
0.045776367
0.058135986
0.077667236
0.097961426
0.117797852
0.132598877
0.146026611
0.149536133
0.137634277
0.096282959
0.03036499
-0.045623779
-0.107574463
-0.152587891
-0.175476074
-0.182800293
-0.182800293
-0.170440674
-0.154418945
-0.141143799
-0.128936768
-0.110473633
-0.094604492
-0.082244873
-0.072479248
-0.067443848
-0.060119629
-0.052947998
-0.050354004
-0.043334961
-0.03692627
-0.030975342
-0.023803711
-0.018615723
-0.021057129
-0.018615723
-0.016479492
-0.016326904
-0.012969971
-0.01373291
-0.011291504
-0.009155273
-0.003967285
-0.001678467
0.001068115
-0.001678467
0.000762939
0.005493164
0.008087158
0.005950928
0.00579834
0.006103516
0.003356934
0.005493164
0.008392334
0.00793457
0.005493164
0.008087158
0.010528564
0.020294189
0.033721924
0.054168701
0.044555664
0.057983398
0.038604736
0.000915527
-0.021362305
-0.006561279
-0.000915527
-0.01159668
-0.016174316
-0.016326904
-0.011291504
-0.008850098
-0.003967285
-0.002746582
-0.001678467
-0.030975342
-0.07019043
0.015411377
0.36529541
1.012268066
0.65612793
0.051574707
-0.352172852
-0.41595459
-0.281829834
-0.15335083
-0.098571777
-0.075073242
-0.054016113
-0.040588379
-0.030670166
-0.026092529
-0.015106201
-0.003662109
0.004730225
0.008392334
0.015716553
0.030059814
0.037536621
0.047149658
0.058898926
0.077819824
0.093078613
0.112915039
0.126495361
0.139923096
0.140075684
