ECG
0.0037664851948931
-0.0174659169775867
-0.0156791370082469
-0.0015977050524144
0.0024827108020106
-0.0146149624731127
-0.0010043010066689
-0.0029886714846428
0.0058801122813627
0.0118233711304822
0.0283330351855437
0.022735595703125
0.0267066759786165
0.016632080078125
0.0162488265785538
-0.0075921528317785
-0.0013025692692344
-0.0146186705791039
-0.0556759793083772
-0.038414960284685
-0.041976582665667
-0.0461336254587195
-0.0388279756851403
-0.0273431081094592
-0.0261595429373059
-0.0191668131302039
-0.0331450824325084
-0.0100258868498928
-0.0018681223603697
0.0072201340900506
0.002362900158489
-0.0043880213152552
-0.0094119158680794
-0.0008149617031035
-0.002869110167658
0.0112094152087178
0.0141537132485922
0.0177001953125
-0.0007294092062462
0.0040008170764616
-0.016933882420053
-0.0316158702468824
-0.0313023010272484
-0.0196871661499816
-0.0192076474756434
-0.0046361950075111
-0.0046901148171181
-0.0168030746318719
0.0373125684968452
0.0877683478635537
0.0839091265530825
-0.0584274642056316
-0.1122807119846336
-0.0454807243843768
-0.0346893680018765
-0.0246767690894383
-0.0194090899968442
-0.013275146484375
0.0015836992551566
-1.5239043734669783e-05
0.0036071504255727
-0.0051696753247845
-0.0043853406358533
0.0304657064749869
0.0252318805825675
0.0236358338031402
0.022521817370937
0.0390442272035191
0.0277191495437383
0.030432154474783
0.0329254005814647
0.0082521789580284
0.0234467086862344
0.0292383267513161
-0.0089297817742648
-0.0109037708942238
-0.0236551792062289
-0.0469298792987714
-0.0551668208864011
-0.0598872230309844
-0.0309081407431464
-0.049614755501931
-0.0227383366225849
-0.015869140625
-0.0137610957774801
-0.0155357474291536
-0.019143388141325
-0.019769201300859
-0.0149098188096938
0.0058191008864002
-0.0161898148166067
-0.019052768792119
-0.0069854223618895
-0.0020689859083573
0.0107147762972783
0.0142579250818458
0.008428491364085
0.0019655705816136
-0.0080018316062131
-0.0115761361781275
-0.0164327459564615
-0.0287332947685319
-0.0381133353160583
-0.0237881037605021
0.0022395621288422
-0.0246435132692106
0.0581036976943756
0.1119744133969301
0.10009765625
0.0264437083494298
-0.1003332113379963
-0.0911761005808139
-0.0129944682983917
-0.0033121351224084
0.0048693722892334
-0.0139662798713317
-0.0110020440686389
-0.0183351264635519
0.0085943186654994
-0.0027264735884501
0.0212276348467606
0.0099561891832867
0.0151377334591529
-0.0131234688868865
0.0349857587848075
0.0266376225452441
0.0289517868798062
0.023040771484375
0.0233597154496353
0.0293484153300704
0.0310110440300206
0.0118424956534895
-0.01588499043528
-0.012916477593453
-0.0230507646291396
-0.0396054664421379
-0.052947998046875
-0.0546779650138396
-0.0497080572039413
-0.0584055803562295
-0.0258603576881717
-0.0420253703629184
-0.0329093466245465
-0.014247610657146
-0.0159543132752706
-0.0136974087230738
-0.012886581825834
-0.0176115086629187
-0.0280796657943337
-0.0187488547039367
-0.0121715967501675
-0.016426360517772
-0.008887192102448
0.0042884864477567
-0.0063395860995647
0.0106441432375376
-0.0067941202387087
-0.0286158418511345
-0.0206860873909955
-0.0250726411932253
-0.0530331171504891
-0.0387443341345246
-0.0224334921613239
-0.0018647941010054
-0.0057968338440371
0.011725686969435
0.0967318673778343
0.1182893613412124
0.0388040838361976
-0.1069041875995894
-0.0775716455064965
-0.0384183956373304
-0.0185685547452649
-0.01953125
-0.0244127071002681
-0.0186683724061059
-0.0261236399042874
-0.0009882939031167
0.0290241685725159
0.0214311171609144
0.0106148816631773
0.0018298047077296
0.0115629084806663
0.0151737469322064
0.0138529282931475
0.013596615509164
0.0377905426848721
0.0434036797042716
0.05218505859375
0.0482875982773622
0.0189231273170402
0.0122419168966183
-0.0057765664345995
-0.011138916015625
-0.0556729405355384
-0.0537293926897706
-0.04913330078125
-0.0403845920454894
-0.0526448101852806
-0.0174143666075085
-0.0247858770951188
-0.0385902067776154
-0.0075472171470479
0.0016921546609315
-0.012441880191526
-0.020633174927865
-0.0013386061689761
-0.0066297637970187
-0.0051376878909164
0.0090340170341449
-0.0050023955702944
0.0001022573803094
0.0066116198471828
0.0022715227893667
0.0200747050553588
0.0106976965872357
0.0088169924359579
-0.0061352219389492
-0.0221756449309329
-0.0208023639552951
-0.0165816592078324
-0.0201403064027836
-0.0189534715379302
-0.0326882658671166
-0.0161232529760799
-0.0066295529570513
0.0477393675294801
0.1179659696568215
0.1050696975594971
-0.0683530498015189
-0.1162573510724815
-0.0600362383556153
-0.0351300335570486
-0.0226688163292581
-0.0291781453295245
-0.0189894917042809
-0.0077652624784125
-0.0084771953947069
-0.0039166835659854
-0.0151906793889514
0.0081381413133013
0.0040008087097859
0.0073413202133669
0.0071709983395129
0.0362640513387331
0.0416405573170591
0.0297375639818362
0.021073940883018
0.0252450062067003
0.0348407510927312
0.0162086230796134
0.0007125989028145
-0.0148008446706594
-0.0192427707355637
-0.0344675409379599
-0.0545925714836081
-0.0685118424106479
-0.0454884033095587
-0.0151739979321604
-0.0497943894739967
-0.0497267918403293
-0.0475565893647685
-0.016428679757311
-0.0194634365063863
-0.0149875217013888
-0.0183953145786754
-0.0247870919348328
0.000407142001667
0.0046454669456978
-0.0136652271825979
-0.0089177538565412
-0.0037469624186716
0.0021705137155681
0.0313483645383951
0.0127664197823043
0.0108842163246367
-0.0169713650794756
-0.0153599922430393
-0.0305182106449315
-0.0346884644020604
-0.0182597645647763
-0.0355192976687683
-0.014392949669107
0.007578055001176
0.0126323590347886
0.1004047295909981
0.1304619838444666
0.0388718086433578
-0.0978953358206429
-0.086481501231176
-0.059186929819129
-0.0385028755277338
-0.026482804101743
-0.0140698591845852
-0.0100196369511106
-0.0121391106630734
-0.0128848248261825
-0.0107997765942437
-0.0026269353743144
0.0145805035264092
0.0063234986759831
-0.005425223395581
0.007156075555729
0.0210410230760313
0.0198543170578494
0.0392515347569107
0.0388740358495813
0.018310546875
0.02288818359375
0.0246672461512715
0.0087301096393139
-0.0052400306112478
-0.0157505414744985
-0.0429466539722374
-0.0638149773681677
-0.0432662053573906
-0.0374354179132337
-0.0394522694582996
-0.0344334584911334
-0.0085084365220162
-0.0171935368500414
-0.0251247086231589
-0.0165475031344112
-0.0128339421159776
-0.009171826047646
-0.0149545319410931
0.0103438318353253
-0.005138390690812
-0.0204302515069322
-0.0101708945419343
-0.013581316225418
-0.010882248485012
0.021008655795586
0.0003391996613659
0.0047312788091565
0.0238377381642838
0.0069685417784817
0.0124946420546351
0.0086107574889717
-0.0254997594443296
-0.0263812595613038
-0.0263120321012898
-0.0314154986587996
-0.008358293370927
0.0010516964908701
-0.0107656523141508
0.0325615510516611
0.1260236989522858
0.1205204513850207
-0.0312152324905964
-0.1132857291777692
-0.0587764612315609
-0.0404685214093218
-0.025904543719708
-0.0193609548994394
-0.0230394010246354
-0.0059127088083914
-0.0095789730692637
-0.0064072757665373
0.0027302636877263
-0.0089033698859988
0.0026991279804525
0.0201578998260355
0.0105804210431495
0.014190673828125
0.0238377883642762
0.0116663740073985
0.0216318485155967
0.0321797868183394
0.0281265074053117
0.0241072903590447
0.0352315647108395
-0.0001574673297755
-0.0174469765212438
-0.0373208180286631
-0.047540905214481
-0.0606114884115606
-0.0458198554391522
-0.0235846415263561
-0.0527110239724979
-0.0345010410648008
-0.0294171207101797
-0.0280402889218849
-0.010542930017059
-0.0185941500470612
-0.0109199285977785
-0.0191739867087636
-0.0140219550072739
-0.0105626803665576
-0.0084766867014645
0.002649916929822
-0.0018348799267724
-0.0163751966875734
-0.0057140005133245
-0.00823974609375
0.0032424190491546
0.0278172202448428
-0.0009857922702594
-0.0200191102394402
-0.0100045652406774
-0.0229564555806076
-0.0250083768389185
-0.0130020317636316
-0.01953125
-0.0245986846777639
-0.0097635015404136
-0.0215084770193195
0.0477932354659906
0.1095486210172293
0.0980209930898003
-0.0416691010317142
-0.1157893834157756
-0.0598237300832
-0.0270172817255315
-0.0195631504205063
-0.0166662411715461
-0.0169873554497288
-0.0078457029429493
-0.0041221922864501
-0.0038624474964256
-0.0014734500363403
-0.0019812781585575
0.0115466102171462
0.0106994368535662
0.011749267578125
0.0190075553341684
0.0215405213464785
0.0268188327970468
0.0229565492872564
0.0319775728906239
0.0395152637528631
0.015411376953125
0.0297913582914778
-0.0004837672668545
-0.0295994905817555
-0.0376759745936087
-0.042627201313805
-0.0350136281461182
-0.0543738986523816
-0.050940666093276
-0.0286969985021573
-0.0301992984729337
-0.038178498250168
-0.0366026419068779
-0.0260583196767944
-0.0225194245047579
0.002183438539632
-0.0240561867688862
-0.0090184081838459
-0.0012392051681027
-0.0023886761801361
-0.008034418093292
-0.007695009265281
-0.0041540977269556
-0.0094262228653364
0.00152587890625
-0.0046646567286683
0.0015102165092756
0.0127988054694163
0.006256103515625
0.0103759765625
-0.0128419188945236
-0.0029237444904469
-0.0392805737780071
-0.0296519094116497
-0.0263105796482334
-0.0227260777849283
-0.0242553602505235
-0.0019338040277213
0.025397947170573
0.1121489336633855
0.1225872335137799
0.0034189807818317
-0.1022214789544677
-0.0803545221307493
-0.0514842868086312
-0.029882113180673
-0.0226766893611239
-0.0326318410779428
-0.0050631927785804
-0.0161277910552145
-0.0147700218765911
-0.0017404470515681
-0.0032419187225361
-0.0002863809048648
0.0047899625978677
0.0156392112826496
0.014900511731468
0.012699078168609
0.0266685959393058
0.0202855550547599
0.0369039974688599
0.0261165181989054
0.0293346153527617
0.0237624900521255
-0.0043410508576322
-0.0206252483494084
-0.041229519796158
-0.0337940478275602
-0.0493544919786714
-0.0380251339330329
-0.0490339550003737
-0.0660444426056799
-0.0299686445773158
-0.0174482917610168
-0.0218543800527693
-0.0265692719117719
-0.020191244332938
-0.020599365234375
-0.0096246617538066
-0.0020142578788833
-0.0080528364697306
-0.0106315346733042
-0.004688399650764
-0.0046119634721443
-0.0096320913523628
-0.007339486240391
-0.0066947962111723
-0.0068550262136936
-0.0120201082393203
-0.0119361922621405
-0.0068969231255703
-0.006836000417312
0.0167276859597418
0.0170442019187961
-0.0083236436642597
0.0045967829950584
0.0245745719491161
0.0211905537872267
0.0190846759059227
-0.0188298557349999
-0.0276487423839377
-0.0207933982370041
-0.01434326171875
-0.021820068359375
-0.0032154047609727
-0.0039549961985933
-0.0109601856433638
0.0465187045647163
0.129067411379688
0.1146867841347527
-0.0226934678712239
-0.0974500083596925
-0.0687592731429875
-0.0405347050765829
-0.0361331833105944
-0.0243217413710616
-0.0113301478587902
-0.0148075246160214
-0.0073328029483457
-0.0113860505680065
0.001265802796342
0.0020717870678289
0.004154265060254
0.002899169921875
0.0046138911517411
0.0128623820838264
0.0209583453652845
0.0188176972973705
0.0252458060598813
0.0425376177576639
0.0292579967807885
0.0334571389591207
0.0044639605139861
0.0180547277242455
-0.0052061205177576
-0.0362217729068589
-0.0655335991373498
-0.0463717993128758
-0.0525005538196805
-0.0467802498609002
-0.0313046637735031
-0.0552275394480347
-0.0407205019341474
-0.0349872647845076
-0.0349621831960364
-0.0154411087340673
-0.0138666429305052
-0.0256691994717064
-0.018783156357358
-0.0180742454804927
-0.0229623457128062
-0.002977629160162
0.0034798834100652
-0.0057687151561275
-0.0058675338370956
-0.0185909740610639
-0.0110748825812721
-0.0068615756390554
-0.0048188024923438
-0.0055128893120603
0.0004233080718403
-0.0032240441793378
-0.0159183516755172
0.0019541517571282
0.0030222803781835
-0.0055570920768526
0.0111633516975866
-0.0067777717752039
0.0096723082379944
0.0393037946202217
0.0208796920204078
0.0102036065290211
-0.0024171412480386
-0.0238279474928822
-0.0134724843197198
-0.027539932231589
-0.0205105765114538
-0.0229028352975953
-0.0023388911764044
-0.0194915518476212
0.0276643947410398
0.0987955421273513
0.133011636333662
0.0345490456418616
-0.1220317840073788
-0.0813771360938882
-0.0503831868339643
-0.0241433874987778
-0.0379851529873786
-0.0266576540147277
-0.016297774915817
-0.0082543040909507
-0.0101344125356623
-0.0143378401197838
-0.0030118086601594
0.0051734570573774
0.0042524696280092
0.0119328188228147
-0.001692977940751
0.0171498929784275
0.0245321278572689
0.0291788113160631
0.0271985405039512
0.0319276356135213
0.0403121450927448
0.0388296456715484
0.0175162976878985
0.0009187133697549
-0.0190213569848799
-0.0410229301025983
-0.0522020914504759
-0.0477831653477963
-0.0410431406187495
-0.0563971189028735
-0.0457072752674673
-0.0260291869490847
-0.011749267578125
-0.028228759765625
-0.0351872766060238
-0.0155294105170656
-0.0005152192341749
-0.0069557709009389
-0.0198970523095819
-0.0074852770523373
-0.007776093962997
-0.00213623046875
-0.006990395507624
-0.0166893482271118
-0.0005209537463677
-0.00693559719815
-0.0166357195774048
-0.01708984375
-0.0067912939792467
-0.0010944401093242
-0.005723141931557
-0.0115824161969097
-0.008809445704054
-0.0083353335687013
-0.0022257454181858
-0.0088582200146953
0.0114502212157148
0.0164856366663204
0.0094950420320907
0.0040302995307695
-0.0068460621687064
-0.0219300665782035
-0.0228677739510109
-0.0206623327555701
-0.0302470051970869
-0.008488242739265
-0.0164386059687013
-0.0043416766841815
0.0157134938815593
0.0934846374964789
0.1255593574083154
0.0125129466445176
-0.1263350208856382
-0.0862212343613324
-0.0463598082084675
-0.0283338952787304
-0.007053665902086
0.0132827902695531
-0.006817746027512
-0.0125544352631279
0.0033287948258449
0.0106595328812677
0.0057084969210433
0.0105079791104242
0.0041264241456344
0.0028224241766641
0.0327428315832893
0.0201976916850448
0.0173117176672912
0.0167566496807903
0.0318142154287192
0.0462488093364867
0.0185124194427458
0.016632080078125
0.0104872097010823
0.0052014217987073
-0.0302537905624336
-0.0546467054798666
-0.0565200770858707
-0.0363015875449279
-0.048127719674847
-0.0519560194645246
-0.0552856827501655
-0.0268000479606492
-0.0212719999248621
-0.0170829763913095
-0.0088569800749289
-0.0271328672032598
-0.0119365888420321
0.0033084002430666
0.0015605587329104
-0.0264323865781145
-0.0114926301675262
-0.004730224609375
-0.0097309384800113
0.0140797920894659
-0.0046678778947275
-0.017249479719281
-0.0161049299796067
-0.0010610370357421
0.0080177650831458
-0.0028364600939837
0.0171454552992969
0.0109796849929392
0.0101121254132655
-0.0029900854510559
-0.0221599507406107
-0.0310657118194952
-0.0282562559736764
0.0018035718661287
-0.0049529920865016
-0.0149600823866384
-0.0132477038229799
0.0173620280976647
0.0968530869679693
0.1072345654493892
0.0221414035176623
-0.1127487633078493
-0.073096963947962
-0.047779979321788
-0.0268270120488311
-0.0161879774969474
-0.0110074071009596
-0.005166900938645
-0.0059434730357957
0.0026982093205668
0.0034202709215518
-0.014275157065186
-0.008121901616438
0.002109015380668
0.016632080078125
0.016979564411226
0.0389869875012312
0.0124367129390912
0.0168058473446755
0.0214530026833701
0.0351376070622807
0.0336659608789124
0.0283678003521937
0.0144592672030242
-0.0177195674887277
-0.0194288487130597
-0.0366442710855542
-0.0496258329664342
-0.0515341855990349
-0.0525790080378996
-0.0456585528301812
-0.0370710563433452
-0.0362194034673223
-0.0255595660394942
-0.0317786822022148
-0.0354542317879736
-0.0224471515787047
-0.0195818181236287
-0.0181848394058617
-0.0157354982107333
0.0017132570635124
-0.0098645323676515
-0.0154809641797281
-0.0142711142926468
-0.0031293485909149
-0.01686765859277
-0.0095835964883791
0.004119873046875
-0.004558947262392
0.0046848304314881
0.0266976081870654
0.0165810668479511
-0.0088529858290847
-0.0207682179218289
-0.0344152358946527
-0.0300813033956533
-0.0072863662838934
-0.0232445633651573
-0.0248534211820966
-0.0128705814155485
-0.0052278671535875
0.0415616763989283
0.1116975922435553
0.1223340732891001
-0.027124229458107
-0.1213520978915561
-0.0612324271520049
-0.0395732480883454
-0.0322009260342843
-0.011770873653974
-6.48433275278761e-05
-0.0182408625950821
-0.008392333984375
-0.0117360616340074
-0.0129483227939598
-0.00091552734375
0.0124990211671289
0.0002099899061912
-0.000226959176309
0.0171285814092044
0.0278972658027894
0.0224264641625984
0.0246580863263612
0.029144287109375
0.0291660186852049
0.0398951705863633
0.0246584829062575
-0.00946044921875
-0.0169807859443554
-0.0347725159191709
-0.0454232253154864
-0.0277797576653235
-0.039215087890625
-0.0645534125327014
-0.0676138164568486
-0.0400739093252746
-0.0001174679774262
-0.0253383848820649
-0.0329110584442287
-0.0328496989960423
-0.0117929984630285
-0.0092250581174025
-0.0032782752288835
0.0083130113063183
-0.0330020777200647
-0.0046734183003
-0.0018310546875
0.0071805764976517
-0.0159219660748664
-0.0182148054534422
-0.0094683841638898
-0.0015168730279847
0.005956024706769
0.0103281259317173
0.0176743322774788
0.0147881005664461
0.0160269727413437
0.010449629988343
-0.0146317393098962
-0.0243791400400564
-0.0142825548704565
-0.0309587289467057
-0.0181396159078902
0.0015957372128072
-0.0104237719733019
-0.0099053549997708
0.0331135652052729
0.1125071072477918
0.1154113724686221
-0.0038490340591459
-0.1042909434360651
-0.0660647602150097
-0.0377753973477978
-0.038544181753129
-0.0297196911119352
0.0015037206305159
-0.0167369327979366
-0.0205738100926432
-0.025119864324119
0.0111766262483645
0.0036748668658693
-0.01157734265128
0.0107794924514869
0.0376702333880282
0.0166480386550187
0.0051053323238327
0.0256188639413959
0.034532543232071
0.020751953125
0.0412432812868208
0.024140462512638
0.0085672140173752
0.0259683495807198
-0.0048797804205588
-0.0246939107128004
-0.0517563004762918
-0.0553224023697877
-0.045696696456159
-0.0452262773667252
-0.0304097083857963
-0.042006404806587
-0.0315535586722127
-0.0209969140178491
-0.0205447911514903
-0.0072192254702152
-0.0266454721504149
-0.0114665094392311
-0.009307861328125
-0.0083124607797614
-0.0097979471004722
0.0104109843624282
-0.0054125830380165
-0.0228782590556685
-0.011671899352971
-0.0040273594846838
-0.0031892689726956
0.0078520181017298
-0.0068414354029577
-0.0031693245165334
-0.0086374940038461
-0.0049553063060208
0.0103808225349478
-0.0050752307362636
0.043577788330755
0.0361104460615427
0.0020459240328379
-0.0035749621918073
-0.01898082049263
-0.0151661115136537
-0.0194114527430372
-0.0298021027627342
-0.016739414350764
-0.0107636510078696
-0.0126319105815223
0.0281791755618549
0.0883976248225776
0.1256952738821416
0.0535419710257199
-0.109366356565692
-0.078603251961255
-0.0475393155481233
-0.0495066079894153
-0.0221129016363389
-0.0280885076859578
-0.0121615600987616
-0.009472771643036
-0.0125927796890422
-0.01953125
-0.0130542514668669
0.0079063512246713
0.0083257687971819
-0.0052721937450364
0.014155595748209
0.0070769335976181
0.0178633402610951
0.0181930420842879
0.0389449968826238
0.025190883923815
0.0243545035581407
0.0293915120217799
0.0019852171844479
-0.0034606601604208
-0.0194610603735099
-0.034400959017406
-0.04425048828125
-0.0563644085891659
-0.0475386629482187
-0.0411041737669726
-0.0527832416785897
-0.0438521547045916
-0.0265030296778524
-0.0245288698778824
-0.0176906807410138
-0.0131334017916823
-0.0156597213252923
-0.0011141051188574
-0.018251198773087
-0.0204600903811495
-0.0143323432208754
-0.01068115234375
-0.0183928848991503
-0.0078412719571121
-0.0137318141231324
-0.018157958984375
-0.0080530791029866
-0.0077096542758526
0.0068774940560032
0.0047995106360412
0.0007278011332205
0.013485986443776
0.014003866277403
-0.0196468940444117
-0.023957177327914
-0.0142018182259651
-0.0134037454729618
-0.0239802743435067
-0.0234042696143934
-0.0043203584216379
0.0115854599896481
0.006289807789226
0.0788851215603019
0.1100855065672398
0.0551127370900062
-0.1116917790846311
-0.0970132031838263
-0.042808055145563
-0.0121128661081359
-0.0100118157926078
-0.010247190160631
0.0003403492411476
-0.0144487871184391
-0.0055635176756235
-0.0051765577434557
-0.0118789642731151
0.0066431036077619
0.0069249681868628
0.0044254052480251
0.0129936517118808
0.0192961383452689
0.0212339533521954
0.0221486155828044
0.0290037606031205
0.0220194326009998
0.0324546317654176
0.0119254427708492
0.0040494725804309
0.0073243576366218
-0.0067726179095201
-0.0641690914466809
-0.0296021980345938
-0.0357054626596398
-0.0595445177369605
-0.048252985384054
-0.0393207287502923
-0.0429710812875427
-0.0335692221507662
-0.0148127387217054
-0.0192729007697113
-0.0093430833146791
-0.0243319219291455
-0.0219374309167817
-0.0209162208800335
-0.0045186433634128
-0.0006455819157182
-0.0092493097327268
-0.0154230300442053
-0.0040025205294643
-0.0143671769941548
-0.0018077886653085
-0.0171959263696166
0.0026292362071743
0.0112678730974633
0.0146720766754617
0.0071823334973572
0.0057278423239871
-0.014320089403215
-0.0264445366491017
-0.025869433846493
-0.0295326543146453
-0.0130283465985499
-0.0044955664278897
0.000457763671875
-0.0078287838728606
0.0502176105325542
0.1272352489456843
0.0790240416667859
-0.0776961113627115
-0.1103187859221725
-0.0540851081479775
-0.0415153987011145
-0.01190185546875
-0.0116672341005834
-0.0032863758340006
-0.0025825284628387
-0.0094118974613947
-0.0105056598708723
-0.0070772197375529
-0.0044126393904913
-0.005340576171875
-0.0037679811546201
0.0250472517114398
0.0152816133247525
0.019007212300917
0.0404210891117676
0.0150116963433834
0.0258807254976577
0.0189664130953936
9.335190202496574e-05
0.0448734149413527
0.0072158336242368
-0.0294393643259142
-0.0383575616157047
-0.0402339586077324
-0.0338984939274599
-0.0655901427331232
-0.0617020999349259
-0.0429238280366489
-0.0355063527645971
-0.0232272544084554
-0.0238517757549497
-0.0108931067429443
-0.0093304178571023
-0.0187006811199334
-0.0063846255308841
-0.0068101641556223
-0.01068115234375
-0.0064665167751064
-0.007171630859375
-0.0093930607517161
0.0028172636176481
-0.0078526673549295
-0.00457763671875
0.0143337889805689
-0.0084518310129368
-0.0132174148221402
-0.0127690502617976
0.0178787767581695
0.0327245169534764
0.0215372215338201
-0.0060012113913777
0.0007406372707734
-0.0245220727991872
-0.0304357153274278
-0.0245535481931408
-0.0338411387652181
-0.0035822713103517
-0.0194979172064373
-0.0183418013889647
0.0518063599066417
0.13814060783293
0.1078336454406164
-0.0551853681095735
-0.1184149399637095
-0.0372823882626106
-0.0367139737721091
-0.0178616016680963
-0.0201571535195015
-0.0199380372549805
-0.0054931640625
-0.0127245529903701
0.0026868139227572
0.001744529984092
0.0015966709326251
0.0099316162880517
-0.0020129074991522
0.018247094087316
0.0200548760592462
0.0351440828610169
0.0301036691646851
0.0298743556088608
0.0328527561754475
0.0280188736060362
0.036008140154631
0.0189073444401193
0.0035151539232641
-0.0140926700603088
-0.0156893543795602
-0.0409125905237966
-0.0601986386710127
-0.0605447224244243
-0.0495065527693959
-0.0407627201260293
-0.0530707955899468
-0.0195638398337159
-0.0319045887979827
-0.0199181446721869
-0.0162943747031591
-0.0300106117692641
-0.011820146617813
-0.0054439279119595
-0.0074119080931626
-0.0300490047218725
-0.0243863822253304
-0.0031581014720332
-0.0031827664006273
-0.0117277016622837
-0.01190185546875
-0.016667534657969
-0.0090735980532194
-0.0080054861655163
-0.0094325279841264
-0.0027498149106644
-0.0042379701975609
0.0107273463748543
0.0150459913034486
0.0239950866873102
0.0352230424258034
-0.0059790598089757
-0.0215610615092281
-0.0105144682958477
-0.0242580459500221
-0.0285446114114827
-0.0245845165671862
-0.0018950295552079
-0.0023278170585606
-0.0029843626521109
0.0713543967834213
0.1239191647573854
0.1103952689541166
-0.0682961430922778
-0.1187734264613571
-0.0409111046040795
-0.030946757922343
-0.030670166015625
-0.0319867795688277
-0.0274190540014228
-0.0029951037767534
-0.0092119157599284
0.0014193595467562
0.00081284493688
-0.0109124872858284
-0.0084738989286707
0.000244684792895
0.0164728925621536
-0.0029557302509997
0.0243009652684532
0.02777099609375
0.0266673593462142
0.0396268332313623
0.0311989794071574
0.0289707357028098
0.0220186595211465
0.0043248027940684
-0.0065131174261806
-0.032196044921875
-0.0467838609135507
-0.054641118220947
-0.0556590418316321
-0.0272212961595742
-0.04547119140625
-0.0372626897864609
-0.0331826621452747
-0.01568706526005
-0.0179238797761029
-0.0325176109999271
-0.0178735459191266
-0.0117848208846139
-0.0044709717792779
-0.0189668163686541
-0.0107522689967262
-0.0082649582022302
-0.010452903027659
0.0040797498679578
-0.0122219406471395
-0.0121301800847966
-0.0022795681744104
-0.0031631147777003
-0.0234423613670718
-0.0120244739651419
0.0003201755383549
0.0111903208057647
-0.0117136891716398
0.0128426953209759
0.0251311593219478
0.0144343245012477
0.0150096933637793
-0.0093332073032612
-0.0192207262464326
-0.0220998814321683
-0.0145568124776457
-0.0318704410912257
-0.0089469367842921
0.0056355513150971
0.0028279729489123
0.0058896937861733
0.0943653394335017
0.1372934980560186
0.0674792921964145
-0.1162161352070067
-0.0951841012758128
-0.041966648087547
-0.0155486337666989
-0.0121204580199974
-0.0257007618789372
0.0046589908230917
-0.0068255588193273
-0.0085858415604589
0.0033622547927661
0.0005901644730393
-0.000543823188618
0.0210268884320744
0.0180564813772753
0.0109762613535978
0.0258485573438497
0.0109963815097184
0.0282854322080317
0.0362190470473898
0.0253551951854934
0.0355218043215684
0.0140881855278692
-0.0005646946712933
0.0013320199302195
-0.0245779453884341
-0.0410304801811464
-0.0419573744760728
-0.0565487831136731
-0.0402617610357882
-0.0565660318303376
-0.0495454477219134
-0.047098246719715
-0.0332027856480635
-0.0320118912772855
-0.009480315028241
-0.0071359654395739
-0.0205795261981967
-0.0219469003082801
-0.0181936294241769
0.0114500655957299
-0.0151319822135801
-0.0141352262654822
-0.0171452795993391
-0.0009770122919211
0.0040841925670769
-0.0079702524656339
-0.0147456363946102
-0.0144540162840767
0.0054217897162397
0.0028795049123224
0.0189958922030421
0.0043277913668389
-0.0181936528508401
-0.0139855298942619
-0.0260407329468325
-0.023956298828125
-0.0117590532295766
-0.0100644354224831
-0.0082495183585297
-0.0207812498393439
-0.0203429838437238
0.0687877348641679
0.1100613252318672
0.0869166447876782
-0.1102043483510445
-0.1057335154583872
-0.0447405656868366
-0.014498978742098
0.0027593880487761
-0.0284333950062542
-0.0206738569999992
-0.0022106971344071
0.0140410728369178
-0.0093242466049923
-0.0017692584994055
0.0080678412468548
0.0213758620315679
0.0179106537519043
0.0075936571581313
0.0231974155342612
0.0277737554198779
0.0205608919617732
0.0307128192740596
0.0423383371826982
0.026755179209341
0.023956298828125
0.0099112166852858
0.0139882975870462
-0.0248526832422234
-0.0389814236689405
-0.0464033600468098
-0.0496983418324771
-0.0530028482296456
-0.0445556640625
-0.0311374609923221
-0.0407672080051638
-0.0308870751538619
-0.0329422376582281
-0.0117850384179077
-0.0109103454195509
-0.0157143623414719
-0.015566126789958
-0.0091289736625508
-0.0182442494211124
-0.0132961518336516
-0.0244288815372124
-0.0109431126266725
-0.004308246837278
0.0025487689693329
-0.0096036062045376
-0.0128437495207504
-0.0033927261868609
0.0039748469481346
0.0097392331917495
0.0088424923577321
-0.0059415369895222
-0.0142980767074503
-0.0157898648002677
-0.0172655085762441
-0.0173140436001752
-0.0235437000875446
-0.0192073730490136
-0.0034378994848265
-0.0043549596015887
0.0587246615347841
0.116952477031904
0.1005425888041943
-0.0575686963175352
-0.1177806379858085
-0.061693358443302
-0.037078857421875
-0.026964255475756
-0.0158147589754733
-0.024548109860858
-0.0133826397236888
-0.0168748472313853
-0.0054850801907149
-0.006965857752296
-0.0109320167554464
-0.0069044564707868
0.0120012079429505
0.0080779414849098
0.0143166272772172
0.0143156517240844
0.036736895087717
0.0225287784362708
0.0249710782461139
0.019207721102296
0.0231750196452024
0.0095054685700841
-0.0052947937806631
-0.0210121195949197
-0.0357414276060165
-0.0453179207957513
-0.0465666957553319
-0.0419610440953566
-0.0514579870337197
-0.0456602177965314
-0.0268913399897627
-0.0217306420965724
-0.0193231576534334
-0.0165871209667793
-0.0112197480400586
-0.0134099936984351
-0.0110758464211076
-0.0047751636407244
0.0066873448592145
-0.0079885419954584
-0.0079526423090152
0.0158513095884083
-0.0051968117662022
-0.0142265668212159
-0.0137509286061087
-0.0036351017802318
-0.020455773182023
0.000484674213365
0.002710680671494
0.0299162023208193
0.0031953481915392
0.0054303705679406
0.0117043185067677
-0.0033838943352253
-0.0242973860091271
-0.0128979738769525
-0.0082312154420877
-0.0425990156925106
-0.0311098426309658
-0.0218919078922151
-0.0102860165064865
-0.004425048828125
0.046504491274084
0.1160124018929412
0.1058955693938342
-0.019068258835773
-0.1058236495409592
-0.068520306129063
-0.049608761623045
-0.0236964703714761
-0.0272054179026223
-0.0257696965056741
-0.0242967618559021
0.0091010172879465
-0.0131856399016225
-0.0106356644591614
-0.0085177687002232
0.008759824686931
0.005125691766564
0.0045592334022848
0.0298633852376233
0.0157875556006637
0.0114265820402371
0.031890869140625
0.0433611854124413
0.0276893106694771
0.0189044947539642
0.0383540509630698
0.0158059187571658
-0.0129438466281529
-0.0409208249955781
-0.0562155957378342
-0.0469598721196618
-0.051891067370344
-0.033613988828898
-0.0266682093994125
-0.0448348563287517
-0.0201416015625
-0.0183465319014076
-0.0302829534101402
-0.023246616544741
-0.0067944749853155
-0.0110136988330782
0.0064963707094165
-0.0144340316679523
-0.0265330911053944
-0.0034530916751616
0.0081832711046756
-0.0034289371132236
0.0021825148598803
-0.0078625600996981
-0.02130061559272
-0.0106451438906811
-0.0235620080240482
-0.0130230638862442
-0.0192346082171031
-0.0060655945522832
0.0080596619950851
-0.0040203314860448
0.0081166624108206
0.0167506658419777
0.0217840448463099
0.0102573372520216
-0.0252236143175119
-0.0196732306326663
-0.0233735104069854
-0.0166214293134828
-0.0066969598307704
-0.0235452646539216
-0.0191624407110001
-0.0119463276401825
0.0363758099039727
0.1428461892670645
0.1296480813611871
-0.0043470815502288
-0.128925921033571
-0.083172237548304
-0.0410964630484367
-0.01434326171875
-0.0205381915261309
-0.0321767229455855
-0.0074020755882879
0.0018420535053707
-0.0044137036303543
-0.0175198853138733
-0.003750903117888
-0.0061645604865913
0.0055403386667669
0.0153586820232766
0.0200416968884053
0.0039478125800066
0.0174700685168404
0.0350011350418899
0.0264893769538113
0.0269358991745179
0.0118657750623605
0.0082262707430374
0.030487638850767
-0.0064035459072844
-0.0265204641345597
-0.0579441520850524
-0.0468412963958197
-0.0361747639626178
-0.0542769825510356
-0.0535829676846336
-0.0290441950219763
-0.0379500933141607
-0.0378384401690101
-0.0100789800330043
-0.0204106735107002
-0.0144515782379068
-0.0240646203672664
-0.0170502359576049
-0.0088338060860541
-0.0070109038769802
-0.0156000787167988
-0.0005182563335503
-0.0121583171794527
-0.003204345703125
0.0019438239457692
-0.0194951277602861
-0.0085891380264784
-0.0096329916055264
-0.0019555941701807
-0.0076855080804589
-0.0131025589175984
-0.000795174540265
0.0031481819539159
-0.0018110098313484
-0.0042082250298649
0.0176760993171296
0.0226472638001427
0.0195513550961318
0.0128896707985841
-0.0015460141223934
-0.0243619180967201
-0.0143752290725915
-0.0186640685936126
-0.0237074708627161
-0.0269118332991321
-0.0252450179200131
0.0030517578125
0.0179981724152675
0.0934771978577682
0.1210383596653311
0.0615871553437121
-0.1101174488210375
-0.111471765913783
-0.0442776113359881
-0.0356286734076585
-0.027313232421875
-0.024766586912104
-0.0075366366624267
0.0020481194457317
-0.0014535206401812
0.0005206809930545
-0.0153216528370247
0.0142582630951089
0.0001447433054658
0.0162026660141368
0.0145603967569564
0.0204673191797981
0.0294729163261179
0.0331555775771467
0.039701243003688
0.0203743822643529
0.023956298828125
0.0266149103963238
0.0179200963701608
-0.0039026476486915
-0.0012491447662028
-0.0292658447126147
-0.0395047619148623
-0.0592662692305409
-0.0569307581867866
-0.03082275390625
-0.04302978515625
-0.0397530042137356
-0.0250321247810026
-0.0123179933086668
-0.0129052227555818
-0.0168208922817767
-0.0203457833298634
-0.0122454175092492
-0.0111521336730977
-0.0034273072869451
-0.0033855091015792
-0.0129470192675601
-0.0172939552373633
-0.0070991554599951
-0.008296964042729
-0.013244651663616
-0.0219364135303091
-0.0002174663581374
-0.0031032111292652
0.0125847025106317
0.0069102947296928
0.0070038758783397
0.0105859162687452
0.0102385289889415
-0.0007840686290615
-0.0218699136031183
-0.0205404555457422
-0.0353066940163451
-0.0147223837590887
-0.0107475368109637
-0.0155927076848953
-0.0086762751697263
-0.002806661379639
0.0745479494886411
0.0962817491646781
0.0635837695995065
-0.110056209852944
-0.0970417351849412
-0.0347324195135975
-0.0318545879342777
-0.0313317132015925
-0.022793265452057
-0.0135300787686377
-0.0091775823131874
-0.000762939453125
0.0016339293654384
-0.0079552426685058
-0.0181372364283193
0.0080575469021821
0.0082686479015218
0.0150551226817049
0.012141811422541
0.0154261290569708
0.0384584334763092
0.0240509994365652
0.017852783203125
0.025634765625
0.0063797226651575
0.0264633616454478
-0.0075274483909102
-0.0237963884322452
-0.0346954555873804
-0.0409735031921039
-0.0472876412432171
-0.0569443105108731
-0.0591604878108977
-0.042644674257062
-0.0279453607401702
-0.029536645213864
-0.0211297716389215
-0.018157958984375
-0.001983642578125
-0.0097148042031276
-0.001271512208548
-0.0109064197803825
-0.0109427645733912
-0.0135511945578913
-0.00457763671875
-0.0001231071096437
-0.0059145795947041
-0.0059800889087688
-0.0007409518573608
0.0103754996625996
-0.0169956284081628
-0.0030804052736266
0.01568676740676
0.0101000121556246
0.0189650543490451
0.0092572279445232
-0.0119681796959983
-0.022168732392254
-0.0214271329549815
-0.0097008218324854
-0.020686311617633
-0.0033862119014599
-0.0155861632794648
-0.0095898547538174
0.026603832931812
0.1142388529677232
0.115071379647421
0.0088798244169922
-0.1138235183276094
-0.0725801868407807
-0.0396786714147447
-0.0269493326919138
-0.0191826612671095
-0.0190932099043378
-0.0007993344461202
-0.0128103815871877
-0.0010596950226011
-0.00946044921875
0.0003934374042839
0.0125919882025545
0.0005514770138363
0.0022090438813986
0.024190294369777
0.0224356959408177
0.0023616418120236
0.0156437259350622
0.0379579696926327
0.0287160192784774
0.0314017539014337
0.0202194667675157
0.0010178918173954
-0.0077681941578688
-0.0341659126226576
-0.0494315958171687
-0.0420482749452097
-0.044266316338213
-0.0300233826468044
-0.0542938731744879
-0.0397594164258423
-0.0357852806442358
-0.0356896295826416
-0.0152451346651269
-0.0183378288964333
-0.0010749290463896
-0.0155799886806751
-0.0119587036111416
-0.0184063050298859
-0.0066706299358288
-0.0157758958163212
-0.0149307070256614
0.0064019244475598
-0.0162607507495998
-0.0093146149001587
-0.0128903033184615
-0.010810758678783
0.0001755845062137
-0.0005873398869228
-0.0108039933934357
-0.0007897931012449
0.0191531336327961
0.0231702874594343
0.0226596414444172
-0.0193750175901452
-0.0180716451209789
-0.020599365234375
-0.02838134765625
-0.022874863862972
-0.014495849609375
-0.0176935488337828
-0.0096362445649325
0.0162041854004442
0.0886436700350554
0.1286051129753193
0.0605568206216133
-0.1033687077002272
-0.085727597776354
-0.0547324269833355
-0.0398320256918574
-0.0284112701971508
-0.029296875
-0.0168211734017231
-0.0036555499095957
-0.016154658090057
-0.0097552988619565
0.0027896335429621
0.0055727243538505
0.0020032205743332
0.0045280809616364
0.023388978697341
0.0184606197461074
0.0253921089116718
0.0217835445197416
0.0175110819089056
0.0291678560048372
0.0380868598411273
0.0267694761665427
0.0239992900998459
-0.0112592420457932
-0.0090628652953182
-0.0378160409333071
-0.0580801505522176
-0.062713623046875
-0.0507194263692251
-0.0453807962836374
-0.0302983045672071
-0.0255982183586995
-0.0329352196995838
-0.0195057082449477
-0.0242504373048168
-0.0177733032317591
-0.0219059103428552
-0.0177685459459716
-0.0122308862854163
-0.0030278877170952
-0.0135500985247815
-0.0174125878545598
-0.0037844567914463
-0.015428988783068
-0.012054443359375
-0.0094175734070099
-0.0192992189513355
-0.0056583354173689
-0.0083369031550681
-0.0059383710434747
-0.0107971611747492
0.0087581413139531
0.0179259480157124
0.0341127709128935
0.0045348060869984
0.008264698835612
-0.0244506515996257
-0.033074981492671
-0.0311700240527523
-0.0204529887558755
-0.0153685764413619
-0.019073486328125
-0.0085758785356863
-0.0136292923561765
0.044572802339145
0.1123042641467754
0.1383001099355313
-0.0009565942825219
-0.1272949099608681
-0.064105603518827
-0.0257693685323801
-0.021978614988855
-0.024316333158802
-0.0148742604831971
-0.0154602181970752
-0.015820311094401
-0.0048217626183986
-0.0019470183385068
-0.0014891325133198
0.0214720251330413
0.0052735926514767
0.0107604783684746
0.0167664955722505
0.0259033071266357
0.031195157514576
0.0205260899818182
0.0330503550507322
0.0392145909107168
0.0257993881266171
0.0217407691079708
0.0034482373361616
-0.0113348131112494
-0.0282167787012584
-0.049285888671875
-0.0579467457512216
-0.0571471502651482
-0.0334781325950498
-0.0418526121162293
-0.0505492015486686
-0.0502549091253535
-0.0318234806736027
-0.02197265625
-0.0293146457965649
-0.0256714333712745
-0.0109614791297905
-0.0094663527376049
-0.0097964009407478
0.0032469102749301
-0.0316649290241226
-0.0091303491422788
-0.0057675304363465
-0.0018868268767663
-0.0155081692277939
-0.0056707364883346
-0.0084290201373127
-0.0031484798072098
0.0032218353797315
-0.019768866634266
-0.0066637475171268
-0.00579833984375
0.0003186594987077
0.0248969311870269
0.0257255339008471
0.0165953788651901
0.0116643091144763
0.0100744837872558
-0.0277170009841583
-0.0320916774686112
-0.0317497803944584
-0.0141229942011464
-0.0206922954565035
-0.0109128989257962
-0.0090141311446769
0.0189061714337163
0.0956465235069532
0.1207109319017021
0.0584676978243322
-0.1090320698101254
-0.1023698483725222
-0.0482828811516267
-0.0210374070033885
-0.0228768584759482
-0.0240297648406434
-0.0124811215238993
-0.0006809427888576
-0.0041029656901569
-0.0061458844168423
-0.0005679877906565
-0.0110792282270257
0.0087031187778848
0.0033824753488363
0.0028736131067918
0.0201559955731175
0.0265870443816733
0.0374319373805602
0.0238460345493511
0.0291643570655034
0.0375310656281465
0.0268610175222597
0.0130122742349711
0.0025738371711798
-0.0142365599659883
-0.0412979858896569
-0.0380366682174749
-0.0408255236606002
-0.0439140429260128
-0.0428662068144183
-0.041961669921875
-0.0333119003470634
-0.0280706967293967
-0.0199263908572502
-0.0215531248907533
-0.0178105449312547
-0.0212410533041874
0.0028678250479216
-0.0146116492737484
-0.0242723311939325
-0.0191156994999913
-0.014080294089373
-0.00417289260333
-0.0013992845706425
-0.005803734669384
-0.0115544916156231
-0.0130282980718896
-0.0079291955668776
-0.0057193618722845
0.0052401561112326
0.0257920338280687
0.0084606059712519
0.0141485208962355
-0.0191471129806205
-0.0074608229637076
-0.0267130915373989
-0.0331696486344224
-0.0244299859369172
-0.0253348909627158
-0.0218990095175121
0.0027571574958688
0.0103652739246142
0.0814450131741786
0.1171664293907155
0.0476389725686563
-0.1199604604528943
-0.0985610780524511
-0.03964634596762
-0.015832302198756
-0.0190102611136537
-0.0087291307395401
0.0096550946612797
-0.0029836682189978
-0.0145010503283715
-0.0033781999829961
0.0098819015643519
0.0005521898536622
-0.00213623046875
-0.0040306609707214
0.0026787618443639
0.0323700297216962
0.0308433425955954
0.0212620000868037
0.0225358767149308
0.0258764651918169
0.0140176043414674
0.0191779056546772
0.0018004126133894
-0.0027363813932028
-0.0369466440339696
-0.0295969638489099
-0.0447769255399022
-0.0338897323558008
-0.0622341796724867
-0.0445506039034727
-0.0445556640625
-0.045655617804087
-0.0152287694681742
-0.0286613565090236
-0.0308747242829156
-0.017483863474121
-0.0059559410400856
-0.00588715031998
-0.0026058915383273
-0.0141806873767346
-0.0198832991855755
-0.0034357174585819
0.0050453466820228
-0.0074938461907216
-0.0198513050583775
-0.0086705071908175
-0.010223388671875
0.0184433760494082
0.02044677734375
0.0078188978214356
-0.0044718050990989
-0.0059583690462439
-0.0216207476244246
-0.0267349034332135
-0.0454734102458326
-0.0011468522458863
-0.0141021812851772
-0.018310546875
-0.0171316402619545
0.0389400421436384
0.0849847148928169
0.1137197599675823
0.0266954713408342
-0.1210294709203897
-0.0747183148691245
-0.0250758138326075
-0.0228464272417878
-0.0320867093428284
-0.0253890868723195
-0.00946044921875
-0.006029614545894
-0.000878575130861
-0.0103342503305262
0.013288273781863
0.0136637546495646
0.0102508430466136
0.0050818521150104
0.0134192053966234
0.0213623046875
0.0296162272585351
0.0220607471930336
0.0226058404414475
0.0252603540170624
0.0262034461755186
0.0299811744949342
0.0085589778722849
-0.005243228350612
-0.0268367809669123
-0.0403711602013831
-0.0439450263600806
-0.065603720157168
-0.0509459504789794
-0.0315810548802749
-0.0248764579576351
-0.0534982334476114
-0.0274473015360347
-0.0160125051040813
-0.0053221561220855
-0.0186341159327116
-0.0166736707701128
-0.00823974609375
-0.01434326171875
-0.0068294509919155
-0.0072314608811381
0.0061171901023924
-0.0142185800027601
-0.0069865769616674
-0.0076482546676661
0.0106350754459392
0.0187033283327098
0.0031068472818526
0.0062470809040199
0.0127108249663408
-0.0008919986082685
-0.0029922775173373
-0.0251310070486386
-0.0265962761598914
-0.023193359375
-0.0205534054698887
-0.0396728515625
-0.0396447194878992
-0.0272569381526966
-0.0017288173871829
0.0383619373814838
0.1090234822650693
0.1234595721325075
-0.0255483045083025
-0.1156748337311838
-0.0624850725308086
-0.0334537973130758
-0.0355246958410703
-0.0241590716490679
-0.0184543932739894
-0.018578666696717
-0.0097002244525909
0.0121068086426899
-0.0018353986600049
-0.0140577994737205
-0.0046320233882805
0.0174345603904017
0.0058285602379872
0.0151630978409384
0.0127303293359252
0.0518524987177112
0.023267508107394
0.0292683664254797
0.026471860503855
0.0268141190179573
0.0277795233987672
0.0012863546723708
-0.0007416881239411
-0.0376023061077618
-0.0539207533796426
-0.04371529781758
-0.0449012341026405
-0.050053044924192
-0.0512198064862606
-0.0356803459311288
-0.0257502557227667
-0.024806007291222
-0.0199064447277822
-0.0198327360819585
-0.0123758738974964
-0.0151186909294466
-0.0168259323608002
-0.008392333984375
-0.0278371094810212
0.0088625070938369
-0.0044497739966739
-0.0098522266766512
-0.0100377993076029
-0.0030353189890452
-0.0113698493578379
-0.00579833984375
-0.0047424934870122
-0.0032908469797761
-0.0017527226225819
-0.0117904667101905
0.0138402410822751
0.0253667227766005
0.0217829337531894
0.0132663096127122
0.0130612041656307
-0.0087807229429118
-0.0303529221567113
-0.0245295074177744
-0.022318985983327
-0.0188837521179853
-0.0194569540142987
-0.0089363646662984
-0.0246210404068235
0.057483270993712
0.1530615308804523
0.1150616626025751
-0.0461075465637604
-0.1231953327700471
-0.0722467149982347
-0.0384678911544667
-0.0298739908222309
-0.0228627840719457
-0.0156833002607854
-0.0130971155653124
-0.016326904296875
-0.002560716567016
-0.0067255336652753
0.0043506959491032
0.0062483526371184
0.0006103515625
0.0021439545739437
0.0157870636408076
0.021514892578125
0.0404806614403257
0.0240011575394809
0.038348236130825
0.0399074662373152
0.0354309122191489
0.0107517335301693
-0.0051613755930725
-0.0066432659210903
-0.0214215507160807
-0.0391816680837146
-0.0499409935257512
-0.0429219388436768
-0.0345964829597596
-0.0462303759001064
-0.0353184742807538
-0.0300487938819066
-0.01109049812497
-0.0324714621488344
-0.0071976829810296
-0.0325682276502277
-0.018001524101076
-0.0037811770587338
-0.0024675453849714
-0.0112281180517823
-0.0085150579007208
-0.0119390837815814
-0.0117193734838689
-0.007900999905628
-0.0141388222581544
-0.0296166422451342
-0.0159472551566262
-0.0106475484702177
-0.0036502638506336
-0.0055676474614969
-0.0045403933459185
-0.0080126681107921
-0.0025603484337722
-0.0032932197659977
0.027000881388683
0.030498231048738
0.0007471314761847
-0.0213924246817216
-0.030453747163937
-0.0059136693015473
-0.0181952190905346
-0.0178971265279059
-0.0193821961886895
-0.0120685529033202
-0.0057610730442582
0.000402925202475
0.0739490100572842
0.1298080218770671
0.1039216605936086
-0.0915599430938918
-0.1282260361149273
-0.0452614156866266
-0.0232817883312774
-0.0227190765596778
-0.0074222543111521
-0.0098878218164724
-0.0127663344423763
-0.0199958810305654
-0.001766755193193
0.006561279296875
0.006866455078125
0.0003017688752329
0.0059068303895403
0.02410888671875
0.0270114434666419
0.0275743459982838
0.0431212595786156
0.0160284620076355
0.029931093311229
0.0413953337108917
0.025478831068358
0.0134717262998614
0.0190561723514719
-0.0233359675075743
-0.0369602666380454
-0.0467532790794403
-0.0498041182321241
-0.020789275144484
-0.0446643420215609
-0.0286085862791713
-0.0571975008555282
-0.0295843603045963
-0.0157912135066695
-0.026560071926862
0.0039332043827989
-0.0315921858914702
-0.0132004723254163
-0.0072836471178119
-0.0155266244176017
0.0047579082306931
-0.0241835742643746
-0.0215116864720774
-0.014495849609375
-0.0154956526969154
-0.0157292968385651
-0.0032758706493584
-0.019303954483758
-0.0181953144705184
-0.0167878272214693
0.0083675853890814
-0.0096067453772491
-0.0080934365485711
0.0043035598315263
0.0193412965832354
-0.0039952950775185
-0.0250524457371353
-0.0262513285996257
-0.0262824894069725
-0.0302093100243435
-0.0262231697516735
-0.017912143018312
-0.0282722831572425
-0.01964339175841
0.0045188424901352
0.0860198922401676
0.1156090081572222
0.0486980032780587
-0.1216196169867076
-0.0942578144008799
-0.0373213233751873
-0.0212440987702686
-0.0148908432133586
-0.0158377405310311
-0.0005295697380548
0.0024099760360194
-0.009108935499739
0.0009006681466414
-0.001983642578125
0.0001899952500899
0.006981633935953
0.0118211439242972
0.0176224321808106
0.0094083767687675
0.0105975459331943
0.027630081374186
0.0190992590031576
0.0299791631486491
0.027244184008485
0.0297517471524379
0.0108452795388103
-0.0094575710859693
-0.023069586278861
-0.0366527950438766
-0.0514509774417442
-0.0631453580237665
-0.0219352204438709
-0.0360311518301811
-0.0454796852446071
-0.0404788810139781
-0.0305606564100222
-0.0027662604274429
0.0117632901087457
-0.0293343225194601
-0.0305550273177893
-0.0180774883998706
-0.0159177040956409
0.0024705473444363
0.0134624259149818
0.0004924635785363
-0.0161853202441207
-0.0210708502369475
-0.0064808789923455
-0.010833740234375
-0.0134440794918368
0.0124801744174191
0.0044196272291821
0.0019195171104399
-0.0144343914345451
0.0167471936759645
0.0120223354455409
-0.0078890606746129
-0.023193359375
-0.003691598522653
-0.030517578125
-0.0186183732157484
-0.0248184769688287
-0.0295027736070341
-0.0119071164277158
-0.0057207340053524
0.023662444818059
0.0979301009874094
0.13458251953125
0.0390951216269699
-0.1084692676783883
-0.0792564525620764
-0.0511673307630304
-0.0248070983043219
-0.014495849609375
-0.0019410211130158
-0.0205141457307645
-0.0027592993621003
0.0055707263942334
0.0122466390423641
0.0073942042298487
-0.0171973637626536
-0.0158441711497903
0.0227681102368639
0.0291417904965293
0.020794457456805
0.0247517979949805
0.02737838196933
0.0326913381065269
0.0481377847729094
0.0219498621077249
0.011581981130326
0.0174774211420353
-0.0102887189393302
-0.031393136236447
-0.0448087607004393
-0.0552137712639507
-0.0180587738433909
-0.0556170846797121
-0.0555068404809344
-0.030477639012697
-0.0402808202987955
-0.03814697265625
-0.0170218428430518
-0.0230688767856127
-0.0211792269960666
-0.0099980308752539
-0.0061434195973095
-0.0027489180041378
-0.0060659509722298
-0.0014813448214996
-0.0113666399051185
-0.0010658060348153
-0.0331867149578294
-0.0009247105953012
-0.0013174033663816
-0.0022466771408137
-0.0114748426376459
-0.0103383968497307
-0.0058291341911542
-0.0036643650278915
-0.0149867000948972
-0.0091861330448919
-0.0009974102213204
0.0162759412667295
0.0167161516752471
0.0036687558537094
-0.0009553309160874
-0.006428671002498
-0.0256723637444266
-0.0323906100444123
-0.0121007729304564
-0.0251350481478883
-0.0227775377950643
-0.0124369940590608
-0.0027798796848658
0.0022759270018332
0.0668787329784308
0.1284811390791684
0.102800935769406
-0.0908935817284725
-0.1044225410373813
-0.0592877749063782
-0.0354108991563101
-0.0313515739911029
-0.0236615646448259
-0.0232665308809195
-0.0084047835819778
0.0120920732721298
0.0074850528256728
0.0139546000069193
0.0254465909612257
0.032806396484375
0.030858357412739
0.0228962959121874
0.0105540777615478
0.0330739289662031
0.031993764060862
0.030557226077367
0.0396728515625
0.0391001499927548
0.0208688705758346
-0.0068922612198494
-0.022353142056752
-0.0281040228297006
-0.0403883603913873
-0.0622519638557582
-0.0549731844636684
-0.0601553579127006
-0.0472607256817506
-0.0733532666919566
-0.036783253105389
-0.0299487118345196
-0.034147718472807
-0.0309281973126378
-0.0181297214897477
-0.0096469522228382
-0.0139533583938478
-0.0161441060520474
-0.0013807340008569
0.0009569189091208
-0.0091157409451166
-0.0160180471830091
-0.0139195185803268
-0.0064408997200386
0.0001057931330061
-0.0082288627358487
-0.0168995606866316
-0.0168995590132966
0.0058019274697093
-0.0058324657971818
-0.0118246713102758
-0.0088052991849057
-0.0180000699747492
0.0086545218405797
-0.0054195005966801
-0.0114405978775721
-0.0067927715323205
-0.0057623598373375
0.0103022729366877
0.0087677830588063
0.0053765812782681
0.0160200217159581
0.0194609064268319
0.0186928633080677
0.0070978669935683
-0.0082363860410728
-0.0160234018486237
-0.0148337557843141
-0.0257840336229402
-0.0198840789587157
-0.0114407986775106
-0.01434326171875
0.0015850245349541
0.077071854402811
0.1435162001714051
0.083312345721442
-0.0780125620618404
-0.0949570132530299
-0.0651645873750292
-0.0368130183530456
-0.0303256585419533
-0.0257495997762261
-0.0181202035716431
-0.0181248805373811
-0.0176639894061451
-0.0093440756011546
-0.0121661902111975
-0.0057713054755293
0.0138462065144341
0.0090419720593081
0.0043102297368959
0.0191052328020674
0.0181171882255456
0.015177270971544
0.030815324307686
0.0437519889905457
0.0223970586816142
0.0216296999560219
0.0146455192072541
0.0259123247182524
-0.0165870657468151
-0.0442490492148654
-0.0365005652465255
-0.0599656153358968
-0.0548532182001107
-0.0467703069161469
-0.0435281556003054
-0.047232247227237
-0.0394012980614733
-0.0141528732354046
-0.0221980910199378
-0.0142703981061167
-0.0099587493828053
-0.0166644523785656
-0.0096940632404382
-0.0133102663976346
-0.0206803445120868
0.0016406528174876
-0.0065221383644111
-0.015106201171875
-0.0075889517456914
-0.0031730510291215
0.0054931640625
0.0027439984051069
-0.0110568390313978
-0.0182727195089475
-0.007933298579413
-0.0197960649890159
-0.0037402908399583
-0.0059875101406725
-0.018157958984375
-0.008055512129229
0.0010656520881935
0.008087158203125
-0.0006481939885476
-0.0010729612067842
0.0071704260596124
-0.0151428505114931
0.0039246703844601
0.0178882645562895
0.0130847061277013
0.0142675534399886
0.0013377644824603
-0.0114394600110915
-0.0287610905031591
-0.0249819749906768
-0.0207140906189552
-0.0294127298843512
-0.0180454859060107
-0.0085816716145942
0.0205860321169638
0.0953552832430693
0.1116597565108426
0.0416145671086365
-0.1279324766114847
-0.099271893182134
-0.0449451657875598
-0.0308216896664606
-0.0236174706466786
-0.0098834811906508
-0.0208287691502148
-0.0230418089508361
0.0008438718774833
-0.0151021048526561
-0.0006103515625
0.0031265357181131
0.013123562593543
0.0109125274458787
0.013313045803747
0.0130846576010449
0.0240321041601973
0.0192630080249709
0.0530646076044041
0.0151820165439492
0.0178470804842356
0.0174727291162925
0.0169353817264222
-0.0031710831895778
-0.0112831907878699
-0.0394805119728784
-0.0315162266126737
-0.0347927498619714
-0.0530256373519251
-0.0519151365924123
-0.0463505596969733
-0.0383030678528573
-0.0235355944624518
-0.0182010707359956
-0.0206718038204052
-0.022433820134529
-0.0217846623061835
-0.0040827719073526
0.0077061034631519
-0.0181200178316775
-0.0102225720853679
-0.0095750926100134
-0.0009171337434281
-0.0042313270654422
-0.0199518539656778
-0.0148374103436172
-0.0002347050347689
0.010609091930921
-0.0080492019904323
-0.0128576097380929
0.0005731416563172
-0.0008388619185121
0.0184236993265545
0.0206796718322556
0.0247199611611005
0.004618469390923
0.001032983607794
-0.0231174168296204
-0.0154486537926283
-0.0146104628806432
-0.0107198113563057
-0.0085401896893169
-0.0013366500426902
-0.0020196359712045
-0.0144218514769445
0.0396290236243619
0.0895665215573496
0.0940353079637102
-0.0347306574940233
-0.1083398922632134
-0.060698145308263
-0.0229641729924577
-0.0029745602673656
-0.0177773828176421
-0.0115598579945997
-0.0076276475716062
-0.0050377028967907
0.0022116710142252
0.0142309292003501
0.005836903476321
0.0053025664125259
0.0041958959122391
0.0192266096853068
0.016632080078125
0.0136172945585139
0.039825439453125
0.0328454336701745
0.0283818496561619
0.0399014857451533
0.0347529914696341
0.0267823072840148
0.0004202107324484
-0.0095754758032689
-0.0399390721512681
-0.0405109470945167
-0.0514950496866079
-0.0589356370341925
-0.0505070268634471
-0.0593195063202936
-0.0394057173339273
-0.0443654479324483
-0.0447074353666449
-0.0310526397420057
-0.0173965991575845
-0.0160209520891141
-0.01155939113468
-0.0411218742835389
-0.017739722784864
-0.0115198435822966
-0.0114049692710714
-0.0159449124904236
-0.0184220008936059
-0.0072480921379889
-0.0130844936144114
-0.00373920652014
-0.0096504762621836
0.0071710150728257
-0.0038159020653952
0.0155642593503489
0.0166701550974597
0.0055701608076688
-0.009347860680428
-0.0043853623891622
-0.0107194950963747
-0.0189587274768883
-0.0343320277373388
-0.0101474561664761
-0.017966814154512
-0.0083175192654219
-0.0028218820168041
0.0128907852383117
0.0935719821329799
0.1179502386531671
0.0356740675852623
-0.1197426443680882
-0.0632107535511215
-0.0438315241818923
-0.0522990393451398
-0.0179683887608996
-0.0118254845501227
-0.0036625511349041
-0.0104139478351897
-0.0140376843375649
-0.0061796188103604
0.0179285349885408
0.0034718581049598
-0.0094224361127252
0.0177000949125268
0.0115205263021606
0.0075532311059126
0.0211331417316431
0.026664678666735
0.0357054325396165
0.028534056026852
0.0288770842741854
0.025444136181716
0.0173572440384871
-0.0099943562359662
-0.0340269657427917
-0.0352095804617041
-0.0464249025359719
-0.043182359660234
-0.045738220214807
-0.0566863913271836
-0.0262832139601078
-0.0473785701590625
-0.0255584582930195
-0.027885495578408
-0.0215148122581403
-0.0147627261447021
-0.0046917429701158
-0.006026830119737
-0.0052262858539122
-0.0007247740738046
-0.0133516412296878
-0.012053921279544
-0.0285721996528422
-0.0017545097422064
-0.0039292185035784
-0.0025557049346577
-0.0130085092357567
-0.0102227528051944
-2.677332513904081e-07
-0.0091931744302234
-0.0061412576510668
0.020104031889777
0.0096122339095281
0.0140757727435454
-0.0028606313892586
-0.0093460534807716
-0.028725092090041
-0.0254052044158722
-0.0051109915360715
-0.0197228667098289
-0.0121690449173304
-0.0043479818029193
-0.0133902132288485
0.007480554906515
0.0950656292988397
0.1310347891608982
0.0535507192108302
-0.1134115370469453
-0.0880779462636368
-0.0445556640625
-0.0269678715484133
-0.0217068506478232
-0.0270086456538614
-0.0203318093258885
-0.0107190683964444
-0.01800537109375
0.0112529553336799
0.002898186002051
0.0113293998789599
-0.0011049821072898
0.0080492722704247
0.0321556807828542
0.0193025488840319
0.0333387975018263
0.0297943786575279
0.0447832105786786
0.0284949150944026
0.0260546785041651
0.032577715448403
-0.0030184082858223
-0.0137719908487456
-0.0149531916013419
-0.0472648487742706
-0.0676373016857034
-0.059049304872219
-0.0527211342505701
-0.0601191737596624
-0.053138848370139
-0.0339883669701637
-0.0449761124082065
-0.0107213474759828
-0.02960205078125
-0.0226953436774712
-0.0239583068277575
-0.001409530388587
-0.0030165743125452
-0.0064050368469469
-0.0107970473880763
-0.0119789526139093
-0.0060280349195381
-0.0007252041204018
-0.004388429608585
-0.0215137680983702
-0.0031266294247793
-0.0076305457843637
-0.0101102579736824
0.000764706492788
0.0068628808387834
-0.0035861166296377
-0.0046499715581759
0.0126283413621867
0.0270815494264889
0.0117888301905112
0.011059760670806
-0.0038932401705087
-0.0279618932703365
-0.0269697456813372
-0.0279222587046354
-0.0176592036736867
-0.0120947874182664
-0.0155625994040104
-0.0183878749401326
0.0221322052061958
0.1064785669813324
0.1500755116285568
0.0454851670836464
-0.1322958698114845
-0.0919634138026367
-0.0499699572468184
-0.0397841349010217
-0.0205986155811614
-0.0135772968796124
-0.0143815994513679
-0.010795400828423
-0.0146108728472384
-0.0191861652263863
-0.009001105920494
-0.0024813453623405
0.0025205113947493
0.0030182677256444
0.0264042377701509
0.0270814691065005
0.0170531492304135
0.0285322622138221
0.0335326648445758
0.0291834966484808
0.0387547539792633
0.026741243691991
0.0184997590052517
0.0003810313133108
0.0057599719911339
-0.047041671330732
-0.0580190789172933
-0.0484087342007352
-0.045623779296875
-0.0407793430161551
-0.0322298044152946
-0.034868658940712
-0.0331452681724267
-0.0208296627100251
-0.0159468602500406
-0.0093855909931463
-0.0176253471269118
-0.0106792112774458
-0.0095372317773103
-0.0028647126485297
-0.0163249230706169
-0.00946044921875
-0.0086934937663909
-0.0066390892819157
-0.0160176589697342
-0.0105295885329335
-0.0086601358728328
-0.0132367401451025
-0.0027050415392909
-0.0187704122531176
-0.0003414720475925
0.0066733256752743
-0.0017147396365552
0.0017542219289511
0.0125187129499165
0.0250233230493786
0.0188045365332578
-0.0031308127572764
0.0009110829712642
-0.0125166781771102
-0.0176923239538389
-0.0118216024174851
-0.0122850319949638
-0.0251420025198578
0.0001979301952906
-0.001983642578125
0.052546142104269
0.1200144756424878
0.1161040704215777
-0.044668091960334
-0.1256483837445476
-0.0683101455428264
-0.0379535269934683
-0.02410888671875
-0.0210894894933061
-0.0255603089993544
-0.0201006835503896
0.0004193071326101
-0.0058008297632598
-0.0032800138218921
-0.0049944221384913
0.0029735663075204
0.010528564453125
0.0173244785047534
0.0097630547605056
0.0174745430092895
0.0181207858915272
0.0228497103211549
0.0318537060877868
0.0358157219183066
0.0237612568057402
0.0288431072473283
-0.0065693112952968
-0.024871826171875
-0.0335322030046619
-0.05523681640625
-0.0597306492610772
-0.0578706726858563
-0.0355887125420747
-0.033716381749228
-0.0223274647617163
-0.0432992620510502
-0.034252467445944
-0.01628275507868
-0.0129713896895056
-0.0047601739236612
-0.0037034791870416
-0.0130840518544985
-0.0090383024400136
0.0033540286876296
-0.0090353607205168
-0.018657167768338
-0.0103745040294628
-0.0025466020031376
-0.0063731447930978
-0.0188853635376991
-0.0035760699382122
0.0069850374953359
-0.0124691438061478
0.0107906552560063
0.0152294170480818
0.017652468508361
0.001755530475374
-0.008392333984375
-0.0028668461481084
-0.0272100982151677
-0.017771007418912
-0.015716552734375
-0.004502132586624
-0.0081690042673653
-0.0268459106718228
-0.0112096109886314
0.0545686444951807
0.1106358992611637
0.0851582980927421
-0.0682137749480037
-0.11530319148932
-0.0615552750032113
0.0048877521790813
-0.0312485703043298
-0.0249037483457473
-0.0052315518328107
-0.0106727856787171
0.0008803204171929
-0.0032429143557027
-0.0028957830958156
0.0110668723361881
0.0023290988316002
0.0141872468421273
0.015834003978443
0.0319979708200259
0.0133436393511575
0.0148448282288943
0.0191524007129667
0.0359020006417026
0.0346654761531944
0.0180421927866647
0.0124718428923451
-0.0012521734989582
-0.0066491895199977
-0.0400570120085609
-0.0542036972584857
-0.0605001950329848
-0.0557976841649943
-0.0403309081757928
-0.0544352731605549
-0.035438996090906
-0.0306297182100692
-0.0326556559534132
-0.0293722419188284
-0.026662407953829
-0.0208179761523345
-0.0169023886194267
-0.0137677656828605
-0.0064783790327683
-0.0144572290834747
-0.0177755388046681
-0.0132384302114372
-0.0181927559443368
-0.0027060338257038
-0.0103779042421324
-0.0033183030278516
0.01103078356317
0.011173654408938
0.0078959347266074
0.0099588112961423
0.0063661167944381
-0.0105423861839034
-0.0275817471501854
-0.0251809777923901
-0.0275391223384062
-0.0156026121429765
-0.0220092972229549
-0.0124022991724082
-0.0015971193858596
0.0106506106696867
0.060188806166675
0.1007080078125
0.0935463617313646
-0.0695216319495803
-0.0958901507532657
-0.0461871938684111
-0.010290345418933
-0.0183920448860156
-0.0170773138324359
-0.0010273494955755
-0.0002988706624753
0.0036600009754059
-0.0116698009934059
-0.0015216353337334
0.0096733674576732
0.0105693803919147
0.0101804225001552
0.0183578252259311
0.0183449221550555
0.0147988634443745
0.0252156910856797
0.0268919842229529
0.026834232480846
0.0356968115279655
0.0202189932142659
0.0156712489164044
-0.0156977327579661
-0.0258647552073948
-0.0413557627318761
-0.0446308435680153
-0.0400077909180915
-0.0553164737509038
-0.0540093664025599
-0.0383747266657339
-0.0355484538231236
-0.0261335125689952
-0.0164385005487099
-0.0319432812771549
-0.0144411065198838
-0.0232343761137612
-0.0153818643788224
-0.020751953125
-0.0199797501002465
-0.0031609729114564
-0.00457763671875
-0.0090754755328731
-0.0088454123238102
0.0001866234840854
-0.0160651766072705
-0.0163585537174264
-0.007239631766215
0.0035000169528697
0.0068348608775102
-0.0133889900224605
0.002760959308508
0.0200277613710862
0.0085788520484602
-0.0076729781628957
-0.0202312219318526
-0.0385586928969872
-0.0041101275554615
0.0001089440190255
-0.0107321605539534
-0.0294229840691318
-0.0229146306219703
-0.0074817463196445
0.0221986817063306
0.1048551963474563
0.1342360843779276
0.0433613962523844
-0.1247493621575998
-0.090612107035921
-0.044933358749794
-0.0157190761205412
-0.0168234474612837
-0.0157553339002426
-0.017726260820757
-0.0045000676936825
0.0037008955608696
-0.0039233702046677
-0.0070164727292479
0.0023353403637798
0.0146898140053641
-0.0003905358448199
0.0251485937786403
0.0231157635765927
0.0295684720077362
0.0326564256865649
0.0292659434392797
0.0342106006540252
0.0286424428259924
0.0191951978780514
0.0073136165119911
-0.0158383010976698
-0.0253375816821567
-0.0264646517852602
-0.052692347902745
-0.061210457962869
-0.0427580475885272
-0.0296047481940728
-0.040740966796875
-0.0352423811354321
-0.03570556640625
-0.0255155573812938
-0.0148398550831491
-0.0126008200542304
-0.0191484081403581
-0.0120905271124217
-0.0162853102582286
-0.0162409351401149
0.0075461729872586
0.0034984105532064
-0.0062256137148421
-0.007601714256612
-0.0175976450989958
-0.0127340776018676
-0.0062504811167278
-0.0001582236761936
-0.0076625984781822
-0.0051604586066123
-0.0030679104960164
-0.0113995443254307
-0.0147290084844736
-0.0123927645209085
-0.0150616085204824
0.0003440406137684
-0.007964802419999
0.0102176190196188
0.0171171475247236
0.0176253504735682
0.0139330859643471
0.0048410260280426
-0.0132061482710237
-0.0230971996201882
-0.0281480683011511
-0.0179246695892607
-0.0062832064903006
-0.01110593462195
-0.0167009778915533
-0.00579833984375
0.0241893824034397
0.1017640382358825
0.1318927421358138
0.047245399624155
-0.1178158432390223
-0.0805872727127287
-0.0482536614105927
-0.0350053367810455
-0.0265113896495693
-0.01708984375
-0.0240073605850183
-0.0364563239951088
-0.0239860523624032
-0.0044998133470605
-0.0102889532059269
-0.0007690839319454
0.0070702754056101
0.0025970797667225
-0.0148244838461918
0.0181517609589132
0.0161416044192103
0.0371987450388117
0.0265534120614809
0.0259072645592242
0.0357507614575794
0.016937255859375
0.0072727018465602
-0.0073305238687746
-0.0163332228023211
-0.0295273398089708
-0.0475811723001326
-0.053292115633964
-0.0510978272031597
-0.0378577604718975
-0.0538571265651786
-0.0329979328741672
-0.0233069970931218
-0.0292189713083259
-0.024488743352279
-0.0067592881387085
-0.0128725375418323
0.0067950305318664
-0.0152879903968623
-0.0002435502731921
-0.0184435366893616
0.0024381332106203
-0.0116454857915069
-0.0038860615718834
0.0095186310076008
-0.0129276989646032
-0.0052560159614723
-0.0107947649618738
-0.0018957290083612
-0.0054185334102094
-0.0199367002619861
-0.0073732206339068
0.0036042220927597
-0.0096520224218704
-0.0050609471656842
-0.0030907464716652
-0.0044996560537475
-0.003392545466904
-0.0048692651959787
-0.0008578977548566
-0.0081583518293986
0.0120680709834279
0.0223031780063475
0.014538271947897
0.025177001953125
0.0145601256770464
0.0040062922220736
-0.0074905949046465
-0.0156029752562435
-0.0201450620151696
-0.0243568378577608
-0.0214229663558807
-0.0089323436470969
-0.0201555504665218
-0.0237897352601955
0.0297966460238172
0.1004839435024735
0.1397705078125
0.0569337852466839
-0.1057786820628713
-0.0941574863735646
-0.0465996671089588
-0.016805964477989
-0.0247299007592286
-0.0320115415507521
-0.014495849609375
-0.0188285204153584
-0.004843770294184
-0.0075975259040495
-0.0027003478401274
0.01100433318831
0.0053796250710269
0.0169054340854718
0.0027783920918017
0.0049363775630491
0.0205957307550795
0.0265148768755671
0.0298254608182252
0.037994384765625
0.0376818864790967
0.030407722139471
0.0192430920155025
0.0010998198749265
-0.0263711994831632
-0.0578234211082839
-0.0356274217546218
-0.0466174546389249
-0.0400803951640338
-0.0469263586060999
-0.0446896110234047
-0.0377245547975654
-0.0431358075357982
-0.0226536793588844
-0.0223710232933573
-0.0241051250661495
-0.0210255765389959
-0.00335693359375
-0.001983642578125
0.0064793027126462
0.0008650462334084
-0.0151376949724664
0.0217103880738077
-0.0147695550166683
-0.0063619451752424
-0.0083608870371211
-0.008087158203125
-0.0034704140185685
-0.0085878796800865
0.0060842388287149
-0.0226771729544359
0.0001758003661053
-0.0012594575175703
-0.0162800225258672
-0.0005712323833634
-0.00946044921875
-0.0163230020843051
-0.0134120987513461
0.0022418612884419
0.0081732578798819
0.0058138951474036
-0.0060173824815446
0.0007589970805242
0.0169135614640317
0.0019796868188987
-0.0082868085846885
-0.010133202715865
-0.0344576498664878
-0.0175947150928136
-0.0145349938885096
-0.0261868048787059
-0.0298089182481789
-0.0001174478973867
0.014845201382115
0.0838501315246238
0.1197463692073867
0.0525096316508922
-0.1189644959913227
-0.1076244353076993
-0.0600210260851921
-0.0300827257287296
-0.027288815146578
-0.0125986915746286
-0.0068933739862134
-0.004425048828125
0.0117369786205382
-0.0072973550618266
0.002707407632123
-0.00579833984375
0.0032125918882194
0.006522099877748
0.011281278168373
0.0104893816873396
0.0255997310517387
0.0239295823932569
0.0329940089082517
0.0494718361295638
0.0296987409826031
0.0180320139019229
0.0138504935936078
0.001923462829691
-0.0223996289211225
-0.0392053591324707
-0.0443638749994198
-0.0582620418505772
-0.0551806911436882
-0.0435405399379867
-0.0498305552203339
-0.0494384765625
-0.0434355667381568
-0.0084707597559457
-0.0216496176388919
-0.0351650932302686
-0.0224004337943145
0.0033269006129447
-0.0108643672484924
-0.010096623656302
-0.0039151290395737
-0.0067880025332259
0.0261580135108958
-0.0053140839635091
-0.0402745285666698
-0.0198713147745419
-0.0053363041526943
-0.0003574841711929
-0.0089634475610915
-0.00701904296875
0.0020272613497476
-0.0038627085363565
0.0011205323909512
0.01152258450177
0.0119847557327913
0.0083874746252708
0.0006451853357823
-0.0116011039800088
-0.020751953125
-0.0174950379920062
0.0199156831993277
-0.0243622494167065
-0.0239340100324133
-0.0049399333957216
-0.0221645088997366
0.0495886548535304
0.1225325607043301
0.1193708314463705
-0.0438233415834924
-0.1209841788157126
-0.0612256919864527
-0.0344803452821075
-0.0269204509641944
-0.0068573923065432
-0.0199753994344714
-0.0078258103601002
-0.0130348859839403
0.0250044445061907
-0.0050957173522638
-0.0167408065638837
-0.0077243779329942
0.0097610400675526
0.0184815012687888
0.0217322786162833
0.03543968885077
0.0416125825357299
0.0233760120398496
0.0212790731035164
0.014750206267037
0.0366950684557606
0.0309846321417698
0.0114948004803366
0.0095550912604936
-0.0442624927721574
-0.0446529817637334
-0.0650071200453538
-0.0542379671185506
-0.0520670986564551
-0.0533318171329894
-0.0345840116087642
-0.025510450368799
-0.0456631059693014
-0.0222935329149271
-0.0150763355242992
-0.0082255294564381
-0.017605923077336
-0.0065816052729299
-0.0179314566279894
0.0097608593475832
-0.0224495093048247
-0.0274514831952567
-0.012921055832531
-0.0020229876572213
-0.00701904296875
-0.0065862102853631
-0.0088050849981795
-0.0294888146630495
-0.0071812826441627
-0.0008665070531842
-0.0095343235245258
-0.0235233557047598
0.0142790994378387
0.0307634677176136
0.0036820086512087
0.008461318811093
-0.0108731070667995
-0.0216329980953892
-0.0169766260384656
-0.0217413246545258
-0.0260381894806354
-0.029006509889299
-0.0081659320279781
-0.0085203222064055
-0.015869140625
0.0241731025464059
0.1161836876067482
0.1406119784572769
0.0091048023673051
-0.1205937550842751
-0.0930782183746779
-0.0474643468825366
-0.0237099641288358
-4.883120379842697e-05
0.0066994698301871
-0.0102140297203077
-0.0370731379696652
-0.0122456752024929
0.0095836868483545
0.012310147050128
-0.000570944570083
0.0110954260906225
0.0107791694982713
0.0097121017702764
0.0126203143837744
0.0209591770118032
0.0460077891429588
0.0367342629348778
0.0179659507146689
0.0252799671533171
0.0179316306546152
0.0238073403968417
-0.0124691956795665
-0.029020873779784
-0.0311535986159958
-0.0762750751361683
-0.0615563459363558
-0.0442796159889867
-0.0418485191436592
-0.0262483852069106
-0.0266705654523112
-0.0365131286307962
-0.0371183012276201
-0.0200709919294164
0.0078951231600964
-0.014619403498912
-0.0174396841359917
-0.0106654899467138
-0.0051433069431777
0.0088972053273377
-0.0055193684574058
-0.0216517377517755
-0.0158296800859323
-0.0079977118603395
0.0068269911923875
-0.0038883540381032
-0.0058719932695678
-0.0163452222733988
0.0049800465346464
-0.0047066557139172
-0.0085631645514378
-0.0052039317981869
0.0003446530536515
0.0005078984022623
0.0188003180607011
-0.0017126078103124
0.0396675035901979
0.0312985845546397
0.0071180172695612
-0.0078502242887343
-0.0197160863644995
-0.0166554280936673
-0.0137041924151085
-0.0161527371037904
0.0020052486539591
-0.0174902422195921
-0.0131620592928157
0.0143850833310703
0.088282653457591
0.1393848597733247
0.0784426956588989
-0.1094204922353376
-0.095657567504785
-0.0449411447682272
-0.0345189089146855
-0.0197124033584148
-0.0157560701667631
-0.0239003141255866
-0.00385971327029
-0.0050188946337728
-0.0012822616999072
-0.0102858943531497
0.0055556530104356
0.0062845752768201
0.0102858441531696
0.0302408506782824
0.0127272169365287
0.0274824867093214
0.0338238498884544
0.0289410223284827
0.0236288208645378
0.0267368411528413
0.0222159320964735
0.023261259881936
0.0080476106507367
-0.0350949287038731
-0.0385764168402814
-0.0475622469036937
-0.057672442963978
-0.0615438528320937
-0.0483647188492049
-0.0503879139997084
-0.055389404296875
-0.0374687456867634
-0.0372145580357167
-0.0244422765678974
-0.0180674584418194
-0.0221195548083841
-0.0216617844431735
-0.0187340942333542
-0.0141853559758538
-0.0112519279072053
-0.0251941703497928
-0.0280985627440157
-0.0118169572450726
-0.00579833984375
-0.0211528837144616
0.0042609484063468
-0.0134673220873785
-0.0182371377557925
-0.0130433764756646
-0.0168638534335071
-0.0027234231023179
0.0044076595514636
-0.0086415267364534
-0.0061990746533117
0.017513822828378
0.0003913641445553
0.0196721781062046
0.0237082389225551
0.0267308020939746
0.0197396569331216
-0.0146498230198323
-0.0250009606270656
-0.0267146209637794
-0.026877454672405
-0.0124051204118645
-0.0173275607842409
-0.0121159952408227
-0.0144680337947754
0.0149056622502998
0.1075721302643509
0.1452855289507948
0.0373072221975683
-0.1272998596799117
-0.0883404721333139
-0.0505283752459747
-0.0330719360265899
-0.0325289310977784
-0.0231081097514182
-0.0010224968298248
-0.0232846129174594
-0.0081664474145387
0.001900687094153
0.0039769135144735
-0.01556396484375
-0.0001405532795945
0.0096250851070469
0.0179657164480488
0.0183622779650655
0.036123672085754
0.0214355732467381
0.0202088093095738
0.0419159427506837
0.0214630861880824
0.0117096012190899
0.0036560251361639
-0.0058501914137925
-0.0208526743856287
-0.0289367703893358
-0.0418548677690923
-0.0446685755540976
-0.0415558331200195
-0.0435791705038669
-0.040389971811103
-0.034637451171875
-0.0288480402331119
0.0029019091679951
-0.0292633514464477
-0.0215422398595205
-0.0117915828232723
0.0075613635041395
-0.0246919261398945
-0.0118559609642665
-0.0122132359687973
-0.00372287478996
0.0019563772900668
-0.0016325388257119
-0.00701904296875
-0.0180762685402007
0.0026104898574461
0.0049372259428987
-0.0181726374615493
-0.0107208655561056
-0.0001191446570745
-0.0020965139097282
0.0005372001365902
0.0057189000323823
-0.0023140120611905
0.0085304190978344
0.0269935789634124
0.0109068749269605
0.0018996379141865
-0.0273385599904397
-0.0222398005186634
-0.0181245709707937
-0.0239753547444559
-0.0252644185429143
-0.0059636584519245
0.0021043702081579
-0.0138123934742895
0.0230379100848801
0.0969841926092535
0.1185890937702035
-0.0199541849185772
-0.1521173025289041
-0.0743268553441691
-0.0380212869404252
-0.0259013476537726
-0.0060508809351415
0.0064548954773648
-0.0090757533061436
-0.0065483611660285
0.0124381771055742
-0.0064207059374503
-0.0125991115812669
0.0031451197545505
0.0079670329728983
0.011636451466512
0.0197496350179436
0.0335223487465823
0.0173487234268145
0.01312255859375
0.032587313686557
0.0241290503815547
0.0196239091421527
0.0211235936934428
0.0124063954915321
-0.0111984030041999
-0.0184299174320285
-0.0550309629791863
-0.060391873493819
-0.0523508323484889
-0.0573864452524038
-0.0470568484609719
-0.045570753047039
-0.0427843540568108
-0.0296418543535846
-0.0282420259497229
-0.0107541263963661
-0.0165325234572355
-0.0208183760788988
-0.0178991077541704
-0.0020632698028056
0.0065214640112064
-0.007828216613023
-0.0011611257764511
-0.0099315995547231
-0.0135140783584016
0.0011812961326119
-0.01068115234375
0.0081337053074835
-0.0034966000068644
-0.0004706600494325
0.0138456660278762
-0.000929021101161
0.0084328554166701
0.0096656701258125
-0.0267630204477501
-0.016286262384765
-0.0261594927373196
-0.0311143556100887
-0.017905299086345
-0.0100980024826979
-0.0287137519123225
-0.0115694244394264
0.0225521180849365
0.0718506337278667
0.1186610035830019
0.0950723778505722
-0.1006207200693319
-0.1113056491254354
-0.0458560914654781
-0.0342388130486253
-0.0217265892840162
-0.0180122518390893
-0.0104104137558743
-0.0235560994850659
0.0057377651886667
0.008630005838566
-0.0205594897087218
-0.0095853534880498
0.00319741810445
0.006131252792983
0.0190336041091339
0.012969970703125
0.0284680731595904
0.036787603771242
0.0344728454035394
0.0458910206187451
0.0548478668810232
0.0078009128381748
0.0009883240230645
0.0120684458100378
-0.0152280465883746
-0.0477130945279839
-0.0409334569864834
-0.0412644824160961
-0.0323298312428103
-0.0379004873569837
-0.0455181484772216
-0.0353721715371397
-0.0453984281935878
-0.0290503227674518
-0.0214679020405123
-0.0159631384335843
-0.0061878315287304
-0.0010565742566735
-0.0115097333042364
-0.0091809808525685
-0.0122540719876026
-0.015716552734375
0.0025241057141835
-8.699658326030222e-05
-0.0057584074247685
-0.0223392115594001
-0.008727295093216
-0.003800373535069
-0.0129372001494349
-0.0032770520224589
-0.01068115234375
0.0131329349317899
0.0058566454592264
0.0120832514604548
0.0113425673364148
0.0088573130682072
-0.0070152009961646
-0.0140852689084232
-0.0236655940307895
-0.0284577671015511
-0.0172859249121701
-0.0201525401404018
-0.0113896047273611
-0.0001344305541564
0.0064741722736608
0.0934603390279751
0.1445225995377162
0.0998971792419795
-0.0863655091333187
-0.0959446662695193
-0.0496490688686212
-0.0439306674894596
-0.0096856664553806
-0.005605771007485
-0.0214390002326625
-0.0148263111257611
-0.0067938391187757
-0.0073568437237206
0.00274658203125
-0.005910936748737
-0.0016384741379011
-0.0052531980687221
0.0237785071956754
0.0153713792741589
0.015281017618249
0.0337412524977238
0.0344448605822818
0.0352700915301241
0.0243545721648335
0.0128173828125
0.0161770774057448
0.0040425801217655
-0.0347948047149707
-0.0440077361880514
-0.0437276453419184
-0.0460015074508291
-0.0495660246979352
-0.0413463602736297
-0.0478400553235458
-0.0454311669539536
-0.0372789880500261
-0.0345974233729088
-0.0202089799896591
-0.0185907648943718
-0.0231457831708328
-0.0024565064071047
-0.02716064453125
-0.0289062805884883
-0.008392333984375
-0.0148886846137352
-0.0033017236443739
0.004032193743768
0.0088977407937478
-0.016767430965418
-0.01922607421875
-0.0132923466743796
0.0004425162615028
-0.0081520065506551
-0.0043449363368798
-0.0081119285517055
0.0057164134595326
0.0126494805781444
0.0105132367227071
0.0067292083046051
0.0168648005399837
0.0128173828125
0.0049244985719648
-0.0117569649099903
-0.0200383435290358
-0.0150954483340661
-0.0350242688706659
-0.0221421498240414
-0.0205670163605929
-0.0191149615601457
-0.0056211573045305
0.0082680890084816
0.0969385574715272
0.1496563969293584
0.062343448318504
-0.1012991946920047
-0.1020435484352936
-0.0527241512699726
-0.0364128139900908
-0.022173146644754
-0.0153077440929858
-0.009966132128046
-0.0146005098958993
-0.0189296784158149
0.0023533554669354
0.0039271770373048
0.0009477858575318
0.0064488028718649
0.0055254125362956
0.0095886650140383
0.005645751953125
0.0178126650441818
0.021330076293712
0.0298178237265531
0.0354569225074234
0.0228802720752897
0.0236833313606783
0.0152751425460005
-0.0084800534474588
-0.0197160311444222
-0.036139086829477
-0.0408534197952209
-0.0349343238746482
-0.0514061890103753
-0.0519120509663109
-0.0504664502112677
-0.0425802241628129
-0.0259479332447185
-0.023048770016179
-0.0095970266590796
-0.0075008423960062
-0.0111870862530078
-0.0130663546845809
-0.0044652038003963
0.0018632094547163
0.011444091796875
-0.0087859822287101
-0.0145842317123473
-0.0108658381081935
-0.0080548695693739
-0.0058705943631718
0.0040877902330564
-0.0094685414572105
0.0129375749759992
-0.0255064946096575
-0.0214666052074316
-0.0129379129892987
-0.0032928282061129
-0.0005218590195307
-0.0057820616602032
0.0031636167775399
-0.0042963410729041
0.000401867655939
0.0093800723408903
0.0091150833252363
0.007781982421875
0.0056055584941951
0.0021674649026537
-0.0224550179171026
-0.0191374712358081
-0.0359869674720561
-0.0219964192520924
-0.0161825425113362
-0.0223819819511813
-0.0170341485341213
-7.223778668060798e-06
0.0648375645577833
0.1376992679245699
0.1130383570118513
-0.052899283976248
-0.1057990030190604
-0.0727347057576069
-0.0422987728969819
-0.029424563695465
-0.0145929096173465
-0.0318742429038267
-0.0198849725185846
-0.0118935289636863
-0.0063046669862903
-0.0015881955010194
-0.0100252191899894
-0.0070911602748629
-0.0086337557778926
0.0037509533178958
0.0259466882849092
0.0214025466730919
0.0055099375526275
0.0234281597897578
0.0379306910178804
0.0437759109592637
0.0288961887171284
0.0151446041644467
-0.0068514820943718
-0.0141757192510668
-0.0330563790495926
-0.0427330563600329
-0.0457997202230114
-0.0447251726965491
-0.0578582833284006
-0.0436210858223639
-0.0296190116846742
-0.0285657171607626
-0.0266626104271266
-0.0218285688910644
-0.0276099009780919
-0.0114673394123862
-8.90748628807802e-05
-0.0093651947371057
-0.0127685683419114
0.0052453518101892
-0.0115271125409123
-0.0216906578042611
-0.0219494906278003
-0.0070336294125875
0.0020813719193591
0.0035352640394191
-0.0036561656961023
-0.0046351207276662
-0.0104796663158669
-0.0034547466016251
-0.0121119725483096
-0.0126678102678257
-0.0007715671581192
-0.0052196594551528
0.0056687770153784
0.0143058828059482
0.0102406976285507
0.0190418352342298
0.0214745786392124
0.0104708997242596
0.0007542582014743
-0.0202768135631364
-0.0168249886009907
-0.0227181930398072
-0.025634765625
-0.0142538956959305
-0.0072435640988621
-0.0084468076672584
-0.002492519880183
0.0648512373620287
0.1130360411192145
0.0809438147973281
-0.0736278673326929
-0.1008535911309904
-0.0369630761641802
-0.0273080166429093
-0.0338761047318027
-0.0138994586641864
-0.0166724274836939
-0.0088779452640927
-0.0060807951093957
-0.0059282189320537
-0.0010277611354778
0.0038058620673177
0.0162058319601851
0.009967420594496
0.013229846013138
0.0050403149695902
0.0086482769617925
0.02288818359375
0.0468759678558161
0.0313797729989676
0.0239248234341992
0.0291620913726315
0.007732699418014
-0.004595467755303
-0.0182025700424757
-0.0257559032216745
-0.0480426758712026
-0.0603486529754579
-0.0468848666407722
-0.0353015368040834
-0.0509508550179868
-0.0501341195819366
-0.044703764074006
-0.0240999042671524
-0.0100079905533492
-0.017341215181629
-0.0083249287839528
-0.013454762049799
-0.0158287396727802
-0.0063726009598923
-0.0256571113140234
-0.0143969656683707
-0.0090250078092354
-0.0005832034077007
-0.013275146484375
-0.0130326704910532
-0.016501767596563
-0.0068837539947861
0.001350128740052
-0.0198232750571599
-0.0055376211739232
0.0021453334003477
0.0017359725592044
0.0079528029489918
0.0080284844543922
0.0065208498979911
0.0042724609375
-0.0128866671660216
-0.0329132354503337
-0.0198272693030267
-0.0310303208262274
-0.0157790918823339
0.0001967638820763
-0.0135269864492299
-0.0081846064242863
0.0380495645951013
0.1143454844404152
0.1368048764503014
-0.0457313076760912
-0.1353745833454244
-0.0726885886998282
-0.0362385146035477
-0.018624966147817
-0.0294182535566224
-0.0138299567775834
-0.0109517202517025
-0.012054443359375
-0.0072432863255798
-0.0054745967593821
-0.0042910416273051
-0.0052847939427192
0.0092362192485806
0.0208235918578766
0.0141283555601355
0.0327409055769718
0.0179587185693502
0.0315109355338216
0.0303120560178828
0.0347339355532693
0.0140380859375
0.0482147413580744
0.0045090350852603
-0.0191949602647553
-0.0329871365296092
-0.0421641432162074
-0.0537731352880356
-0.0556352738095302
-0.0432539615797629
-0.0392367542064438
-0.0418684334798448
-0.0261829695994953
-0.0392555942628217
-0.026459832586179
-0.0220847344217584
-0.0153735462403862
0.016688866307295
-0.0151225128221021
-0.0241520085104159
-0.010497530819115
-0.0041008907571927
-0.0057362926556806
-0.0177432233975712
-0.000774930557468
0.0015664053584524
-0.008392333984375
-0.0116896751695576
-0.0070595744409447
-0.0060415387169338
0.0029706881747782
0.0001740082264974
0.011491915654363
0.0134846076172125
-0.0148843372944928
0.0066497467397747
0.0206996380417134
0.0115369366789971
0.0100323810552593
-0.014455299730514
0.0063372066200145
0.0080541768095521
-0.0264342038177497
-0.0408008001653269
-0.0243947723170499
-0.0056573565175524
-0.005290356101526
0.0449015553826266
0.1363673768411309
0.1372516730975139
-0.0171351643012138
-0.1175950017682055
-0.0904573003058935
-0.0476417938083665
-0.0275989841535038
-0.0119132759664821
-0.0258473826640308
-0.0146695532892917
-0.0021881774187541
-0.001811563704566
-0.0038892676779463
0.0069866639750297
0.0057495119864148
-0.0087087830101368
0.0004171719596935
0.0154519703386423
0.0138952903916548
0.0231415630249961
0.0280271432176645
0.0435687489858315
0.0279641857365621
0.0216268770432346
0.0328273365736664
0.0089227219822901
-0.0168043597516225
-0.0223886100232921
-0.0234370301281228
-0.0577594495872847
-0.0587254680812939
-0.0566210861597763
-0.0222679459798136
-0.0544124221249484
-0.0494811465542369
-0.037811079500921
-0.0254623520848149
-0.0184938420997116
-0.0122575859869234
-0.018157958984375
-0.0169778877315544
-0.0128389721549121
-0.0028892169371175
-0.0022067463952079
-0.0093170546196451
-0.0218300414241242
-0.0157978365587225
-0.0293867530627244
-0.0161756617659432
0.0170285495618268
0.0199396034946599
-0.0288597351575096
-0.0366817855382957
-0.0079551707151963
0.0045264260353107
0.0039983991102462
0.0051171895615252
0.0124413865581584
-0.0148211455467491
-0.0020146360522137
0.0138549061727576
0.0193174884011556
0.0201725046764865
0.0136616629833008
-0.0048314980699711
-0.0278930172102499
-0.0151572110553911
-0.0466103446469096
-0.0164999168902357
-0.0130106511019608
-0.0086365468973287
-0.0083516502388672
0.0349118141988048
0.1376952402119381
0.12831628900425
-0.0074463352468553
-0.1137188212277527
-0.0872291715204907
-0.0322977434089454
-0.026367103163938
-0.0122882983410734
-0.018636150705642
-0.0240172616963903
-0.0146686865027498
-0.0127564400242316
-0.0137119165201851
0.0132133804161238
-0.0081182269771118
-0.0131933907800848
0.01560503512916
0.011830317135858
0.0138155644404643
0.0284619219872487
0.0327558384008029
0.020599365234375
0.032714133922161
0.0128787372407041
0.0144350373410759
0.0053813050973694
-0.0024213446605477
-0.0206808297787033
-0.0286354416006915
-0.0601002851765971
-0.0600989063502484
-0.0321442050651529
-0.045623779296875
-0.0264384473902835
-0.0339456116383902
-0.0279331454092239
-0.0257466061834685
-0.0245562422593031
-0.016937255859375
-0.0008643534735926
-0.0122989675123292
-0.0213727395921655
-0.0107720996662676
-0.00457763671875
-0.0091343634681854
-0.007101652072814
-0.0177293815868637
0.0017495232098588
0.003122810878812
-0.0109269515764282
-0.0028781796326055
-0.0032976273251243
-0.0266410896912628
-0.0186249527610984
-0.0037213102235821
-0.0022072601084014
-0.0081068683926848
-0.0041184875271431
0.0050958712990007
0.0163585704507794
0.0154521644452738
-0.008106809825982
0.0092474305797647
0.0168466247968578
0.0119532385055099
0.0142992932205498
-0.0267918553221783
-0.0110573176046668
-0.0183815330079991
-0.0165096724216785
0.0024379826104579
-0.0282482942552241
-0.0227231912855296
-0.0107929309888979
0.0350226541045939
0.1112207592686728
0.1243359300971058
0.0250501298437602
-0.1322334310634717
-0.0790385896241793
-0.0517748861860677
-0.0383102631848145
-0.0330988499146861
-0.0248417162176888
-0.0100967792761491
0.0036105506382783
-0.0140079910432907
-0.0169587414552542
-0.0260130242255032
0.0082548797175737
0.0308591639591564
0.0007113305163646
0.0016506660421427
-0.001983642578125
0.0379990132047056
0.037074178782717
0.0164602505311986
0.0276075984718642
0.0234877187316539
0.0152587890625
0.0175451426023344
-0.0012557025582148
-0.0249752281119596
-0.0400105770175075
-0.0620624103655697
-0.0644412255942695
-0.046850121554193
-0.0276592743419225
-0.0531741038233602
-0.0496210438873587
-0.0368826825529556
-0.0344439904491165
-0.0146565816117115
-0.0085477129944948
-0.0145367274615028
-0.0195721295254616
-0.0094466458947206
-0.0170029174468291
-0.0110761308877011
-0.009613037109375
-0.0129181191330824
-0.0242943857230404
-0.0142395251120804
-0.0074249299706106
0.0029669014221509
-0.0181909504180714
-0.0220135541821278
-0.0121661316445362
-0.0081689607607048
-0.0114707781117353
0.0048763768613178
-0.0018576807623692
0.0116187676832565
0.0176482349758163
0.0148341975443217
0.0281657186177933
-0.0214287293146464
-0.0330485009977656
-0.0169449213978657
-0.0130927297594932
-0.020416953529501
0.0041976027120237
-0.0056194571981726
-0.0092780525738528
0.0195121539236448
0.1021366058308216
0.1254200072550514
0.0055272297759064
-0.1239199997505571
-0.0775631215483558
-0.037901349123572
-0.0081392691397702
-0.002899169921875
-0.0095720939972568
-0.0044845558966505
0.006702669242965
-0.0010978587286624
0.0005767175689939
-0.0076366919365201
0.0244365119356953
0.0188904939767095
-0.0020727977609409
0.0133201256757658
0.0301264365336617
0.0267213260091886
0.0291668168650253
0.0392079377386601
0.0466509279924677
0.0558655662651726
0.0202490228484496
0.0094194776599677
-0.005340576171875
-0.0288476553665167
-0.0426469533365964
-0.0531005859375
-0.0394086557066964
-0.0506591796875
-0.0405064123620248
-0.0332572308842233
-0.0294721800595717
-0.0354641094727445
-0.0360562300721426
-0.026898793014958
-0.0076886104398369
-0.0094536303867856
-0.0089662872072195
-0.0084857360863792
-0.0085335097438701
-0.0009451101980511
-0.029775461628008
-0.0281010208701907
-0.008105287092938
-0.0122118052690422
-0.0119314132230588
-0.011209480468712
-0.0153408158467097
0.0017653713468334
-0.0195361495191196
-0.0150487723827889
-0.0118313077489911
-0.007818029361638
0.0163564218911914
0.0162333415548675
0.010152854338788
0.0107927117822721
-0.0091078110200125
-0.0268028976467902
-0.0328179424821388
-0.0293148047632181
-0.0289685804498643
-0.0083934484240755
-0.0073715807675437
-0.0090963486888642
0.004581953917776
0.0824892633331263
0.1338784747067732
0.0888336318185125
-0.1133998103292049
-0.1006158172033903
-0.050683155202773
-0.0340921002302677
-0.0282348975511481
-0.0182756076817329
-0.0083102134935128
-0.0282753989033065
0.0078291101727774
-0.00964201087054
-0.016021728515625
-0.0077352361909423
0.0089094273515737
-0.0038617413499071
0.0173656525369105
0.0176767686503011
0.0214268217151023
0.025640593843928
0.0439276989967137
0.0362865760744029
0.0329648276538897
0.0205641047611692
0.0286277225154388
-0.0044661375202202
-0.0121426280091082
-0.0366799950719484
-0.0452185750149124
-0.0310575325677218
-0.0456416839600699
-0.0661877234180498
-0.0405179918264718
-0.041597930831931
-0.0171658465353622
-0.0169428598516543
-0.023856658540633
-0.0222652719936241
-0.0121200179335703
-0.033370105562537
-0.009536321484112
-0.01096896060166
-0.010986328125
0.0151701208196076
-0.0201545130000343
-0.020392693547449
-0.0037151406448127
0.0017672488264779
-0.0133228297818111
-0.0180703549812185
-0.0143021311933342
-0.0160456103243882
-0.0127881965381207
-0.0069367718779184
-0.0053577914218633
-0.0030981325635764
0.0091620303561518
0.0095854589079495
-0.0007405904174375
-0.008860422120853
0.0250124129181408
0.0118658319556415
0.001560121992929
-0.0222144813167724
-0.0235928709780704
-0.0116137660908789
0.0091071082200964
-0.021081224901639
-0.0121779252956223
-0.008273825193805
0.0014265230853608
0.061148213321536
0.1620626568810697
0.115102594001387
-0.0526763023125809
-0.106990816049549
-0.0651453607784737
-0.0444442518772774
-0.0295366301538546
-0.0147646404376336
-0.014781531060996
-0.0068131309750581
-0.0022307470105707
-0.0077482312950885
-0.0031800221344846
-0.0034851845290473
-0.0043136517029024
0.0100052446138732
0.0142562450555249
0.0137236900914788
0.0106399548850115
0.00962830794631
0.0343612608650487
0.0195434720243202
0.0292556708479334
0.0218857450067475
0.0205581577356386
0.0041822565747718
-0.0097277809004947
-0.0365219805624035
-0.0435164941425564
-0.0411487362984091
-0.0593979069918613
-0.0518017967275089
-0.0530550311196294
-0.0422090052742467
-0.03464174829104
-0.02960205078125
-0.0268099808654114
-0.0237459106686373
-0.0159600494607407
-0.0106233721548844
-0.0069242252270214
-0.0023176984138217
-0.0067963424249573
-0.0171269515828321
-0.0196921008090476
-0.032855828414823
-0.0059962482856042
-0.0011053033873058
-0.0051135718156471
-0.0181787568403303
-0.0254200970796445
-0.0053778446447441
0.0003131073797029
-0.0142483134570183
-0.0069325985854332
-0.0035134320636243
-0.0019096846056579
0.001669877578529
-0.0055382838138061
0.0003925103778732
0.0147386100692885
0.0253958387710308
0.0243977843164455
0.0305300812692589
0.0299397360762034
-0.0066363784824172
-0.0159605113007569
-0.0227930947720335
-0.020195419298839
0.0203354722518403
-0.0309680728382072
-0.0413872799591224
-0.00823974609375
0.0042240129268271
0.0693522571823692
0.1876795630228062
0.0968550280343517
-0.0820194382765646
-0.1124803406128785
-0.0659122961510953
-0.0379370162166857
-0.0201221139263536
-0.0369675740833013
-0.0234825029526418
-0.0096197906814319
-0.0016084980503484
0.0065106509333028
-0.0077406695031616
-0.0192640856514658
-0.0178274288612937
-0.0019742250600094
0.0145719929546718
0.0318049970371469
0.0269159179049981
0.0177415199445436
0.0203069067840181
0.0248622580536746
0.031302841513936
0.0536313939419681
0.0231868166429739
-0.0086086758627059
-0.0230249501207672
-0.0271448348809935
-0.0406266915388988
-0.05561189734737
-0.0481163226036654
-0.0532118291160834
-0.0478171072346439
-0.0479155326823396
-0.0359123150664578
-0.0344277959322649
-0.024791999820549
-0.0004563781522743
-0.0163212183112599
-0.0316398959622784
-0.0229066471501263
-0.0156981192979436
-0.0152643277947248
0.0042338471048758
-0.004186995453953
-0.00645005954495
-0.0115682012329766
-0.0093986362972864
0.012724390677003
-0.0224277794023958
-0.0222519957695248
-0.0064216162304169
-0.0030388262949894
-0.0037009240074951
-0.0208192261320508
-0.0103191100134534
-0.0088292044201554
-0.0019422543594192
-0.021804621822323
0.0025347112986557
0.0164121288204678
0.0145372445214089
0.0099856063776528
0.0289242906717178
0.0234855233187392
-0.0076247025054665
-0.023138930872163
-0.0148792168955544
-0.0303803196380901
-0.0267312438539058
-0.0068709630372519
-0.0204292475071811
-0.0116163965704807
0.0222167486829844
0.0834830123019563
0.1334163202090871
0.090780758923606
-0.1042005282337442
-0.1093704143980159
-0.0629291014852695
-0.0304519834710363
-0.0169524329897925
-0.0135651568485587
-0.0236096913215184
-0.0028597328094405
-0.0006103515625
0.0006649473986858
0.0053971214410165
0.006742134802063
0.0141643154865393
0.0067440106083348
0.008407393981441
0.0251788509860777
0.0160763829184518
0.0224267954825334
0.0229993196790205
0.020168053610728
0.0315442382073543
0.0169222778556063
0.0105550566613981
0.0005970987650422
-0.0122716453308148
-0.0540691780176728
-0.0594147206419339
-0.0452058543373114
-0.0513939368660543
-0.0610633335045692
-0.0507288238074159
-0.039634487056548
-0.0260228918702759
-0.0255400097966045
-0.0219163519408462
-0.0233474281652952
-0.0082516234114834
-0.0181031288815759
-0.0120959286313858
-0.011749267578125
-0.0111107939810312
0.002869682447557
-0.012716962751864
-0.0121789242754231
-0.004826608590828
-0.0173803226473884
-0.0056042532944499
0.0114683986322026
-0.0067956295851338
-0.0206127920584584
-0.0228747500763312
0.0131312532322733
0.0078942296002746
0.0104163373546887
-0.0042040283106789
0.0213757716715751
0.0068821174750529
-0.0220535384744396
-0.0249268319746357
-0.0426965827204078
-0.0160102695311823
-0.0036195832898192
-0.0195177361626036
-0.0059634827519622
-0.0221242970341756
0.0295838733650594
0.1156308986997853
0.11448512742702
-0.0428387340329392
-0.1241675710428434
-0.079805976796408
-0.0061857783491947
-0.01220703125
-0.0187123977976755
-0.01953125
-0.0126655395550808
-0.0029822676392097
-0.0081981955617467
-0.0028712386472507
-0.0005136161811081
-0.0053269418544868
0.0028360384142009
0.0042011434846084
0.0213765564647662
0.0324323362763916
0.0215701242808369
0.0412402960607533
0.0305033732010851
0.0315441244207132
0.0462326700396043
0.0225985831961151
-0.006019917581081
-0.0103339692106019
-0.0259815187115815
-0.0398117114290803
-0.054168701171875
-0.0540435961026071
-0.0594261093464306
-0.0393542422638158
-0.0318070887035054
-0.0453467088168596
-0.0218206004792213
-0.0268827842380273
-0.0153835711784791
-0.0218754590287
-0.0169514423766334
-0.0095298389920555
-0.0190596712907674
-0.0066585802647851
-0.0042862893615223
-0.002330323711355
-0.0180469785190738
-0.0154945951504332
-0.0193509517147047
-0.0061174042889831
-0.0050908830932987
-0.0018726704794956
-0.0090859204775114
0.0014703711036148
-0.0037591810963102
0.0069219796141192
0.0036066785456748
0.0168123783634048
0.0168399398313693
0.0149393698706717
-0.0219865917673043
-0.019697780101273
-0.0215153176047202
-0.0146623930973268
-0.009626999400023
-0.0042587596868292
-0.0156606500251909
-0.0006522986744189
0.0035941017748703
0.085687146624176
0.1492862473006029
0.0690348560295439
-0.1076457318172385
-0.0918005750741573
-0.0555832130729102
-0.0390484640827038
-0.0306977810303014
-0.0216398704740644
-0.0166039680835158
-0.0146067748546838
-0.0028147536181598
0.0055477816520554
-0.0097932098946932
-0.014495849609375
0.0165205457395719
0.0015252430396466
0.0132482359429261
0.0150638524600789
0.0201416015625
0.0181438293604223
0.0153965127360044
0.037439858939053
0.0536543386841893
0.0281713510565312
0.0107086769984663
-0.0055498431982209
-0.0132643233664043
-0.0463458827312102
-0.0580525974508473
-0.0556528839661502
-0.0583701458563294
-0.0601461880477278
-0.0354970607463868
-0.0433074814627837
-0.0380768081297694
-0.0307535783195702
-0.0281728085297072
-0.0194203716080138
-0.0114990005462764
-0.0143279206017375
-0.0123585231074958
-0.0024293582522816
-0.0238597123733897
-0.0129962487247105
-0.0092112916067382
-0.0154948227237309
0.0295411899864489
-0.0147008061299816
-0.0158560601808559
-0.0147723645427808
-0.0130534332070591
-0.0030217716849086
-0.0053001584863677
-0.0081953391823059
0.0139963479922047
-0.0023018168102068
0.01536963566116
0.0195442250241438
0.0278127407323811
0.0206252684293357
-0.0031625977178318
-0.0154143420992145
-0.02574560218366
-0.022913993082116
-0.0061148708628015
-0.0437958370088547
-0.0081273416219909
-0.0031625860045015
0.0008914464083068
0.0646925802925525
0.1407149771240327
0.1229468846512546
-0.0577658099263916
-0.1184738446322764
-0.0634296255090771
-0.0458036358222622
-0.0361035268296654
-0.0134422522122041
-0.02044677734375
0.0112606275654217
-0.0155803350606413
-0.0121924866394521
0.0016695228318957
0.0069373575444908
-0.0020545601044635
-0.0094458778348893
0.0067303880043598
0.0129301386841823
0.0079763651511235
0.021960056052412
0.026481301448696
0.0365374940327571
0.0340668479617326
0.0197925509896732
0.0182018538559572
0.019180050867481
-0.0243890260914974
-0.0317089778423233
-0.0463177540032742
-0.06561279296875
-0.0487716382975177
-0.045623779296875
-0.0468320344976238
-0.0368155015792387
-0.032806396484375
-0.0229718301643099
-0.0183500609607163
-0.0250809593316232
-0.0134795926382703
-0.0083528700986587
-0.0139396839164606
-0.0019147213380557
-0.0159281490403201
-0.0242861127645795
-0.0065735866611651
-0.0150200446017709
-0.0172965572701769
-0.0130215729465262
-0.0068368705505096
0.002815476497991
-0.0109174370049307
-0.008087158203125
-0.0031476749340295
0.0027831878641199
-0.0082667687485567
-0.0054121111581028
-0.0178595919952286
-0.0005657940510766
0.025009554865357
0.0268582029761818
0.0382604480611381
0.0303027020864674
-0.0121167766872949
-0.0219307861113939
-0.0181402333677449
-0.0204496220098704
-0.0240102236577383
-0.0098464971843968
-0.0008707489522899
-0.0135744856801638
0.003000809842294
0.0918876318971922
0.1496617884083183
0.1012674967447787
-0.0774250213749922
-0.1147250633006157
-0.0559367900115235
-0.0361333573372132
-0.0357386364865351
-0.0173500202599131
-0.0111658081504393
-0.0157884792805802
-0.0081796667452667
-0.0145290786562378
0.0068610050324793
0.0044218360287222
-0.0044368642325224
-0.0032344523106794
-0.0102738246021161
0.0209883683061655
0.0141789052770248
0.01679974804584
0.0222929188016751
0.0249556668490719
0.0221471012165434
0.055910634143061
0.0030717390819135
-0.0192680012506766
-0.0229754930902882
-0.0422318563098252
-0.0436820687706766
-0.044017540246113
-0.048286490530928
-0.045871857609106
-0.0552716300996035
-0.0379792109818869
-0.0314714482213582
-0.0181348201354727
-0.025634765625
-0.024387315945155
-0.0229490125954514
0.0016402077109077
-0.0099906062966647
-0.0144386684737256
0.0001488412980013
-0.0144119353055216
-0.0123024129049649
-0.0136222827642157
-0.0151023809526412
-0.014183083589588
-0.0256042172575683
-0.0080832827638677
-0.0020142177189141
0.013626559803597
-0.0204511296829771
-0.0221212950746726
-0.0104979357657102
-0.0027159399571479
-0.00072096054787
0.0069770623901647
0.019241415335801
0.0168912124281909
0.0032842389876825
-0.0203976215131531
-0.0236203872661473
-0.0207099625064168
-0.0186535634089347
-0.0109372860811137
-0.0367470806657557
-0.0256501669820511
-0.0232045422595194
-0.0016110047034301
0.1010387554687874
0.151351759369636
0.0842584030256027
-0.1075077169837251
-0.0943814402436491
-0.0478551320539978
-0.0454557298092296
-0.0282243689397802
-0.015727618485582
-0.0160902816224273
-0.0029566773574862
0.0022137057872883
-0.004150876560871
-0.0127863659118166
0.0102589386316835
0.0162693550279431
0.0112275307118917
0.0166540007405388
0.019688431189775
0.0431201786055421
0.018969229314842
0.0377001224622845
0.0280543683458538
0.03985810960679
0.0243096917000064
0.0057936176979662
0.0026780858177605
-0.0168409923578497
-0.0382371251455417
-0.0490696103801586
-0.0578416186047843
-0.0363579721739895
-0.046286971369172
-0.0504586307261488
-0.0423460763478939
-0.0307073207018221
-0.02685546875
-0.0298651623172603
-0.0217887167920656
-0.0164531070725861
-0.0182000282496146
-0.0117071966395572
-0.011539501898589
0.0115439496176413
-0.0165007803300507
-0.008686877407701
-0.0189787070730451
-0.0110284091035699
-0.005424741475667
-0.0072452140052122
-0.009613037109375
-0.0062824283905555
-0.0014732391963915
0.0236722639359582
-0.0155060892748562
0.006329777021412
0.0139486831013368
0.0121333276241857
0.004425048828125
-0.0117546155504348
-0.0115178406026893
-0.0059768777825777
-0.014090998400633
-0.0331586799366123
-0.0164215329519931
0.0026415636514716
-0.0108654666282934
0.0099243239028047
0.0948053741423034
0.1188556155588433
0.0317821443283003
-0.1239808505055781
-0.0846265362884
-0.0290179136537022
-0.0293923754616939
-0.0223780111320014
-0.0221617127603133
-0.0156060960223024
0.0008790921907585
0.0070668935995662
-0.0048508986928132
-0.0073344294280164
0.0036039995395036
-0.0034891469816095
0.0062415605783196
0.0302545469089686
0.0047403767207576
0.0164112001206517
0.023757314433188
0.022183412542773
0.0332439496401874
0.0355571350748515
0.02278783381306
0.0044511628631015
-0.0131024417842822
-0.0324911740117424
-0.042383299640759
-0.0566743901828746
-0.047211847624515
-0.0527032429739435
-0.0420498947315343
-0.0384000006875315
-0.0359003273087578
-0.0298963432044288
-0.0356136836907857
-0.0347416663518065
-0.0204566951885227
-0.0135542785106344
0.0053244318549771
-0.0328449668103659
-0.0035911918486073
0.0056816349061714
-0.007129441114166
0.0038927381705966
-0.006093691486876
-0.0194306692993586
-0.0057561434052051
0.001509674349352
-0.004490146502207
0.0302190287425869
-0.0044932304550039
0.0161450899718876
0.0045581758558778
0.0050970459787477
-0.0142069252383357
-0.0105254319738073
-0.0243687469687166
-0.0241933164091567
-0.0220504712550215
-0.0181971651768379
-0.0032917673129066
0.0044346738396
0.0058932479456331
0.0841680145964496
0.1460592480151722
0.0489515567366629
-0.1184217336957245
-0.0829874614238986
-0.0335203005868981
-0.0310925152677148
-0.0237873524339986
-0.01447683385299
-0.0221701045253284
-0.0012232934444557
-0.0045681639805725
-0.0057138499133431
0.0163786002469018
0.005070680943769
0.004058771291919
0.0034085994238103
0.0151202471291633
0.0268226044896396
0.0136625163831323
0.0270409476743152
0.0344261510458685
0.0217542327454032
0.0271441789344134
0.015411376953125
0.0360716264091165
0.0052509591490474
-0.0237428702226171
-0.0471053383050379
-0.0629012404907767
-0.0581029614278261
-0.04791259765625
-0.0391674380598298
-0.050490059266717
-0.0287122659925364
-0.0209817536207111
-0.0259215815963824
-0.0318045184638831
-0.0172258656438191
-0.0146061473548063
-0.0118761430337136
-0.0145381431012348
-0.0076202849063554
0.0107625533013291
-0.0081203705167368
-0.0179812198784291
-0.0050686394775667
-0.0095888356940089
-0.0096810145896127
-0.002288818359375
-0.0056894460247632
0.0042994735523453
-0.0232190115700594
-0.0025350141719891
0.0076204254663165
0.0108683347210314
0.0242948475629871
0.0356143413104855
-0.0022286519975866
-0.0209212475724001
-0.0292879762150517
-0.0195991839735812
-0.0320769103048175
-0.0251858655980582
-0.0260944569763374
-0.0033648400922256
-0.0155463078337755
0.0287597602034021
0.1081998945302528
0.1397177476228112
0.0324803575870372
-0.1218154973491016
-0.0883067661866129
-0.0608832611192448
-0.0423690127234239
-0.0256777485300578
-0.0092655092696108
-0.005161889306352
-0.018090081904122
-0.0130378444367327
-0.0165560270927742
0.0127668213822355
0.0008986668403181
-0.011833995121814
0.0068240896329445
0.0164367937491165
0.0374432892717119
0.0312630814480272
0.0168696532057367
0.0151400158853642
0.0215570873433879
0.028610154192253
0.0246600524925751
0.0080194216828954
-0.014682319146802
-0.0204637248604946
-0.0409189860025912
-0.040918980982599
-0.0543212890625
-0.0410544941830415
-0.0475313086495256
-0.0565591443917076
-0.041164741728635
-0.039452470258263
-0.0230575382811588
-0.013427734375
-0.0167422657102434
-0.0207265770298791
-0.0044928255084087
-0.0058577883456298
-0.0166661759115528
-0.0197507009310153
0.0092479058062241
-0.0140127399623856
-0.015716552734375
-0.0107654147008935
0.0048739672616927
-0.0060275379396107
-0.0105709867916259
0.0025522628886909
0.0082047935136875
-0.004976604488638
-0.0069520962615838
-0.0171314612153547
-0.0140046460506136
-0.0004911868254022
0.0209641317508255
0.0340361473209876
0.0352225320592543
0.0191745489486693
0.0080022733661383
-0.0153549069840067
-0.0272122300413307
-0.0178688706266405
-0.0278054132071338
-0.0205729550193979
-0.0196413854321338
-0.0209457602276895
0.0027730675461113
0.0655237900592316
0.1525135845993315
0.1168171863843236
-0.0584242748333796
-0.1238294607215305
-0.0662735252415682
-0.0435112582835598
-0.035858154296875
-0.0321614537818654
-0.0145383221478683
-0.001796436774133
-0.0108840607046931
0.0063410586325962
-0.0044077197914637
-0.0012380388549962
-0.0039594874244385
-0.0073996241554307
0.0099026642803296
0.0129293204242196
0.0250417832591526
0.0263996026377959
0.0405980340377173
0.0270003409021109
0.0293393709651553
0.021480087251445
0.0120795333145584
0.0068218758134043
-0.0241611549486773
-0.0243443447533889
-0.0425338527583673
-0.0507518170763215
-0.0570754814122638
-0.0456018050875355
-0.0331912998903058
-0.0434526096348639
-0.0369763490416141
-0.0335192664671513
-0.0244116529003745
0.0065437829269007
-0.019913954646352
-0.016972275372619
-0.017037294400103
-0.0074015936685189
-0.0173576707384869
-0.0254970938248076
-0.0083471506463119
-0.0052656225663252
-0.01312255859375
-0.0153864024579275
-0.0006103515625
-0.0047727657545226
-0.0033745169770371
0.0019513238243678
-0.0167171724084203
-0.0132296770064582
6.0159668406110846e-05
-0.005603200767985
-0.0195106144572804
0.0076148064141152
0.0063734175463628
0.0014231195260066
0.0043503211224867
0.00593327072444
0.0174905735394893
0.0201167073872937
0.0045599596288149
-0.0139274317723152
-0.0312843930172043
-0.016937255859375
-0.0183531198134681
-0.0244566371118041
0.0004791890276845
-0.0243680207421881
-0.0081297378349291
0.0310781831706113
0.1393588946650293
0.1268217867653553
0.0184130050553355
-0.1118824520346207
-0.0798138883147677
-0.0507691762329905
-0.0357865724571221
-0.0056495169523355
-0.0253581837582349
-0.0298073904949846
-0.0204754214582287
-0.018157958984375
-0.014478025266127
-0.0111032539424417
-0.0119939992243274
0.0047233053773487
0.0083180580786679
0.0132256392539191
0.0134387147862146
0.0308997305713473
0.0117671454680294
0.025042298645748
0.0231012825527044
0.0329632312941574
0.0299660140978739
0.0013800931142997
-0.0138539992263237
-0.032196044921875
-0.04283896495304
-0.0513974257653739
-0.0533384401850461
-0.063074897317343
-0.0464787119056266
-0.0285181309165181
-0.0377431237740578
-0.0383129304775993
-0.0179940593626197
-0.0192800492483402
-0.0292608782602525
-0.0144304674686592
-0.0145745230342434
-0.0112734854563762
-0.005645751953125
0.0046515060045258
0.003240422762828
-0.0114129109095288
-0.0079903425017456
0.0038081528602479
-0.0013110296409761
0.0028253909960992
-0.0063168488505849
-0.0060492594754401
-0.0086483539350745
-0.009613037109375
0.0031306420773262
-0.0053095626178882
-0.0055358407476191
-0.00091552734375
0.0048390180283715
0.0015322827516808
-0.0019046679532986
0.0001462074718579
0.0054195809166782
0.0055603751562191
0.0026603384478408
0.0300953510261785
0.0292486395026658
0.0066711720957188
-0.0091916717771863
-0.0136902117178026
-0.0104921393401085
-0.018505836550742
-0.0183777278487345
-0.010943136053239
-0.0241822891446215
-0.0048036119752427
-0.0098024918728453
0.0497368201254227
0.1048276030861853
0.1174013117989062
-0.0222889831223716
-0.1181824705017508
-0.0804322216758371
-0.0381836404025159
-0.0070252075273696
-0.0228149468279056
-0.0308898880266673
-0.0226927684180673
-0.0072510271640861
-0.0031553789591718
0.0215513611977746
-0.0147215839058942
-0.0002931411702813
-0.0036377372796877
0.0267276394946415
0.0134337165405231
-0.003204345703125
0.0147284864046736
0.0353148966947812
0.0165893314396852
0.0179626207819842
0.0216365522547247
0.0155094108409387
0.0018671535005699
-0.0170537733836405
-0.041961669921875
-0.0545166373048985
-0.044719935164279
-0.0420471973187391
-0.0447510173248908
-0.0559511823487352
-0.0510187136915609
-0.0203543089615155
-0.0258913980156102
-0.0317752953761892
-0.0228626518786521
-0.0061405565245193
-0.0014217942462955
-0.0154541573848908
-0.020904541015625
-0.0036121570379153
0.002476993023069
-0.0126591290162831
-0.0161016519202443
-0.0130426201291574
-0.0104243994731728
0.0118702997548009
-0.0079903525418151
-0.0173540362593171
-0.0197545562904458
0.0075251793513262
-0.0044975928341536
-0.0032899534199849
-0.0108523744707912
0.0038892609846297
0.0181842269660841
0.0129008553564376
0.0026796185908019
-0.0188912737498691
-0.0108446737922608
0.0084647424504034
-0.0222965198143226
-0.0252572114977179
-0.0270858398523684
-0.0255570091866311
0.0045722402198071
-0.0021175092190209
0.0543265065148633
0.0985343080709345
0.0903025554887028
-0.0506406927039642
-0.1089530801252467
-0.0704258743355134
-0.0333469784269124
-0.0210759037026355
-0.0164419292080416
-0.0107668403805945
-0.0079638770668702
-0.0013440009945583
0.0151250094349169
0.0110155846793701
0.0323998886760165
0.0017985953736653
0.003862738656359
0.000586335887111
0.0107513838035356
0.0163320548158714
0.0333018837756468
0.0264354420841918
0.0079172814357315
0.0604334792459305
0.0433313482116486
0.0240572811287206
-0.0030416207611018
-0.0244707884891004
-0.0477461395083052
-0.044449775549603
-0.0487284596124848
-0.0423626272846185
-0.0555848746925787
-0.0567816441355113
-0.0500158919113577
-0.0368165691657037
-0.0357344380939785
-0.02475303291471
-0.0040151056670275
-0.0176523848416915
-0.0192548789731966
-0.024137674739893
0.0005386810363069
-0.0005435654953606
-0.0002574155104725
-0.0157784861357955
-0.0030182191989091
-0.0098037100593183
-0.008196836815343
-0.010523765334075
0.00640869140625
-0.0308847375076597
-0.0009488952772462
0.0060224326006105
0.0003624439301919
0.0102373944691717
-0.0176093985899562
-0.005450239724093
0.0062275999611233
0.017852783203125
0.0115537503291007
0.0256678775386271
0.0012155007327367
-0.0286058989063581
-0.0285570526423938
-0.025844842544603
-0.005082939781433
-0.014991966073837
-0.0316094530148098
-0.0111535409461421
0.0045604080822365
0.0943963697209088
0.1421881744870794
0.0683841938748186
-0.0819420934784318
-0.10782069719005
-0.0536577104502614
-0.0345560067075544
-0.0291917060202291
-0.0295487283515113
-0.002436970244209
-0.0119448199671415
-0.022535629061615
-0.0219384901365488
-0.0008725578253562
-0.0005673803707724
0.0134339407672105
0.0102171404462667
-0.000281516525814
0.0096323607589815
0.023612462360992
0.0304316156615449
0.0345923063205896
0.0110938631977143
0.0508311246944101
0.0409214391087405
0.017532485511503
0.0190238284977281
-0.0129893545927229
-0.0463462609045158
-0.0496896622540515
-0.0502790318940516
-0.0596770975848081
-0.0498144042101464
-0.018119110885179
-0.049591064453125
-0.0395520954857256
-0.0277986797150674
-0.0286824154049916
-0.0307797425545279
-0.0110528899655245
-0.0143351159336252
-0.0159356957721852
-0.0248758756377734
-9.815269441346044e-05
-0.009342830641423
-0.0095034722838057
-0.0074963177035358
-0.0055596991296963
-0.0159942456942306
-0.0188818361516782
0.0066940883914459
-0.0018192225498052
-0.0126608625893281
-0.0034430064971743
-0.0103798854684134
-0.0117219018900344
-0.0044915537753212
0.0025432034637501
0.0293788214641051
0.0040026309694654
0.0129426886816754
0.020000971309523
0.0385142759455354
-0.0123482086828851
-0.0281584898191562
-0.0267965540413286
-0.0075395097752405
-0.0159356087588569
-0.01818136221988
-0.0074374766215344
0.0079925211813397
-0.0105864701418951
0.0757130644910206
0.1353651507672639
0.0833804570679115
-0.098727146313777
-0.0916374284521562
-0.0455412655727648
-0.0409241632949378
-0.019472054171359
-0.0103023432167708
-0.0328297344598721
-0.0175942733329133
-0.0131961116196026
-0.0180915477438308
-0.0071589503418255
0.000762939453125
0.0102770491148161
-0.001800730546773
-0.0002154834584949
0.0235777574343085
0.0140217491873199
0.0172389678413068
0.0319770759106948
0.0279899617582583
0.0337513159225571
0.0405822009608272
0.017113101405519
-0.0018010150132583
0.0141678512392166
-0.0445091788714619
-0.0534953536414771
-0.0505497102419099
-0.0455906640366361
-0.0531138387349184
-0.0549946332461565
-0.03448486328125
-0.0402864912243566
-0.0332409577207233
-0.0194116535429015
-0.0005078231020639
-0.0407641541724182
-0.0126313483416836
-0.0005704325301749
-0.0081901953566762
-0.0160880360095236
-0.0085649014711625
0.0281865767136284
-0.0330294785481065
-0.0235216823718009
-0.0238499953285863
-0.012230168425542
0.0004671008699899
-0.0105979458597545
-0.0019404873197618
-0.0133183034160641
-0.014495849609375
-0.0025769947505898
-0.0118064052071362
-0.0082427764998242
-0.008760748366805
0.0186579207685092
0.0069446867431626
-0.007373356173907
0.0005381639764024
0.031513532546652
0.0169662145604565
0.0033829271487109
-0.0067310690509014
0.0009067875254197
-0.0181262125104086
-0.0286894132836127
-0.0287037989275116
-0.0246587573328541
-0.0155668195498627
0.0005413014758246
0.0266802306235402
0.1182100520497785
0.1514704254533662
0.0342126136737057
-0.1350061539030407
-0.1094653542931375
-0.0306003277887974
-0.0190992121498808
-0.0311601848545868
-0.0360337086830803
-0.0223926394091131
-0.0082478533921955
-0.0024535948077185
-0.0054702176469273
-0.0081735891998163
-0.0109431109533184
0.0348535453969346
-0.0040713882228685
-0.0069784412165474
0.0041912306597202
0.0140709234245878
0.0482000377809625
0.0362523614343261
0.0315424628010293
0.0288416614876426
0.0291163240414533
0.0263849308538578
-0.0131378896708937
-0.0313212531969707
-0.0418016072526433
-0.0527775088397123
-0.012664794921875
-0.0519867686319492
-0.050855014869801
-0.0499166482037891
-0.0367328523151093
0.0032848865675985
-0.0229566614005865
-0.0372471077094588
-0.0201967311918372
0.006390606023017
-0.0121818743615269
-0.017064703594886
-0.0104876280343582
-0.0015509855947449
-0.0106788481641787
-0.0093511303731292
-0.011769762560852
-0.0112505005541085
-0.021576417686368
-0.0222800776441725
-0.0072809413383337
-0.0114191189750212
-0.0063448755051848
-0.0077775849027327
0.0021069337544261
-0.0022822923607238
-0.0126009455541688
-0.0061511085625441
-0.0036458144581396
-0.002268236363335
0.0094519821538101
0.0295856655043895
0.0186321380531568
0.0334250745520309
-0.0030909188249551
-0.0194652671327075
-0.0210550824199764
-0.0281607488187231
-0.0099161898310388
-0.0089140557906358
-0.0192673854640986
-0.0115553550554816
-0.0001299426749833
0.0545920376904914
0.1168557834838576
0.1160256446501838
-0.0624112517722704
-0.1397800960107003
-0.078230707793252
-0.0266633433470022
-0.0093945165514421
-0.0219067269293639
-0.0257759129376147
0.0042761556567492
-0.005864259124386
-0.004249880981843
0.0054462019715616
0.0090893641968529
0.0013109627076278
0.0132733694047351
0.0075409404749725
0.0037731049002759
0.02288818359375
0.0289500800801056
0.035530443739968
0.0409577303551404
0.0232868484902862
0.022863980505102
0.0196855095502646
0.0048844724463423
0.0125797209982703
-0.0481437284517083
-0.0448399700344277
-0.0496328174584567
-0.0366692656606878
-0.0540996728385391
-0.0458437907945399
-0.0458406432551295
-0.0549603232262046
-0.0127127994992807
-0.0291652104653537
-0.0322603544561841
-0.0277485516780766
-0.0303874296300637
-0.0283409316440631
-0.0053630055275549
-0.0057115641404481
-0.0104627556124626
0.0091299843557306
-0.0214476647511085
-0.0207785992798756
-0.0056037579878988
-0.0015888899340938
0.0132682523523951
-0.0067782854884502
-0.0229987239724614
0.00244140625
0.0114006855385676
0.0055786596660392
0.0365368916329218
0.0107929226222318
0.0073044399537991
-0.005562742922354
-0.0066232495117365
-0.0074396385679163
-0.0198748923604221
-0.0242837985450779
-0.013886712886622
-0.0167412433037763
-0.0139970424253894
0.0159771208042347
-0.0080660273538332
0.0534399428919557
0.1067880900820026
0.0883808680656324
-0.088614468700948
-0.111549513985374
-0.0489204929821183
-0.0217565352515612
-0.0210136858346144
-0.0034205068615329
-0.015190992302205
-0.0030740014282182
-0.0221899050748575
0.0138400151823713
0.0042724609375
0.0120969058578352
0.0103335006773524
0.0182409998084432
0.0151747408920321
0.0152365856067807
0.0179184447904787
0.0324106030273847
0.0396959502514331
0.0373174830759209
0.0437270764086776
0.0235863533460013
0.0057318348965956
0.0236084999083968
-0.0207682313086625
-0.057176980772747
-0.0441184154533521
-0.0570235846622652
-0.0556716487225292
-0.0435737371915495
-0.046017467701028
-0.0371444688092397
-0.0383231712757085
-0.0344421062761637
-0.0357269516021367
-0.0271413861416667
-0.0094190509600267
-0.0036407040991132
-0.0176319032457908
-0.0252017421816965
-0.009068919414148
-0.0165242789455701
-0.016695767132549
-0.0164788747276457
-0.0219070883692917
-0.0124043188853281
-0.0170892614301458
-0.007673480162763
-0.0306272082105826
-0.0139295635983902
-0.00579833984375
0.0023753380427537
-0.0043369779650946
0.0039002464159177
0.0218635950976593
0.0119898660918067
0.0037514954776959
-0.0357261986022833
-0.0313469221253254
-0.0219286910984871
-0.0141910921613302
-0.004121906146608
-0.0243473701394399
-0.0025512187288591
-0.0086323802981485
0.0518985973689163
0.131726200321174
0.1354561800829189
-0.0174085166351552
-0.1272579878679522
-0.0777774755069209
-0.0445997982206694
-0.0319344259989094
-0.0266807025037032
-0.0061911447280914
-0.003312886448847
-0.0194657892126002
-0.0146486567066103
-0.0036623168682976
-0.0116410313789594
0.0133621029076617
0.0066272404107079
0.0004140294402676
0.0049262388382941
0.0104195535007767
0.0229531122613034
0.0528606099036912
0.0393461399853541
0.0240653934470988
0.0255475163684541
0.0189644854157767
0.0183761783424111
-0.0102233451652108
-0.0345938273802854
-0.0459943154656018
-0.0566755046226139
-0.0389970927593802
-0.0435311926996836
-0.0612531045280323
-0.0322395699868488
-0.0236946263584819
-0.0101580734644677
-0.0244795835274462
-0.0399345039521429
-0.0331769393463793
-0.0047519762651928
-0.0083270940769446
-0.0129046136623817
-0.0071713430460772
-0.0076733245428245
-0.0178089954248479
-0.0117273669956737
-0.0032045364630712
0.0090243970427005
-0.016588881313123
-0.00980902791162
-0.0177659974598496
-0.0115308574601194
0.0100046974340268
-0.0115752710649568
-0.0049258807450734
0.0098315275473188
0.0112701454837069
0.005340576171875
0.019051830052315
0.0223427857987758
0.0027455177915108
-0.0068880962939581
-0.0256784161899332
-0.0161086431055569
-0.0174607011986225
-0.0065824871194178
-0.0065180470651934
-0.0317387179898925
0.0023770364757183
0.0282094595426835
0.0972891173908383
0.142059809765119
0.0697227598837169
-0.1102357350582047
-0.0879543154010881
-0.046843421528715
-0.0467808689941119
-0.0213396360451942
-0.0132535906085343
-0.0153018907741659
-0.0082379790541796
-0.0204252365278927
-0.0049486447673231
-0.0069747331105956
-0.0027244204088512
-0.0023546757267092
-0.0012617566770102
0.0188765350327201
0.0217111745403341
0.0238689073382849
0.0088930889279775
0.0304982410887766
0.0464067451993904
0.0260058657069048
0.0333300928235733
0.0127943828502786
0.0049655688573496
-0.0151514865831373
-0.0383440712049855
-0.0478490578551852
-0.0529727366022419
-0.0530329247171435
-0.04425048828125
-0.0256116184094734
-0.0378221117854788
-0.045095581691944
-0.0234110867730816
-0.022627638950593
-0.0241740195328674
-0.0154551061647069
-0.0049693338566881
-0.0076740792159686
-0.0102904357789838
-0.0069753070638321
-0.0040537730462585
-0.0062764746716579
0.0028360852673129
0.0018473027510235
-0.0270090907604104
-0.0127725910344507
-0.0018097096516133
0.000283835765371
-0.0222554160622253
0.0064075987198158
0.0006103515625
-0.0050589525527622
0.0001986012018167
-0.007194080295056
-0.01190185546875
0.0029642324560077
-0.0001277690154123
0.0127996521758381
0.0257672668261562
0.0231684501397872
-0.0078956854000762
-0.0282950354662031
-0.0075018062358777
